10.00000 202.000
10.01995 201.000
10.03989 225.000
10.05984 205.000
10.07979 213.000
10.09973 189.000
10.11968 178.000
10.13963 191.000
10.15958 225.000
10.17952 220.000
10.19947 208.000
10.21942 185.000
10.23936 206.000
10.25931 220.000
10.27926 205.000
10.29920 211.000
10.31915 200.000
10.33910 216.000
10.35905 214.000
10.37899 221.000
10.39894 219.000
10.41889 217.000
10.43883 201.000
10.45878 201.000
10.47873 183.000
10.49867 218.000
10.51862 228.000
10.53857 238.000
10.55851 222.000
10.57846 197.000
10.59841 199.000
10.61836 203.000
10.63830 214.000
10.65825 193.000
10.67820 233.000
10.69814 224.000
10.71809 199.000
10.73804 234.000
10.75798 220.000
10.77793 208.000
10.79788 204.000
10.81783 207.000
10.83777 211.000
10.85772 207.000
10.87767 206.000
10.89761 218.000
10.91756 206.000
10.93751 218.000
10.95745 215.000
10.97740 202.000
10.99735 203.000
11.01730 198.000
11.03724 223.000
11.05719 211.000
11.07714 204.000
11.09708 234.000
11.11703 212.000
11.13698 199.000
11.15692 188.000
11.17687 207.000
11.19682 197.000
11.21676 200.000
11.23671 193.000
11.25666 195.000
11.27661 208.000
11.29655 212.000
11.31650 207.000
11.33645 216.000
11.35639 179.000
11.37634 209.000
11.39629 225.000
11.41623 210.000
11.43618 223.000
11.45613 185.000
11.47608 204.000
11.49602 230.000
11.51597 204.000
11.53592 239.000
11.55586 214.000
11.57581 219.000
11.59576 226.000
11.61570 198.000
11.63565 196.000
11.65560 186.000
11.67554 193.000
11.69549 210.000
11.71544 221.000
11.73539 220.000
11.75533 209.000
11.77528 214.000
11.79523 230.000
11.81517 225.000
11.83512 191.000
11.85507 246.000
11.87501 204.000
11.89496 209.000
11.91491 205.000
11.93486 223.000
11.95480 186.000
11.97475 166.000
11.99470 221.000
12.01464 203.000
12.03459 228.000
12.05454 219.000
12.07448 228.000
12.09443 201.000
12.11438 213.000
12.13432 210.000
12.15427 206.000
12.17422 204.000
12.19417 243.000
12.21411 221.000
12.23406 216.000
12.25401 197.000
12.27395 228.000
12.29390 204.000
12.31385 233.000
12.33379 203.000
12.35374 213.000
12.37369 233.000
12.39364 199.000
12.41358 196.000
12.43353 220.000
12.45348 219.000
12.47342 194.000
12.49337 229.000
12.51332 211.000
12.53326 194.000
12.55321 213.000
12.57316 214.000
12.59311 204.000
12.61305 213.000
12.63300 240.000
12.65295 238.000
12.67289 206.000
12.69284 221.000
12.71279 198.000
12.73273 214.000
12.75268 197.000
12.77263 214.000
12.79257 212.000
12.81252 186.000
12.83247 215.000
12.85242 204.000
12.87236 232.000
12.89231 221.000
12.91226 214.000
12.93220 220.000
12.95215 214.000
12.97210 199.000
12.99204 244.000
13.01199 218.000
13.03194 229.000
13.05189 200.000
13.07183 217.000
13.09178 196.000
13.11173 204.000
13.13167 217.000
13.15162 222.000
13.17157 252.000
13.19151 212.000
13.21146 199.000
13.23141 219.000
13.25135 206.000
13.27130 196.000
13.29125 215.000
13.31120 247.000
13.33114 216.000
13.35109 198.000
13.37104 210.000
13.39098 200.000
13.41093 245.000
13.43088 233.000
13.45082 236.000
13.47077 187.000
13.49072 224.000
13.51067 187.000
13.53061 207.000
13.55056 190.000
13.57051 195.000
13.59045 210.000
13.61040 224.000
13.63035 214.000
13.65029 234.000
13.67024 185.000
13.69019 205.000
13.71013 210.000
13.73008 235.000
13.75003 199.000
13.76998 220.000
13.78992 209.000
13.80987 216.000
13.82982 216.000
13.84976 223.000
13.86971 200.000
13.88966 200.000
13.90960 225.000
13.92955 190.000
13.94950 175.000
13.96945 212.000
13.98939 192.000
14.00934 213.000
14.02929 198.000
14.04923 222.000
14.06918 214.000
14.08913 203.000
14.10907 229.000
14.12902 213.000
14.14897 211.000
14.16892 198.000
14.18886 236.000
14.20881 216.000
14.22876 209.000
14.24870 214.000
14.26865 192.000
14.28860 208.000
14.30854 220.000
14.32849 197.000
14.34844 239.000
14.36838 217.000
14.38833 217.000
14.40828 244.000
14.42823 218.000
14.44817 215.000
14.46812 214.000
14.48807 213.000
14.50801 213.000
14.52796 230.000
14.54791 220.000
14.56785 228.000
14.58780 222.000
14.60775 224.000
14.62770 221.000
14.64764 231.000
14.66759 215.000
14.68754 238.000
14.70748 219.000
14.72743 203.000
14.74738 209.000
14.76732 214.000
14.78727 194.000
14.80722 224.000
14.82716 193.000
14.84711 212.000
14.86706 197.000
14.88701 208.000
14.90695 188.000
14.92690 223.000
14.94685 248.000
14.96679 215.000
14.98674 232.000
15.00669 232.000
15.02663 248.000
15.04658 217.000
15.06653 237.000
15.08648 215.000
15.10642 204.000
15.12637 218.000
15.14632 216.000
15.16626 244.000
15.18621 218.000
15.20616 206.000
15.22610 222.000
15.24605 201.000
15.26600 223.000
15.28594 211.000
15.30589 224.000
15.32584 251.000
15.34579 222.000
15.36573 213.000
15.38568 220.000
15.40563 211.000
15.42557 243.000
15.44552 236.000
15.46547 237.000
15.48541 235.000
15.50536 215.000
15.52531 214.000
15.54526 232.000
15.56520 235.000
15.58515 222.000
15.60510 213.000
15.62504 220.000
15.64499 236.000
15.66494 213.000
15.68488 221.000
15.70483 232.000
15.72478 213.000
15.74472 268.000
15.76467 242.000
15.78462 240.000
15.80457 256.000
15.82451 289.000
15.84446 255.000
15.86441 259.000
15.88435 227.000
15.90430 220.000
15.92425 255.000
15.94419 241.000
15.96414 226.000
15.98409 248.000
16.00404 210.000
16.02398 231.000
16.04393 235.000
16.06388 230.000
16.08382 236.000
16.10377 250.000
16.12372 259.000
16.14366 223.000
16.16361 235.000
16.18356 220.000
16.20351 206.000
16.22345 228.000
16.24340 232.000
16.26335 220.000
16.28329 221.000
16.30324 244.000
16.32319 237.000
16.34313 210.000
16.36308 212.000
16.38303 225.000
16.40297 237.000
16.42292 214.000
16.44287 225.000
16.46282 222.000
16.48276 210.000
16.50271 229.000
16.52266 218.000
16.54260 230.000
16.56255 223.000
16.58250 236.000
16.60244 217.000
16.62239 218.000
16.64234 222.000
16.66229 230.000
16.68223 222.000
16.70218 232.000
16.72213 257.000
16.74207 242.000
16.76202 213.000
16.78197 249.000
16.80191 218.000
16.82186 267.000
16.84181 248.000
16.86175 228.000
16.88170 261.000
16.90165 271.000
16.92160 221.000
16.94154 237.000
16.96149 239.000
16.98144 259.000
17.00138 266.000
17.02133 248.000
17.04128 240.000
17.06122 290.000
17.08117 228.000
17.10112 238.000
17.12107 246.000
17.14101 223.000
17.16096 247.000
17.18091 252.000
17.20085 275.000
17.22080 262.000
17.24075 254.000
17.26069 289.000
17.28064 262.000
17.30059 266.000
17.32053 238.000
17.34048 224.000
17.36043 259.000
17.38038 235.000
17.40032 259.000
17.42027 243.000
17.44022 244.000
17.46016 233.000
17.48011 239.000
17.50006 218.000
17.52000 233.000
17.53995 239.000
17.55990 241.000
17.57985 240.000
17.59979 251.000
17.61974 217.000
17.63969 244.000
17.65963 252.000
17.67958 206.000
17.69953 249.000
17.71947 225.000
17.73942 224.000
17.75937 226.000
17.77932 247.000
17.79926 221.000
17.81921 256.000
17.83916 225.000
17.85910 248.000
17.87905 219.000
17.89900 211.000
17.91894 231.000
17.93889 198.000
17.95884 227.000
17.97878 249.000
17.99873 242.000
18.01868 248.000
18.03863 231.000
18.05857 232.000
18.07852 223.000
18.09847 248.000
18.11841 206.000
18.13836 202.000
18.15831 255.000
18.17825 213.000
18.19820 249.000
18.21815 211.000
18.23810 235.000
18.25804 199.000
18.27799 240.000
18.29794 239.000
18.31788 241.000
18.33783 276.000
18.35778 279.000
18.37772 318.000
18.39767 331.000
18.41762 334.000
18.43756 468.000
18.45751 492.000
18.47746 441.000
18.49741 381.000
18.51735 335.000
18.53730 250.000
18.55725 260.000
18.57719 245.000
18.59714 229.000
18.61709 233.000
18.63703 240.000
18.65698 216.000
18.67693 228.000
18.69688 251.000
18.71682 258.000
18.73677 206.000
18.75672 220.000
18.77666 221.000
18.79661 212.000
18.81656 254.000
18.83650 273.000
18.85645 232.000
18.87640 212.000
18.89634 253.000
18.91629 224.000
18.93624 241.000
18.95619 268.000
18.97613 248.000
18.99608 209.000
19.01603 200.000
19.03597 210.000
19.05592 235.000
19.07587 239.000
19.09581 243.000
19.11576 244.000
19.13571 214.000
19.15566 235.000
19.17560 229.000
19.19555 231.000
19.21550 202.000
19.23544 262.000
19.25539 225.000
19.27534 232.000
19.29528 241.000
19.31523 229.000
19.33518 252.000
19.35513 247.000
19.37507 219.000
19.39502 239.000
19.41497 222.000
19.43491 201.000
19.45486 211.000
19.47481 237.000
19.49475 201.000
19.51470 251.000
19.53465 252.000
19.55459 229.000
19.57454 253.000
19.59449 262.000
19.61444 252.000
19.63438 252.000
19.65433 227.000
19.67428 227.000
19.69422 239.000
19.71417 237.000
19.73412 251.000
19.75406 276.000
19.77401 251.000
19.79396 227.000
19.81391 246.000
19.83385 232.000
19.85380 253.000
19.87375 255.000
19.89369 221.000
19.91364 231.000
19.93359 240.000
19.95353 272.000
19.97348 236.000
19.99343 251.000
20.01337 240.000
20.03332 284.000
20.05327 237.000
20.07322 244.000
20.09316 252.000
20.11311 237.000
20.13306 252.000
20.15300 247.000
20.17295 285.000
20.19290 243.000
20.21284 237.000
20.23279 244.000
20.25274 255.000
20.27269 253.000
20.29263 247.000
20.31258 245.000
20.33253 253.000
20.35247 223.000
20.37242 243.000
20.39237 251.000
20.41231 272.000
20.43226 278.000
20.45221 266.000
20.47215 279.000
20.49210 269.000
20.51205 268.000
20.53200 298.000
20.55194 298.000
20.57189 299.000
20.59184 339.000
20.61178 372.000
20.63173 354.000
20.65168 372.000
20.67162 352.000
20.69157 365.000
20.71152 414.000
20.73147 390.000
20.75141 426.000
20.77136 409.000
20.79131 440.000
20.81125 505.000
20.83120 494.000
20.85115 539.000
20.87109 588.000
20.89104 554.000
20.91099 562.000
20.93094 567.000
20.95088 540.000
20.97083 523.000
20.99078 501.000
21.01072 496.000
21.03067 452.000
21.05062 461.000
21.07056 416.000
21.09051 376.000
21.11046 305.000
21.13040 311.000
21.15035 293.000
21.17030 286.000
21.19025 265.000
21.21019 259.000
21.23014 287.000
21.25009 240.000
21.27003 261.000
21.28998 265.000
21.30993 240.000
21.32987 238.000
21.34982 288.000
21.36977 255.000
21.38972 236.000
21.40966 252.000
21.42961 275.000
21.44956 268.000
21.46950 240.000
21.48945 226.000
21.50940 241.000
21.52934 246.000
21.54929 227.000
21.56924 245.000
21.58918 234.000
21.60913 236.000
21.62908 249.000
21.64903 243.000
21.66897 226.000
21.68892 257.000
21.70887 255.000
21.72881 228.000
21.74876 240.000
21.76871 234.000
21.78865 248.000
21.80860 236.000
21.82855 207.000
21.84850 251.000
21.86844 235.000
21.88839 254.000
21.90834 219.000
21.92828 233.000
21.94823 247.000
21.96818 250.000
21.98812 237.000
22.00807 282.000
22.02802 259.000
22.04796 248.000
22.06791 278.000
22.08786 257.000
22.10781 237.000
22.12775 217.000
22.14770 247.000
22.16765 214.000
22.18759 238.000
22.20754 248.000
22.22749 235.000
22.24743 206.000
22.26738 244.000
22.28733 223.000
22.30728 232.000
22.32722 244.000
22.34717 266.000
22.36712 240.000
22.38706 248.000
22.40701 224.000
22.42696 231.000
22.44690 241.000
22.46685 274.000
22.48680 230.000
22.50675 229.000
22.52669 246.000
22.54664 230.000
22.56659 228.000
22.58653 223.000
22.60648 230.000
22.62643 256.000
22.64637 250.000
22.66632 265.000
22.68627 264.000
22.70621 248.000
22.72616 267.000
22.74611 237.000
22.76606 230.000
22.78600 274.000
22.80595 244.000
22.82590 263.000
22.84584 248.000
22.86579 257.000
22.88574 234.000
22.90568 239.000
22.92563 261.000
22.94558 228.000
22.96553 256.000
22.98547 231.000
23.00542 262.000
23.02537 268.000
23.04531 284.000
23.06526 254.000
23.08521 269.000
23.10515 234.000
23.12510 247.000
23.14505 268.000
23.16499 239.000
23.18494 250.000
23.20489 255.000
23.22484 244.000
23.24478 266.000
23.26473 261.000
23.28468 251.000
23.30462 259.000
23.32457 241.000
23.34452 273.000
23.36446 249.000
23.38441 263.000
23.40436 242.000
23.42431 255.000
23.44425 255.000
23.46420 254.000
23.48415 247.000
23.50409 239.000
23.52404 287.000
23.54399 236.000
23.56393 207.000
23.58388 249.000
23.60383 266.000
23.62377 277.000
23.64372 224.000
23.66367 230.000
23.68362 255.000
23.70356 237.000
23.72351 284.000
23.74346 265.000
23.76340 250.000
23.78335 254.000
23.80330 265.000
23.82324 300.000
23.84319 287.000
23.86314 248.000
23.88309 269.000
23.90303 262.000
23.92298 239.000
23.94293 222.000
23.96287 273.000
23.98282 259.000
24.00277 277.000
24.02271 247.000
24.04266 262.000
24.06261 245.000
24.08256 295.000
24.10250 238.000
24.12245 281.000
24.14240 245.000
24.16234 285.000
24.18229 279.000
24.20224 279.000
24.22218 266.000
24.24213 258.000
24.26208 276.000
24.28202 260.000
24.30197 288.000
24.32192 271.000
24.34187 275.000
24.36181 263.000
24.38176 252.000
24.40171 252.000
24.42165 255.000
24.44160 290.000
24.46155 270.000
24.48149 249.000
24.50144 270.000
24.52139 255.000
24.54134 264.000
24.56128 236.000
24.58123 268.000
24.60118 261.000
24.62112 277.000
24.64107 287.000
24.66102 228.000
24.68096 284.000
24.70091 267.000
24.72086 239.000
24.74080 286.000
24.76075 271.000
24.78070 258.000
24.80065 252.000
24.82059 253.000
24.84054 257.000
24.86049 257.000
24.88043 263.000
24.90038 275.000
24.92033 256.000
24.94027 268.000
24.96022 260.000
24.98017 261.000
25.00012 301.000
25.02006 295.000
25.04001 287.000
25.05996 282.000
25.07990 299.000
25.09985 302.000
25.11980 261.000
25.13974 265.000
25.15969 245.000
25.17964 262.000
25.19958 276.000
25.21953 264.000
25.23948 273.000
25.25943 244.000
25.27937 261.000
25.29932 295.000
25.31927 260.000
25.33921 274.000
25.35916 266.000
25.37911 252.000
25.39905 254.000
25.41900 244.000
25.43895 235.000
25.45890 273.000
25.47884 308.000
25.49879 262.000
25.51874 296.000
25.53868 277.000
25.55863 261.000
25.57858 305.000
25.59852 264.000
25.61847 263.000
25.63842 264.000
25.65837 272.000
25.67831 277.000
25.69826 282.000
25.71821 231.000
25.73815 241.000
25.75810 286.000
25.77805 275.000
25.79799 287.000
25.81794 268.000
25.83789 264.000
25.85783 275.000
25.87778 289.000
25.89773 293.000
25.91768 314.000
25.93762 268.000
25.95757 289.000
25.97752 264.000
25.99746 290.000
26.01741 295.000
26.03736 297.000
26.05730 302.000
26.07725 266.000
26.09720 278.000
26.11715 292.000
26.13709 297.000
26.15704 290.000
26.17699 280.000
26.19693 263.000
26.21688 273.000
26.23683 290.000
26.25677 277.000
26.27672 292.000
26.29667 286.000
26.31661 268.000
26.33656 285.000
26.35651 267.000
26.37646 267.000
26.39640 289.000
26.41635 294.000
26.43630 264.000
26.45624 298.000
26.47619 261.000
26.49614 293.000
26.51608 255.000
26.53603 297.000
26.55598 257.000
26.57593 298.000
26.59587 290.000
26.61582 271.000
26.63577 304.000
26.65571 302.000
26.67566 292.000
26.69561 278.000
26.71555 276.000
26.73550 263.000
26.75545 293.000
26.77539 300.000
26.79534 300.000
26.81529 279.000
26.83524 287.000
26.85518 262.000
26.87513 316.000
26.89508 289.000
26.91502 279.000
26.93497 269.000
26.95492 286.000
26.97486 311.000
26.99481 266.000
27.01476 317.000
27.03471 300.000
27.05465 310.000
27.07460 292.000
27.09455 300.000
27.11449 315.000
27.13444 328.000
27.15439 302.000
27.17433 295.000
27.19428 299.000
27.21423 278.000
27.23417 273.000
27.25412 314.000
27.27407 290.000
27.29402 296.000
27.31396 307.000
27.33391 260.000
27.35386 307.000
27.37380 310.000
27.39375 289.000
27.41370 298.000
27.43364 300.000
27.45359 300.000
27.47354 305.000
27.49349 304.000
27.51343 303.000
27.53338 290.000
27.55333 293.000
27.57327 307.000
27.59322 285.000
27.61317 275.000
27.63311 321.000
27.65306 325.000
27.67301 265.000
27.69296 308.000
27.71290 313.000
27.73285 296.000
27.75280 290.000
27.77274 280.000
27.79269 298.000
27.81264 310.000
27.83258 304.000
27.85253 314.000
27.87248 262.000
27.89242 325.000
27.91237 307.000
27.93232 304.000
27.95227 276.000
27.97221 314.000
27.99216 308.000
28.01211 298.000
28.03205 286.000
28.05200 297.000
28.07195 295.000
28.09189 304.000
28.11184 319.000
28.13179 300.000
28.15174 295.000
28.17168 269.000
28.19163 275.000
28.21158 294.000
28.23152 273.000
28.25147 319.000
28.27142 244.000
28.29136 317.000
28.31131 303.000
28.33126 305.000
28.35120 263.000
28.37115 301.000
28.39110 277.000
28.41105 300.000
28.43099 292.000
28.45094 301.000
28.47089 306.000
28.49083 305.000
28.51078 296.000
28.53073 302.000
28.55067 335.000
28.57062 277.000
28.59057 330.000
28.61052 276.000
28.63046 341.000
28.65041 284.000
28.67036 311.000
28.69030 297.000
28.71025 323.000
28.73020 297.000
28.75014 286.000
28.77009 325.000
28.79004 323.000
28.80998 297.000
28.82993 310.000
28.84988 306.000
28.86983 293.000
28.88977 286.000
28.90972 339.000
28.92967 317.000
28.94961 311.000
28.96956 320.000
28.98951 311.000
29.00945 304.000
29.02940 318.000
29.04935 320.000
29.06930 307.000
29.08924 312.000
29.10919 298.000
29.12914 302.000
29.14908 316.000
29.16903 299.000
29.18898 364.000
29.20892 340.000
29.22887 313.000
29.24882 281.000
29.26877 319.000
29.28871 313.000
29.30866 362.000
29.32861 336.000
29.34855 352.000
29.36850 379.000
29.38845 352.000
29.40839 361.000
29.42834 376.000
29.44829 376.000
29.46823 383.000
29.48818 407.000
29.50813 366.000
29.52808 369.000
29.54802 393.000
29.56797 348.000
29.58792 364.000
29.60786 369.000
29.62781 347.000
29.64776 366.000
29.66770 328.000
29.68765 351.000
29.70760 380.000
29.72755 365.000
29.74749 333.000
29.76744 326.000
29.78739 341.000
29.80733 318.000
29.82728 325.000
29.84723 306.000
29.86717 305.000
29.88712 336.000
29.90707 372.000
29.92701 336.000
29.94696 354.000
29.96691 350.000
29.98686 362.000
30.00680 316.000
30.02675 355.000
30.04670 316.000
30.06664 331.000
30.08659 356.000
30.10654 344.000
30.12648 341.000
30.14643 350.000
30.16638 354.000
30.18633 415.000
30.20627 413.000
30.22622 413.000
30.24617 483.000
30.26611 561.000
30.28606 744.000
30.30601 917.000
30.32595 979.000
30.34590 743.000
30.36585 702.000
30.38579 685.000
30.40574 652.000
30.42569 550.000
30.44564 445.000
30.46558 389.000
30.48553 362.000
30.50548 328.000
30.52542 313.000
30.54537 356.000
30.56532 318.000
30.58526 316.000
30.60521 312.000
30.62516 303.000
30.64511 334.000
30.66505 314.000
30.68500 336.000
30.70495 307.000
30.72489 322.000
30.74484 336.000
30.76479 309.000
30.78473 315.000
30.80468 306.000
30.82463 324.000
30.84458 331.000
30.86452 318.000
30.88447 307.000
30.90442 296.000
30.92436 313.000
30.94431 314.000
30.96426 327.000
30.98420 315.000
31.00415 307.000
31.02410 328.000
31.04404 321.000
31.06399 294.000
31.08394 312.000
31.10389 322.000
31.12383 335.000
31.14378 351.000
31.16373 335.000
31.18367 327.000
31.20362 318.000
31.22357 335.000
31.24351 304.000
31.26346 312.000
31.28341 304.000
31.30336 319.000
31.32330 310.000
31.34325 330.000
31.36320 323.000
31.38314 290.000
31.40309 309.000
31.42304 334.000
31.44298 303.000
31.46293 332.000
31.48288 302.000
31.50282 327.000
31.52277 326.000
31.54272 340.000
31.56267 322.000
31.58261 328.000
31.60256 361.000
31.62251 362.000
31.64245 332.000
31.66240 334.000
31.68235 342.000
31.70229 312.000
31.72224 359.000
31.74219 331.000
31.76214 303.000
31.78208 315.000
31.80203 305.000
31.82198 321.000
31.84192 317.000
31.86187 303.000
31.88182 289.000
31.90176 332.000
31.92171 320.000
31.94166 311.000
31.96160 310.000
31.98155 318.000
32.00150 309.000
32.02145 339.000
32.04139 334.000
32.06134 328.000
32.08129 324.000
32.10123 318.000
32.12118 298.000
32.14113 345.000
32.16107 346.000
32.18102 317.000
32.20097 326.000
32.22092 309.000
32.24086 302.000
32.26081 341.000
32.28076 340.000
32.30070 340.000
32.32065 343.000
32.34060 336.000
32.36054 310.000
32.38049 348.000
32.40044 332.000
32.42039 335.000
32.44033 381.000
32.46028 362.000
32.48023 381.000
32.50017 398.000
32.52012 395.000
32.54007 388.000
32.56001 386.000
32.57996 393.000
32.59991 383.000
32.61985 364.000
32.63980 395.000
32.65975 359.000
32.67970 325.000
32.69964 345.000
32.71959 326.000
32.73954 309.000
32.75948 342.000
32.77943 319.000
32.79938 323.000
32.81932 328.000
32.83927 321.000
32.85922 340.000
32.87917 344.000
32.89911 331.000
32.91906 329.000
32.93901 342.000
32.95895 288.000
32.97890 316.000
32.99885 289.000
33.01879 331.000
33.03874 280.000
33.05869 328.000
33.07863 339.000
33.09858 323.000
33.11853 315.000
33.13848 337.000
33.15842 310.000
33.17837 334.000
33.19832 326.000
33.21826 328.000
33.23821 352.000
33.25816 309.000
33.27810 341.000
33.29805 328.000
33.31800 340.000
33.33795 343.000
33.35789 356.000
33.37784 336.000
33.39779 347.000
33.41773 354.000
33.43768 362.000
33.45763 379.000
33.47757 312.000
33.49752 332.000
33.51747 355.000
33.53741 348.000
33.55736 358.000
33.57731 351.000
33.59726 341.000
33.61720 342.000
33.63715 356.000
33.65710 346.000
33.67704 359.000
33.69699 343.000
33.71694 358.000
33.73688 396.000
33.75683 356.000
33.77678 339.000
33.79673 361.000
33.81667 334.000
33.83662 370.000
33.85657 360.000
33.87651 384.000
33.89646 384.000
33.91641 405.000
33.93635 426.000
33.95630 378.000
33.97625 429.000
33.99620 460.000
34.01614 420.000
34.03609 411.000
34.05604 464.000
34.07598 464.000
34.09593 436.000
34.11588 468.000
34.13582 455.000
34.15577 491.000
34.17572 514.000
34.19566 500.000
34.21561 487.000
34.23556 571.000
34.25551 566.000
34.27545 537.000
34.29540 634.000
34.31535 657.000
34.33529 706.000
34.35524 741.000
34.37519 763.000
34.39513 740.000
34.41508 771.000
34.43503 746.000
34.45498 758.000
34.47492 788.000
34.49487 731.000
34.51482 765.000
34.53476 697.000
34.55471 742.000
34.57466 665.000
34.59460 652.000
34.61455 614.000
34.63450 592.000
34.65444 557.000
34.67439 563.000
34.69434 531.000
34.71429 534.000
34.73423 537.000
34.75418 515.000
34.77413 495.000
34.79407 465.000
34.81402 474.000
34.83397 423.000
34.85391 433.000
34.87386 461.000
34.89381 474.000
34.91376 431.000
34.93370 446.000
34.95365 439.000
34.97360 411.000
34.99354 446.000
35.01349 434.000
35.03344 440.000
35.05338 459.000
35.07333 477.000
35.09328 440.000
35.11322 454.000
35.13317 431.000
35.15312 456.000
35.17307 495.000
35.19301 463.000
35.21296 520.000
35.23291 488.000
35.25285 535.000
35.27280 503.000
35.29275 523.000
35.31269 538.000
35.33264 580.000
35.35259 582.000
35.37254 600.000
35.39248 673.000
35.41243 761.000
35.43238 864.000
35.45232 926.000
35.47227 1069.000
35.49222 1117.000
35.51216 1243.000
35.53211 1407.000
35.55206 1464.000
35.57201 1498.000
35.59195 1543.000
35.61190 1542.000
35.63185 1662.000
35.65179 1984.000
35.67174 2364.000
35.69169 2718.000
35.71163 2858.000
35.73158 2402.000
35.75153 1903.000
35.77147 1659.000
35.79142 1706.000
35.81137 1509.000
35.83132 1164.000
35.85126 967.000
35.87121 745.000
35.89116 643.000
35.91110 601.000
35.93105 516.000
35.95100 613.000
35.97094 518.000
35.99089 512.000
36.01084 461.000
36.03079 461.000
36.05073 487.000
36.07068 512.000
36.09063 459.000
36.11057 458.000
36.13052 431.000
36.15047 449.000
36.17041 393.000
36.19036 454.000
36.21031 449.000
36.23025 446.000
36.25020 449.000
36.27015 462.000
36.29010 473.000
36.31004 467.000
36.32999 476.000
36.34994 509.000
36.36988 444.000
36.38983 453.000
36.40978 471.000
36.42972 487.000
36.44967 477.000
36.46962 478.000
36.48957 475.000
36.50951 490.000
36.52946 428.000
36.54941 462.000
36.56935 483.000
36.58930 476.000
36.60925 512.000
36.62919 499.000
36.64914 487.000
36.66909 535.000
36.68903 451.000
36.70898 467.000
36.72893 523.000
36.74888 549.000
36.76882 557.000
36.78877 496.000
36.80872 552.000
36.82866 547.000
36.84861 534.000
36.86856 521.000
36.88850 558.000
36.90845 601.000
36.92840 649.000
36.94835 621.000
36.96829 663.000
36.98824 658.000
37.00819 739.000
37.02813 735.000
37.04808 697.000
37.06803 828.000
37.08797 870.000
37.10792 836.000
37.12787 884.000
37.14781 878.000
37.16776 863.000
37.18771 936.000
37.20766 804.000
37.22760 760.000
37.24755 701.000
37.26750 677.000
37.28744 623.000
37.30739 606.000
37.32734 567.000
37.34728 555.000
37.36723 555.000
37.38718 492.000
37.40713 456.000
37.42707 435.000
37.44702 440.000
37.46697 437.000
37.48691 376.000
37.50686 370.000
37.52681 352.000
37.54675 360.000
37.56670 368.000
37.58665 361.000
37.60660 351.000
37.62654 338.000
37.64649 329.000
37.66644 358.000
37.68638 323.000
37.70633 326.000
37.72628 336.000
37.74622 336.000
37.76617 329.000
37.78612 331.000
37.80606 349.000
37.82601 331.000
37.84596 312.000
37.86591 331.000
37.88585 337.000
37.90580 351.000
37.92575 354.000
37.94569 370.000
37.96564 369.000
37.98559 371.000
38.00553 380.000
38.02548 379.000
38.04543 341.000
38.06538 361.000
38.08532 372.000
38.10527 360.000
38.12522 359.000
38.14516 342.000
38.16511 344.000
38.18506 374.000
38.20500 375.000
38.22495 382.000
38.24490 350.000
38.26484 398.000
38.28479 395.000
38.30474 409.000
38.32469 409.000
38.34463 409.000
38.36458 453.000
38.38453 434.000
38.40447 403.000
38.42442 413.000
38.44437 445.000
38.46431 443.000
38.48426 450.000
38.50421 469.000
38.52416 509.000
38.54410 550.000
38.56405 582.000
38.58400 676.000
38.60394 766.000
38.62389 831.000
38.64384 1001.000
38.66378 1082.000
38.68373 1137.000
38.70368 1117.000
38.72362 1085.000
38.74357 1119.000
38.76352 1033.000
38.78347 950.000
38.80341 883.000
38.82336 787.000
38.84331 766.000
38.86325 716.000
38.88320 625.000
38.90315 590.000
38.92309 623.000
38.94304 581.000
38.96299 607.000
38.98294 565.000
39.00288 533.000
39.02283 520.000
39.04278 580.000
39.06272 558.000
39.08267 581.000
39.10262 514.000
39.12256 534.000
39.14251 486.000
39.16246 482.000
39.18241 417.000
39.20235 438.000
39.22230 471.000
39.24225 464.000
39.26219 410.000
39.28214 420.000
39.30209 354.000
39.32203 407.000
39.34198 376.000
39.36193 383.000
39.38187 376.000
39.40182 375.000
39.42177 376.000
39.44172 340.000
39.46166 323.000
39.48161 358.000
39.50156 323.000
39.52150 354.000
39.54145 365.000
39.56140 340.000
39.58134 295.000
39.60129 330.000
39.62124 334.000
39.64119 323.000
39.66113 326.000
39.68108 332.000
39.70103 329.000
39.72097 346.000
39.74092 337.000
39.76087 323.000
39.78081 296.000
39.80076 370.000
39.82071 324.000
39.84065 308.000
39.86060 328.000
39.88055 331.000
39.90050 324.000
39.92044 319.000
39.94039 305.000
39.96034 321.000
39.98028 303.000
40.00023 352.000
40.02018 342.000
40.04012 275.000
40.06007 336.000
40.08002 316.000
40.09997 327.000
40.11991 361.000
40.13986 363.000
40.15981 327.000
40.17975 310.000
40.19970 316.000
40.21965 304.000
40.23959 342.000
40.25954 327.000
40.27949 308.000
40.29943 308.000
40.31938 320.000
40.33933 313.000
40.35928 348.000
40.37922 336.000
40.39917 335.000
40.41912 351.000
40.43906 308.000
40.45901 294.000
40.47896 326.000
40.49890 313.000
40.51885 324.000
40.53880 347.000
40.55875 303.000
40.57869 336.000
40.59864 348.000
40.61859 304.000
40.63853 319.000
40.65848 334.000
40.67843 352.000
40.69837 311.000
40.71832 327.000
40.73827 324.000
40.75822 329.000
40.77816 336.000
40.79811 340.000
40.81806 320.000
40.83800 350.000
40.85795 367.000
40.87790 366.000
40.89784 320.000
40.91779 330.000
40.93774 330.000
40.95768 329.000
40.97763 376.000
40.99758 330.000
41.01753 349.000
41.03747 340.000
41.05742 322.000
41.07737 348.000
41.09731 393.000
41.11726 341.000
41.13721 348.000
41.15715 332.000
41.17710 358.000
41.19705 378.000
41.21700 358.000
41.23694 375.000
41.25689 334.000
41.27684 379.000
41.29678 347.000
41.31673 355.000
41.33668 374.000
41.35662 360.000
41.37657 397.000
41.39652 399.000
41.41646 346.000
41.43641 373.000
41.45636 371.000
41.47631 392.000
41.49625 384.000
41.51620 403.000
41.53615 354.000
41.55609 396.000
41.57604 402.000
41.59599 384.000
41.61593 426.000
41.63588 410.000
41.65583 394.000
41.67578 453.000
41.69572 436.000
41.71567 490.000
41.73562 469.000
41.75556 463.000
41.77551 477.000
41.79546 458.000
41.81540 457.000
41.83535 454.000
41.85530 504.000
41.87524 444.000
41.89519 465.000
41.91514 414.000
41.93509 434.000
41.95503 476.000
41.97498 411.000
41.99493 392.000
42.01487 436.000
42.03482 403.000
42.05477 445.000
42.07471 426.000
42.09466 429.000
42.11461 424.000
42.13456 386.000
42.15450 423.000
42.17445 434.000
42.19440 397.000
42.21434 424.000
42.23429 381.000
42.25424 443.000
42.27418 418.000
42.29413 411.000
42.31408 444.000
42.33403 429.000
42.35397 406.000
42.37392 435.000
42.39387 444.000
42.41381 388.000
42.43376 388.000
42.45371 430.000
42.47365 416.000
42.49360 450.000
42.51355 432.000
42.53349 466.000
42.55344 444.000
42.57339 472.000
42.59334 453.000
42.61328 519.000
42.63323 479.000
42.65318 478.000
42.67312 468.000
42.69307 457.000
42.71302 549.000
42.73296 529.000
42.75291 540.000
42.77286 564.000
42.79281 581.000
42.81275 565.000
42.83270 590.000
42.85265 576.000
42.87259 597.000
42.89254 622.000
42.91249 611.000
42.93243 680.000
42.95238 660.000
42.97233 705.000
42.99227 739.000
43.01222 727.000
43.03217 762.000
43.05212 803.000
43.07206 839.000
43.09201 926.000
43.11196 872.000
43.13190 915.000
43.15185 951.000
43.17180 908.000
43.19174 974.000
43.21169 958.000
43.23164 951.000
43.25159 919.000
43.27153 910.000
43.29148 824.000
43.31143 835.000
43.33137 881.000
43.35132 849.000
43.37127 863.000
43.39121 837.000
43.41116 861.000
43.43111 764.000
43.45105 647.000
43.47100 645.000
43.49095 635.000
43.51090 552.000
43.53084 521.000
43.55079 496.000
43.57074 419.000
43.59068 415.000
43.61063 434.000
43.63058 393.000
43.65052 399.000
43.67047 333.000
43.69042 315.000
43.71037 342.000
43.73031 359.000
43.75026 364.000
43.77021 331.000
43.79015 363.000
43.81010 332.000
43.83005 313.000
43.84999 347.000
43.86994 319.000
43.88989 321.000
43.90984 319.000
43.92978 291.000
43.94973 334.000
43.96968 319.000
43.98962 320.000
44.00957 280.000
44.02952 301.000
44.04946 308.000
44.06941 315.000
44.08936 340.000
44.10930 328.000
44.12925 306.000
44.14920 297.000
44.16915 291.000
44.18909 334.000
44.20904 315.000
44.22899 303.000
44.24893 265.000
44.26888 306.000
44.28883 273.000
44.30877 275.000
44.32872 311.000
44.34867 300.000
44.36862 300.000
44.38856 311.000
44.40851 281.000
44.42846 313.000
44.44840 333.000
44.46835 336.000
44.48830 280.000
44.50824 324.000
44.52819 308.000
44.54814 276.000
44.56808 305.000
44.58803 306.000
44.60798 313.000
44.62793 309.000
44.64787 286.000
44.66782 296.000
44.68777 294.000
44.70771 297.000
44.72766 310.000
44.74761 278.000
44.76755 332.000
44.78750 308.000
44.80745 308.000
44.82740 287.000
44.84734 297.000
44.86729 280.000
44.88724 298.000
44.90718 306.000
44.92713 285.000
44.94708 288.000
44.96702 326.000
44.98697 308.000
45.00692 287.000
45.02686 280.000
45.04681 312.000
45.06676 329.000
45.08671 289.000
45.10665 293.000
45.12660 305.000
45.14655 285.000
45.16649 305.000
45.18644 281.000
45.20639 344.000
45.22633 310.000
45.24628 309.000
45.26623 309.000
45.28618 307.000
45.30612 285.000
45.32607 287.000
45.34602 305.000
45.36596 296.000
45.38591 268.000
45.40586 274.000
45.42580 256.000
45.44575 284.000
45.46570 273.000
45.48565 285.000
45.50559 308.000
45.52554 317.000
45.54549 309.000
45.56543 306.000
45.58538 283.000
45.60533 285.000
45.62527 307.000
45.64522 273.000
45.66517 314.000
45.68511 331.000
45.70506 302.000
45.72501 275.000
45.74496 300.000
45.76490 277.000
45.78485 290.000
45.80480 292.000
45.82474 318.000
45.84469 279.000
45.86464 306.000
45.88458 255.000
45.90453 293.000
45.92448 276.000
45.94443 268.000
45.96437 251.000
45.98432 273.000
46.00427 304.000
46.02421 300.000
46.04416 299.000
46.06411 293.000
46.08405 312.000
46.10400 309.000
46.12395 281.000
46.14389 259.000
46.16384 264.000
46.18379 311.000
46.20374 289.000
46.22368 320.000
46.24363 300.000
46.26358 322.000
46.28352 316.000
46.30347 325.000
46.32342 295.000
46.34336 287.000
46.36331 315.000
46.38326 301.000
46.40321 309.000
46.42315 282.000
46.44310 336.000
46.46305 298.000
46.48299 293.000
46.50294 284.000
46.52289 270.000
46.54283 277.000
46.56278 305.000
46.58273 299.000
46.60267 307.000
46.62262 299.000
46.64257 320.000
46.66252 269.000
46.68246 288.000
46.70241 305.000
46.72236 269.000
46.74230 280.000
46.76225 291.000
46.78220 276.000
46.80214 275.000
46.82209 277.000
46.84204 279.000
46.86199 262.000
46.88193 314.000
46.90188 288.000
46.92183 281.000
46.94177 284.000
46.96172 298.000
46.98167 331.000
47.00161 297.000
47.02156 261.000
47.04151 287.000
47.06146 281.000
47.08140 306.000
47.10135 293.000
47.12130 270.000
47.14124 282.000
47.16119 255.000
47.18114 243.000
47.20108 302.000
47.22103 282.000
47.24098 315.000
47.26092 293.000
47.28087 316.000
47.30082 263.000
47.32077 288.000
47.34071 305.000
47.36066 295.000
47.38061 279.000
47.40055 313.000
47.42050 335.000
47.44045 302.000
47.46039 303.000
47.48034 285.000
47.50029 273.000
47.52024 309.000
47.54018 290.000
47.56013 298.000
47.58008 283.000
47.60002 310.000
47.61997 324.000
47.63992 289.000
47.65986 292.000
47.67981 286.000
47.69976 312.000
47.71970 314.000
47.73965 294.000
47.75960 263.000
47.77955 299.000
47.79949 287.000
47.81944 300.000
47.83939 290.000
47.85933 297.000
47.87928 297.000
47.89923 295.000
47.91917 258.000
47.93912 295.000
47.95907 290.000
47.97902 297.000
47.99896 293.000
48.01891 305.000
48.03886 286.000
48.05880 266.000
48.07875 301.000
48.09870 297.000
48.11864 339.000
48.13859 312.000
48.15854 316.000
48.17848 322.000
48.19843 323.000
48.21838 297.000
48.23833 304.000
48.25827 323.000
48.27822 328.000
48.29817 331.000
48.31811 320.000
48.33806 321.000
48.35801 331.000
48.37795 315.000
48.39790 274.000
48.41785 326.000
48.43780 339.000
48.45774 331.000
48.47769 306.000
48.49764 317.000
48.51758 347.000
48.53753 315.000
48.55748 352.000
48.57742 346.000
48.59737 341.000
48.61732 315.000
48.63726 309.000
48.65721 314.000
48.67716 355.000
48.69711 376.000
48.71705 344.000
48.73700 362.000
48.75695 403.000
48.77689 397.000
48.79684 403.000
48.81679 422.000
48.83673 427.000
48.85668 456.000
48.87663 448.000
48.89658 433.000
48.91652 488.000
48.93647 510.000
48.95642 462.000
48.97636 457.000
48.99631 472.000
49.01626 475.000
49.03620 433.000
49.05615 420.000
49.07610 409.000
49.09605 420.000
49.11599 391.000
49.13594 367.000
49.15589 392.000
49.17583 311.000
49.19578 351.000
49.21573 321.000
49.23567 347.000
49.25562 333.000
49.27557 330.000
49.29551 295.000
49.31546 343.000
49.33541 348.000
49.35536 330.000
49.37530 302.000
49.39525 333.000
49.41520 297.000
49.43514 348.000
49.45509 333.000
49.47504 286.000
49.49498 300.000
49.51493 326.000
49.53488 324.000
49.55483 304.000
49.57477 276.000
49.59472 336.000
49.61467 341.000
49.63461 287.000
49.65456 298.000
49.67451 296.000
49.69445 331.000
49.71440 301.000
49.73435 297.000
49.75429 304.000
49.77424 296.000
49.79419 302.000
49.81414 308.000
49.83408 299.000
49.85403 274.000
49.87398 254.000
49.89392 276.000
49.91387 302.000
49.93382 257.000
49.95376 314.000
49.97371 297.000
49.99366 287.000
50.01361 278.000
50.03355 295.000
50.05350 265.000
50.07345 319.000
50.09339 285.000
50.11334 309.000
50.13329 287.000
50.15323 279.000
50.17318 283.000
50.19313 287.000
50.21307 288.000
50.23302 278.000
50.25297 288.000
50.27292 265.000
50.29286 302.000
50.31281 286.000
50.33276 290.000
50.35270 295.000
50.37265 261.000
50.39260 282.000
50.41254 287.000
50.43249 278.000
50.45244 262.000
50.47239 246.000
50.49233 273.000
50.51228 294.000
50.53223 250.000
50.55217 264.000
50.57212 283.000
50.59207 280.000
50.61201 284.000
50.63196 303.000
50.65191 281.000
50.67186 258.000
50.69180 282.000
50.71175 292.000
50.73170 255.000
50.75164 295.000
50.77159 268.000
50.79154 289.000
50.81148 255.000
50.83143 262.000
50.85138 284.000
50.87132 272.000
50.89127 273.000
50.91122 257.000
50.93117 299.000
50.95111 271.000
50.97106 278.000
50.99101 262.000
51.01095 291.000
51.03090 264.000
51.05085 255.000
51.07079 262.000
51.09074 297.000
51.11069 282.000
51.13064 290.000
51.15058 263.000
51.17053 273.000
51.19048 311.000
51.21042 297.000
51.23037 306.000
51.25032 313.000
51.27026 298.000
51.29021 311.000
51.31016 281.000
51.33010 266.000
51.35005 268.000
51.37000 298.000
51.38995 254.000
51.40989 264.000
51.42984 271.000
51.44979 304.000
51.46973 311.000
51.48968 259.000
51.50963 256.000
51.52957 282.000
51.54952 295.000
51.56947 275.000
51.58942 275.000
51.60936 290.000
51.62931 294.000
51.64926 253.000
51.66920 256.000
51.68915 289.000
51.70910 277.000
51.72904 259.000
51.74899 284.000
51.76894 271.000
51.78888 263.000
51.80883 264.000
51.82878 254.000
51.84873 299.000
51.86867 263.000
51.88862 272.000
51.90857 287.000
51.92851 258.000
51.94846 305.000
51.96841 265.000
51.98835 266.000
52.00830 288.000
52.02825 286.000
52.04820 272.000
52.06814 267.000
52.08809 316.000
52.10804 269.000
52.12798 275.000
52.14793 316.000
52.16788 271.000
52.18782 284.000
52.20777 281.000
52.22772 264.000
52.24767 261.000
52.26761 298.000
52.28756 275.000
52.30751 272.000
52.32745 285.000
52.34740 264.000
52.36735 252.000
52.38729 269.000
52.40724 307.000
52.42719 269.000
52.44713 257.000
52.46708 264.000
52.48703 273.000
52.50698 277.000
52.52692 265.000
52.54687 283.000
52.56682 306.000
52.58676 291.000
52.60671 273.000
52.62666 273.000
52.64660 291.000
52.66655 253.000
52.68650 257.000
52.70645 301.000
52.72639 324.000
52.74634 263.000
52.76629 314.000
52.78623 248.000
52.80618 271.000
52.82613 291.000
52.84607 280.000
52.86602 280.000
52.88597 280.000
52.90591 257.000
52.92586 288.000
52.94581 318.000
52.96576 306.000
52.98570 279.000
53.00565 304.000
53.02560 295.000
53.04554 284.000
53.06549 312.000
53.08544 277.000
53.10538 341.000
53.12533 324.000
53.14528 322.000
53.16523 290.000
53.18517 317.000
53.20512 326.000
53.22507 326.000
53.24501 327.000
53.26496 288.000
53.28491 325.000
53.30485 335.000
53.32480 347.000
53.34475 306.000
53.36469 309.000
53.38464 315.000
53.40459 321.000
53.42454 293.000
53.44448 321.000
53.46443 310.000
53.48438 356.000
53.50432 331.000
53.52427 322.000
53.54422 277.000
53.56416 303.000
53.58411 321.000
53.60406 339.000
53.62401 335.000
53.64395 324.000
53.66390 299.000
53.68385 295.000
53.70379 333.000
53.72374 345.000
53.74369 385.000
53.76363 357.000
53.78358 423.000
53.80353 455.000
53.82348 436.000
53.84342 461.000
53.86337 393.000
53.88332 380.000
53.90326 344.000
53.92321 378.000
53.94316 346.000
53.96310 349.000
53.98305 376.000
54.00300 335.000
54.02294 320.000
54.04289 352.000
54.06284 295.000
54.08279 298.000
54.10273 299.000
54.12268 290.000
54.14263 296.000
54.16257 307.000
54.18252 281.000
54.20247 305.000
54.22241 296.000
54.24236 281.000
54.26231 286.000
54.28226 307.000
54.30220 270.000
54.32215 291.000
54.34210 292.000
54.36204 300.000
54.38199 267.000
54.40194 281.000
54.42188 309.000
54.44183 271.000
54.46178 270.000
54.48172 290.000
54.50167 243.000
54.52162 287.000
54.54157 297.000
54.56151 273.000
54.58146 278.000
54.60141 284.000
54.62135 270.000
54.64130 284.000
54.66125 300.000
54.68119 253.000
54.70114 286.000
54.72109 281.000
54.74104 277.000
54.76098 294.000
54.78093 246.000
54.80088 292.000
54.82082 298.000
54.84077 323.000
54.86072 269.000
54.88066 263.000
54.90061 295.000
54.92056 286.000
54.94050 268.000
54.96045 294.000
54.98040 274.000
55.00035 257.000
55.02029 269.000
55.04024 266.000
55.06019 283.000
55.08013 274.000
55.10008 286.000
55.12003 261.000
55.13997 279.000
55.15992 292.000
55.17987 276.000
55.19982 299.000
55.21976 272.000
55.23971 298.000
55.25966 280.000
55.27960 294.000
55.29955 301.000
55.31950 263.000
55.33944 294.000
55.35939 281.000
55.37934 264.000
55.39929 283.000
55.41923 243.000
55.43918 275.000
55.45913 277.000
55.47907 281.000
55.49902 241.000
55.51897 249.000
55.53891 272.000
55.55886 284.000
55.57881 271.000
55.59875 324.000
55.61870 280.000
55.63865 307.000
55.65860 257.000
55.67854 291.000
55.69849 285.000
55.71844 235.000
55.73838 310.000
55.75833 302.000
55.77828 298.000
55.79822 271.000
55.81817 242.000
55.83812 287.000
55.85807 301.000
55.87801 275.000
55.89796 260.000
55.91791 252.000
55.93785 287.000
55.95780 270.000
55.97775 273.000
55.99769 258.000
56.01764 298.000
56.03759 261.000
56.05753 279.000
56.07748 289.000
56.09743 262.000
56.11738 293.000
56.13732 315.000
56.15727 254.000
56.17722 280.000
56.19716 285.000
56.21711 267.000
56.23706 287.000
56.25700 288.000
56.27695 282.000
56.29690 283.000
56.31685 294.000
56.33679 309.000
56.35674 269.000
56.37669 302.000
56.39663 299.000
56.41658 303.000
56.43653 244.000
56.45647 273.000
56.47642 278.000
56.49637 263.000
56.51631 292.000
56.53626 284.000
56.55621 283.000
56.57616 266.000
56.59610 311.000
56.61605 282.000
56.63600 289.000
56.65594 296.000
56.67589 296.000
56.69584 288.000
56.71578 284.000
56.73573 329.000
56.75568 303.000
56.77563 272.000
56.79557 331.000
56.81552 314.000
56.83547 277.000
56.85541 294.000
56.87536 316.000
56.89531 286.000
56.91525 299.000
56.93520 319.000
56.95515 291.000
56.97510 282.000
56.99504 314.000
57.01499 326.000
57.03494 308.000
57.05488 313.000
57.07483 301.000
57.09478 320.000
57.11472 342.000
57.13467 315.000
57.15462 315.000
57.17456 344.000
57.19451 340.000
57.21446 348.000
57.23441 406.000
57.25435 398.000
57.27430 418.000
57.29425 464.000
57.31419 521.000
57.33414 651.000
57.35409 683.000
57.37403 687.000
57.39398 694.000
57.41393 609.000
57.43388 553.000
57.45382 523.000
57.47377 511.000
57.49372 518.000
57.51366 516.000
57.53361 513.000
57.55356 465.000
57.57350 435.000
57.59345 409.000
57.61340 357.000
57.63334 349.000
57.65329 332.000
57.67324 303.000
57.69319 339.000
57.71313 324.000
57.73308 311.000
57.75303 323.000
57.77297 291.000
57.79292 289.000
57.81287 321.000
57.83281 295.000
57.85276 320.000
57.87271 339.000
57.89266 308.000
57.91260 273.000
57.93255 283.000
57.95250 289.000
57.97244 306.000
57.99239 299.000
58.01234 273.000
58.03228 318.000
58.05223 332.000
58.07218 301.000
58.09212 304.000
58.11207 336.000
58.13202 308.000
58.15197 339.000
58.17191 379.000
58.19186 326.000
58.21181 350.000
58.23175 370.000
58.25170 356.000
58.27165 393.000
58.29159 411.000
58.31154 364.000
58.33149 365.000
58.35144 382.000
58.37138 381.000
58.39133 380.000
58.41128 354.000
58.43122 334.000
58.45117 347.000
58.47112 342.000
58.49106 304.000
58.51101 355.000
58.53096 354.000
58.55090 341.000
58.57085 308.000
58.59080 316.000
58.61075 336.000
58.63069 305.000
58.65064 316.000
58.67059 313.000
58.69053 292.000
58.71048 297.000
58.73043 306.000
58.75037 315.000
58.77032 325.000
58.79027 281.000
58.81022 286.000
58.83016 282.000
58.85011 320.000
58.87006 280.000
58.89000 303.000
58.90995 277.000
58.92990 287.000
58.94984 307.000
58.96979 270.000
58.98974 280.000
59.00969 244.000
59.02963 269.000
59.04958 303.000
59.06953 300.000
59.08947 321.000
59.10942 285.000
59.12937 298.000
59.14931 284.000
59.16926 260.000
59.18921 306.000
59.20915 325.000
59.22910 322.000
59.24905 305.000
59.26900 288.000
59.28894 311.000
59.30889 327.000
59.32884 303.000
59.34878 273.000
59.36873 292.000
59.38868 307.000
59.40862 319.000
59.42857 306.000
59.44852 317.000
59.46847 344.000
59.48841 299.000
59.50836 311.000
59.52831 297.000
59.54825 291.000
59.56820 282.000
59.58815 351.000
59.60809 298.000
59.62804 305.000
59.64799 292.000
59.66793 315.000
59.68788 327.000
59.70783 299.000
59.72778 302.000
59.74772 295.000
59.76767 290.000
59.78762 301.000
59.80756 320.000
59.82751 288.000
59.84746 297.000
59.86740 293.000
59.88735 330.000
59.90730 328.000
59.92725 313.000
59.94719 287.000
59.96714 291.000
59.98709 318.000
60.00703 277.000
60.02698 303.000
60.04693 286.000
60.06687 289.000
60.08682 290.000
60.10677 279.000
60.12671 273.000
60.14666 273.000
60.16661 312.000
60.18656 302.000
60.20650 280.000
60.22645 298.000
60.24640 302.000
60.26634 327.000
60.28629 313.000
60.30624 316.000
60.32618 313.000
60.34613 292.000
60.36608 291.000
60.38603 300.000
60.40597 293.000
60.42592 310.000
60.44587 321.000
60.46581 292.000
60.48576 299.000
60.50571 313.000
60.52565 281.000
60.54560 281.000
60.56555 298.000
60.58550 320.000
60.60544 315.000
60.62539 304.000
60.64534 298.000
60.66528 275.000
60.68523 323.000
60.70518 287.000
60.72512 312.000
60.74507 311.000
60.76502 334.000
60.78496 321.000
60.80491 322.000
60.82486 307.000
60.84481 311.000
60.86475 305.000
60.88470 319.000
60.90465 310.000
60.92459 331.000
60.94454 333.000
60.96449 320.000
60.98443 281.000
61.00438 358.000
61.02433 372.000
61.04428 309.000
61.06422 339.000
61.08417 302.000
61.10412 368.000
61.12406 364.000
61.14401 356.000
61.16396 356.000
61.18390 361.000
61.20385 373.000
61.22380 352.000
61.24374 357.000
61.26369 364.000
61.28364 357.000
61.30359 403.000
61.32353 377.000
61.34348 384.000
61.36343 383.000
61.38337 406.000
61.40332 424.000
61.42327 469.000
61.44321 478.000
61.46316 459.000
61.48311 494.000
61.50306 524.000
61.52300 528.000
61.54295 519.000
61.56290 534.000
61.58284 536.000
61.60279 570.000
61.62274 545.000
61.64268 491.000
61.66263 507.000
61.68258 525.000
61.70252 467.000
61.72247 516.000
61.74242 510.000
61.76237 504.000
61.78231 487.000
61.80226 515.000
61.82221 433.000
61.84215 480.000
61.86210 448.000
61.88205 444.000
61.90199 414.000
61.92194 421.000
61.94189 411.000
61.96184 424.000
61.98178 456.000
62.00173 459.000
62.02168 422.000
62.04162 412.000
62.06157 422.000
62.08152 459.000
62.10146 415.000
62.12141 403.000
62.14136 435.000
62.16131 426.000
62.18125 444.000
62.20120 444.000
62.22115 440.000
62.24109 441.000
62.26104 495.000
62.28099 443.000
62.30093 469.000
62.32088 445.000
62.34083 449.000
62.36077 495.000
62.38072 493.000
62.40067 517.000
62.42062 496.000
62.44056 505.000
62.46051 532.000
62.48046 537.000
62.50040 576.000
62.52035 520.000
62.54030 552.000
62.56024 597.000
62.58019 564.000
62.60014 601.000
62.62009 616.000
62.64003 607.000
62.65998 626.000
62.67993 594.000
62.69987 596.000
62.71982 621.000
62.73977 607.000
62.75971 594.000
62.77966 587.000
62.79961 600.000
62.81955 539.000
62.83950 555.000
62.85945 549.000
62.87940 558.000
62.89934 569.000
62.91929 670.000
62.93924 722.000
62.95918 813.000
62.97913 845.000
62.99908 909.000
63.01902 810.000
63.03897 801.000
63.05892 637.000
63.07887 607.000
63.09881 587.000
63.11876 591.000
63.13871 598.000
63.15865 617.000
63.17860 682.000
63.19855 574.000
63.21849 501.000
63.23844 457.000
63.25839 425.000
63.27833 375.000
63.29828 381.000
63.31823 380.000
63.33818 339.000
63.35812 303.000
63.37807 328.000
63.39802 289.000
63.41796 310.000
63.43791 319.000
63.45786 284.000
63.47780 314.000
63.49775 315.000
63.51770 332.000
63.53765 323.000
63.55759 279.000
63.57754 302.000
63.59749 297.000
63.61743 287.000
63.63738 305.000
63.65733 271.000
63.67727 273.000
63.69722 315.000
63.71717 287.000
63.73712 325.000
63.75706 263.000
63.77701 279.000
63.79696 298.000
63.81690 287.000
63.83685 278.000
63.85680 304.000
63.87674 303.000
63.89669 288.000
63.91664 295.000
63.93658 273.000
63.95653 292.000
63.97648 314.000
63.99643 304.000
64.01637 290.000
64.03632 292.000
64.05627 298.000
64.07621 305.000
64.09616 271.000
64.11611 291.000
64.13605 298.000
64.15600 307.000
64.17595 271.000
64.19590 304.000
64.21584 230.000
64.23579 293.000
64.25574 298.000
64.27568 292.000
64.29563 290.000
64.31558 257.000
64.33552 298.000
64.35547 320.000
64.37542 276.000
64.39536 275.000
64.41531 303.000
64.43526 291.000
64.45521 295.000
64.47515 291.000
64.49510 308.000
64.51505 291.000
64.53499 279.000
64.55494 281.000
64.57489 323.000
64.59483 277.000
64.61478 276.000
64.63473 297.000
64.65468 288.000
64.67462 291.000
64.69457 284.000
64.71452 289.000
64.73446 292.000
64.75441 270.000
64.77436 281.000
64.79430 282.000
64.81425 268.000
64.83420 277.000
64.85414 286.000
64.87409 279.000
64.89404 294.000
64.91399 298.000
64.93393 305.000
64.95388 287.000
64.97383 298.000
64.99377 304.000
65.01372 284.000
65.03367 313.000
65.05361 293.000
65.07356 292.000
65.09351 273.000
65.11346 318.000
65.13340 288.000
65.15335 293.000
65.17330 301.000
65.19324 296.000
65.21319 329.000
65.23314 298.000
65.25308 306.000
65.27303 304.000
65.29298 277.000
65.31293 301.000
65.33287 327.000
65.35282 298.000
65.37277 306.000
65.39271 307.000
65.41266 326.000
65.43261 327.000
65.45255 327.000
65.47250 336.000
65.49245 327.000
65.51239 339.000
65.53234 389.000
65.55229 335.000
65.57224 358.000
65.59218 387.000
65.61213 403.000
65.63208 370.000
65.65202 421.000
65.67197 388.000
65.69192 406.000
65.71186 380.000
65.73181 394.000
65.75176 378.000
65.77171 391.000
65.79165 366.000
65.81160 356.000
65.83155 383.000
65.85149 361.000
65.87144 369.000
65.89139 376.000
65.91133 393.000
65.93128 378.000
65.95123 346.000
65.97117 340.000
65.99112 327.000
66.01107 346.000
66.03102 337.000
66.05096 355.000
66.07091 345.000
66.09086 335.000
66.11080 341.000
66.13075 344.000
66.15070 334.000
66.17064 344.000
66.19059 354.000
66.21054 313.000
66.23049 379.000
66.25043 385.000
66.27038 334.000
66.29033 363.000
66.31027 373.000
66.33022 399.000
66.35017 389.000
66.37011 398.000
66.39006 424.000
66.41001 394.000
66.42995 409.000
66.44990 429.000
66.46985 387.000
66.48980 430.000
66.50974 368.000
66.52969 372.000
66.54964 397.000
66.56958 350.000
66.58953 327.000
66.60948 343.000
66.62942 373.000
66.64937 380.000
66.66932 367.000
66.68927 333.000
66.70921 376.000
66.72916 312.000
66.74911 320.000
66.76905 326.000
66.78900 290.000
66.80895 294.000
66.82889 294.000
66.84884 278.000
66.86879 281.000
66.88874 301.000
66.90868 279.000
66.92863 307.000
66.94858 315.000
66.96852 299.000
66.98847 292.000
67.00842 331.000
67.02836 281.000
67.04831 265.000
67.06826 276.000
67.08820 280.000
67.10815 280.000
67.12810 304.000
67.14805 304.000
67.16799 289.000
67.18794 254.000
67.20789 300.000
67.22783 272.000
67.24778 277.000
67.26773 292.000
67.28767 281.000
67.30762 310.000
67.32757 299.000
67.34752 291.000
67.36746 288.000
67.38741 296.000
67.40736 253.000
67.42730 270.000
67.44725 307.000
67.46720 310.000
67.48714 287.000
67.50709 322.000
67.52704 316.000
67.54698 310.000
67.56693 308.000
67.58688 290.000
67.60683 291.000
67.62677 281.000
67.64672 334.000
67.66667 336.000
67.68661 333.000
67.70656 324.000
67.72651 300.000
67.74645 321.000
67.76640 312.000
67.78635 350.000
67.80630 321.000
67.82624 311.000
67.84619 359.000
67.86614 349.000
67.88608 365.000
67.90603 353.000
67.92598 342.000
67.94592 359.000
67.96587 348.000
67.98582 424.000
68.00576 378.000
68.02571 374.000
68.04566 341.000
68.06561 372.000
68.08555 344.000
68.10550 347.000
68.12545 352.000
68.14539 376.000
68.16534 355.000
68.18529 302.000
68.20523 327.000
68.22518 330.000
68.24513 349.000
68.26508 326.000
68.28502 333.000
68.30497 327.000
68.32492 297.000
68.34486 314.000
68.36481 322.000
68.38476 297.000
68.40470 294.000
68.42465 323.000
68.44460 315.000
68.46455 281.000
68.48449 308.000
68.50444 312.000
68.52439 314.000
68.54433 327.000
68.56428 304.000
68.58423 271.000
68.60417 296.000
68.62412 270.000
68.64407 335.000
68.66401 294.000
68.68396 313.000
68.70391 280.000
68.72386 289.000
68.74380 273.000
68.76375 260.000
68.78370 283.000
68.80364 300.000
68.82359 304.000
68.84354 286.000
68.86348 310.000
68.88343 266.000
68.90338 324.000
68.92333 283.000
68.94327 288.000
68.96322 294.000
68.98317 287.000
69.00311 290.000
69.02306 269.000
69.04301 286.000
69.06295 289.000
69.08290 313.000
69.10285 262.000
69.12279 280.000
69.14274 271.000
69.16269 284.000
69.18264 292.000
69.20258 283.000
69.22253 274.000
69.24248 280.000
69.26242 278.000
69.28237 281.000
69.30232 288.000
69.32226 275.000
69.34221 270.000
69.36216 282.000
69.38211 281.000
69.40205 259.000
69.42200 275.000
69.44195 292.000
69.46189 275.000
69.48184 294.000
69.50179 271.000
69.52173 284.000
69.54168 259.000
69.56163 300.000
69.58157 270.000
69.60152 284.000
69.62147 255.000
69.64142 307.000
69.66136 285.000
69.68131 285.000
69.70126 278.000
69.72120 291.000
69.74115 242.000
69.76110 258.000
69.78104 290.000
69.80099 285.000
69.82094 279.000
69.84089 258.000
69.86083 252.000
69.88078 283.000
69.90073 261.000
69.92067 266.000
69.94062 263.000
69.96057 261.000
69.98051 295.000
70.00046 259.000
70.02041 261.000
70.04035 267.000
70.06030 293.000
70.08025 244.000
70.10020 278.000
70.12014 278.000
70.14009 284.000
70.16004 298.000
70.17998 281.000
70.19993 291.000
70.21988 271.000
70.23982 271.000
70.25977 289.000
70.27972 279.000
70.29967 308.000
70.31961 267.000
70.33956 284.000
70.35951 288.000
70.37945 281.000
70.39940 259.000
70.41935 284.000
70.43929 307.000
70.45924 257.000
70.47919 307.000
70.49914 248.000
70.51908 277.000
70.53903 281.000
70.55898 276.000
70.57892 280.000
70.59887 256.000
70.61882 285.000
70.63876 270.000
70.65871 257.000
70.67866 265.000
70.69860 285.000
70.71855 275.000
70.73850 294.000
70.75845 292.000
70.77839 250.000
70.79834 271.000
70.81829 278.000
70.83823 272.000
70.85818 254.000
70.87813 248.000
70.89807 262.000
70.91802 261.000
70.93797 298.000
70.95792 307.000
70.97786 285.000
70.99781 267.000
71.01776 290.000
71.03770 270.000
71.05765 253.000
71.07760 303.000
71.09754 274.000
71.11749 284.000
71.13744 287.000
71.15738 259.000
71.17733 275.000
71.19728 286.000
71.21723 290.000
71.23717 300.000
71.25712 286.000
71.27707 272.000
71.29701 289.000
71.31696 286.000
71.33691 280.000
71.35685 301.000
71.37680 262.000
71.39675 307.000
71.41670 301.000
71.43664 296.000
71.45659 303.000
71.47654 324.000
71.49648 323.000
71.51643 327.000
71.53638 310.000
71.55632 302.000
71.57627 301.000
71.59622 306.000
71.61616 291.000
71.63611 305.000
71.65606 264.000
71.67601 303.000
71.69595 271.000
71.71590 297.000
71.73585 278.000
71.75579 274.000
71.77574 278.000
71.79569 254.000
71.81563 300.000
71.83558 298.000
71.85553 274.000
71.87548 261.000
71.89542 283.000
71.91537 299.000
71.93532 275.000
71.95526 312.000
71.97521 296.000
71.99516 281.000
72.01510 308.000
72.03505 307.000
72.05500 283.000
72.07495 289.000
72.09489 303.000
72.11484 288.000
72.13479 303.000
72.15473 339.000
72.17468 313.000
72.19463 324.000
72.21457 311.000
72.23452 293.000
72.25447 317.000
72.27441 356.000
72.29436 317.000
72.31431 323.000
72.33426 321.000
72.35420 308.000
72.37415 314.000
72.39410 312.000
72.41404 322.000
72.43399 311.000
72.45394 302.000
72.47388 355.000
72.49383 361.000
72.51378 339.000
72.53373 324.000
72.55367 336.000
72.57362 340.000
72.59357 311.000
72.61351 320.000
72.63346 320.000
72.65341 326.000
72.67335 323.000
72.69330 331.000
72.71325 307.000
72.73319 374.000
72.75314 317.000
72.77309 318.000
72.79304 297.000
72.81298 343.000
72.83293 326.000
72.85288 291.000
72.87282 319.000
72.89277 312.000
72.91272 298.000
72.93266 312.000
72.95261 327.000
72.97256 291.000
72.99251 288.000
73.01245 322.000
73.03240 273.000
73.05235 296.000
73.07229 295.000
73.09224 318.000
73.11219 301.000
73.13213 290.000
73.15208 288.000
73.17203 293.000
73.19197 302.000
73.21192 320.000
73.23187 322.000
73.25182 340.000
73.27176 277.000
73.29171 287.000
73.31166 291.000
73.33160 289.000
73.35155 288.000
73.37150 344.000
73.39144 272.000
73.41139 307.000
73.43134 281.000
73.45129 264.000
73.47123 287.000
73.49118 289.000
73.51113 263.000
73.53107 275.000
73.55102 291.000
73.57097 274.000
73.59091 265.000
73.61086 299.000
73.63081 290.000
73.65076 296.000
73.67070 275.000
73.69065 289.000
73.71060 274.000
73.73054 299.000
73.75049 294.000
73.77044 297.000
73.79038 293.000
73.81033 262.000
73.83028 293.000
73.85022 302.000
73.87017 282.000
73.89012 296.000
73.91007 274.000
73.93001 280.000
73.94996 283.000
73.96991 295.000
73.98985 314.000
74.00980 279.000
74.02975 281.000
74.04969 309.000
74.06964 289.000
74.08959 297.000
74.10954 305.000
74.12948 299.000
74.14943 309.000
74.16938 324.000
74.18932 302.000
74.20927 296.000
74.22922 288.000
74.24916 331.000
74.26911 281.000
74.28906 326.000
74.30900 331.000
74.32895 326.000
74.34890 352.000
74.36885 291.000
74.38879 340.000
74.40874 322.000
74.42869 323.000
74.44863 367.000
74.46858 350.000
74.48853 365.000
74.50847 370.000
74.52842 410.000
74.54837 410.000
74.56832 412.000
74.58826 416.000
74.60821 380.000
74.62816 351.000
74.64810 352.000
74.66805 381.000
74.68800 334.000
74.70794 394.000
74.72789 370.000
74.74784 401.000
74.76778 385.000
74.78773 405.000
74.80768 372.000
74.82763 363.000
74.84757 347.000
74.86752 397.000
74.88747 384.000
74.90741 365.000
74.92736 383.000
74.94731 390.000
74.96725 384.000
74.98720 394.000
75.00715 413.000
75.02710 373.000
75.04704 403.000
75.06699 369.000
75.08694 371.000
75.10688 418.000
75.12683 382.000
75.14678 412.000
75.16672 426.000
75.18667 392.000
75.20662 435.000
75.22657 437.000
75.24651 385.000
75.26646 402.000
75.28641 396.000
75.30635 398.000
75.32630 423.000
75.34625 347.000
75.36619 386.000
75.38614 348.000
75.40609 350.000
75.42603 341.000
75.44598 351.000
75.46593 361.000
75.48588 356.000
75.50582 397.000
75.52577 328.000
75.54572 353.000
75.56566 319.000
75.58561 368.000
75.60556 360.000
75.62550 343.000
75.64545 336.000
75.66540 309.000
75.68535 339.000
75.70529 324.000
75.72524 304.000
75.74519 285.000
75.76513 299.000
75.78508 336.000
75.80503 286.000
75.82497 309.000
75.84492 300.000
75.86487 299.000
75.88481 287.000
75.90476 306.000
75.92471 314.000
75.94466 302.000
75.96460 315.000
75.98455 287.000
76.00450 313.000
76.02444 266.000
76.04439 271.000
76.06434 292.000
76.08428 285.000
76.10423 287.000
76.12418 282.000
76.14413 277.000
76.16407 280.000
76.18402 265.000
76.20397 281.000
76.22391 272.000
76.24386 291.000
76.26381 264.000
76.28375 281.000
76.30370 278.000
76.32365 295.000
76.34359 284.000
76.36354 281.000
76.38349 293.000
76.40344 310.000
76.42338 273.000
76.44333 298.000
76.46328 280.000
76.48322 286.000
76.50317 259.000
76.52312 266.000
76.54306 293.000
76.56301 299.000
76.58296 279.000
76.60291 260.000
76.62285 286.000
76.64280 254.000
76.66275 300.000
76.68269 292.000
76.70264 295.000
76.72259 283.000
76.74253 270.000
76.76248 291.000
76.78243 282.000
76.80238 269.000
76.82232 319.000
76.84227 288.000
76.86222 265.000
76.88216 294.000
76.90211 291.000
76.92206 289.000
76.94200 304.000
76.96195 284.000
76.98190 275.000
77.00184 307.000
77.02179 274.000
77.04174 283.000
77.06169 290.000
77.08163 294.000
77.10158 292.000
77.12153 253.000
77.14147 299.000
77.16142 276.000
77.18137 272.000
77.20131 293.000
77.22126 288.000
77.24121 329.000
77.26116 281.000
77.28110 299.000
77.30105 279.000
77.32100 259.000
77.34094 329.000
77.36089 319.000
77.38084 277.000
77.40078 280.000
77.42073 280.000
77.44068 319.000
77.46062 290.000
77.48057 280.000
77.50052 279.000
77.52047 269.000
77.54041 258.000
77.56036 275.000
77.58031 260.000
77.60025 285.000
77.62020 302.000
77.64015 320.000
77.66009 279.000
77.68004 298.000
77.69999 303.000
77.71994 311.000
77.73988 291.000
77.75983 293.000
77.77978 348.000
77.79972 292.000
77.81967 278.000
77.83962 317.000
77.85956 300.000
77.87951 278.000
77.89946 297.000
77.91940 293.000
77.93935 287.000
77.95930 290.000
77.97925 269.000
77.99919 281.000
78.01914 259.000
78.03909 295.000
78.05903 265.000
78.07898 281.000
78.09893 284.000
78.11887 283.000
78.13882 291.000
78.15877 272.000
78.17872 283.000
78.19866 252.000
78.21861 263.000
78.23856 314.000
78.25850 322.000
78.27845 281.000
78.29840 312.000
78.31834 297.000
78.33829 267.000
78.35824 294.000
78.37819 318.000
78.39813 270.000
78.41808 277.000
78.43803 307.000
78.45797 286.000
78.47792 305.000
78.49787 270.000
78.51781 285.000
78.53776 288.000
78.55771 328.000
78.57765 287.000
78.59760 310.000
78.61755 293.000
78.63750 337.000
78.65744 327.000
78.67739 321.000
78.69734 301.000
78.71728 279.000
78.73723 310.000
78.75718 325.000
78.77712 315.000
78.79707 327.000
78.81702 315.000
78.83697 346.000
78.85691 311.000
78.87686 308.000
78.89681 280.000
78.91675 360.000
78.93670 333.000
78.95665 333.000
78.97659 317.000
78.99654 328.000
79.01649 306.000
79.03643 359.000
79.05638 336.000
79.07633 335.000
79.09628 345.000
79.11622 370.000
79.13617 346.000
79.15612 316.000
79.17606 313.000
79.19601 330.000
79.21596 328.000
79.23590 318.000
79.25585 321.000
79.27580 347.000
79.29575 311.000
79.31569 314.000
79.33564 293.000
79.35559 296.000
79.37553 320.000
79.39548 310.000
79.41543 294.000
79.43537 317.000
79.45532 311.000
79.47527 315.000
79.49521 307.000
79.51516 297.000
79.53511 338.000
79.55506 306.000
79.57500 309.000
79.59495 301.000
79.61490 324.000
79.63484 282.000
79.65479 299.000
79.67474 270.000
79.69468 303.000
79.71463 304.000
79.73458 271.000
79.75453 283.000
79.77447 278.000
79.79442 304.000
79.81437 302.000
79.83431 274.000
79.85426 268.000
79.87421 272.000
79.89415 270.000
79.91410 297.000
79.93405 281.000
79.95399 282.000
79.97394 259.000
79.99389 278.000
80.01384 279.000
80.03378 284.000
80.05373 264.000
80.07368 249.000
80.09362 286.000
80.11357 297.000
80.13352 269.000
80.15346 295.000
80.17341 283.000
80.19336 296.000
80.21331 286.000
80.23325 278.000
80.25320 271.000
80.27315 278.000
80.29309 300.000
80.31304 299.000
80.33299 265.000
80.35293 286.000
80.37288 311.000
80.39283 254.000
80.41278 290.000
80.43272 281.000
80.45267 283.000
80.47262 271.000
80.49256 293.000
80.51251 267.000
80.53246 304.000
80.55240 279.000
80.57235 282.000
80.59230 277.000
80.61224 289.000
80.63219 310.000
80.65214 249.000
80.67209 275.000
80.69203 271.000
80.71198 297.000
80.73193 265.000
80.75187 267.000
80.77182 278.000
80.79177 264.000
80.81171 271.000
80.83166 279.000
80.85161 274.000
80.87156 294.000
80.89150 242.000
80.91145 284.000
80.93140 286.000
80.95134 267.000
80.97129 251.000
80.99124 286.000
81.01118 244.000
81.03113 275.000
81.05108 251.000
81.07102 261.000
81.09097 255.000
81.11092 279.000
81.13087 261.000
81.15081 266.000
81.17076 296.000
81.19071 316.000
81.21065 252.000
81.23060 266.000
81.25055 248.000
81.27049 289.000
81.29044 292.000
81.31039 246.000
81.33034 258.000
81.35028 274.000
81.37023 264.000
81.39018 267.000
81.41012 270.000
81.43007 285.000
81.45002 269.000
81.46996 264.000
81.48991 259.000
81.50986 281.000
81.52980 282.000
81.54975 312.000
81.56970 268.000
81.58965 251.000
81.60959 264.000
81.62954 278.000
81.64949 263.000
81.66943 269.000
81.68938 277.000
81.70933 283.000
81.72927 273.000
81.74922 257.000
81.76917 269.000
81.78912 288.000
81.80906 286.000
81.82901 262.000
81.84896 262.000
81.86890 262.000
81.88885 286.000
81.90880 275.000
81.92874 286.000
81.94869 255.000
81.96864 274.000
81.98859 266.000
82.00853 271.000
82.02848 298.000
82.04843 323.000
82.06837 286.000
82.08832 292.000
82.10827 258.000
82.12821 288.000
82.14816 273.000
82.16811 251.000
82.18805 263.000
82.20800 278.000
82.22795 302.000
82.24790 280.000
82.26784 275.000
82.28779 277.000
82.30774 284.000
82.32768 295.000
82.34763 290.000
82.36758 278.000
82.38752 304.000
82.40747 324.000
82.42742 294.000
82.44737 301.000
82.46731 328.000
82.48726 289.000
82.50721 287.000
82.52715 272.000
82.54710 273.000
82.56705 315.000
82.58699 314.000
82.60694 310.000
82.62689 276.000
82.64683 328.000
82.66678 325.000
82.68673 304.000
82.70668 302.000
82.72662 316.000
82.74657 329.000
82.76652 336.000
82.78646 315.000
82.80641 324.000
82.82636 346.000
82.84630 289.000
82.86625 313.000
82.88620 323.000
82.90615 331.000
82.92609 332.000
82.94604 308.000
82.96599 303.000
82.98593 301.000
83.00588 306.000
83.02583 334.000
83.04577 283.000
83.06572 264.000
83.08567 312.000
83.10561 330.000
83.12556 285.000
83.14551 278.000
83.16546 324.000
83.18540 276.000
83.20535 307.000
83.22530 272.000
83.24524 296.000
83.26519 297.000
83.28514 309.000
83.30508 279.000
83.32503 294.000
83.34498 283.000
83.36493 262.000
83.38487 317.000
83.40482 275.000
83.42477 299.000
83.44471 272.000
83.46466 287.000
83.48461 262.000
83.50455 278.000
83.52450 279.000
83.54445 280.000
83.56440 285.000
83.58434 284.000
83.60429 290.000
83.62424 272.000
83.64418 288.000
83.66413 273.000
83.68408 278.000
83.70402 308.000
83.72397 292.000
83.74392 263.000
83.76386 287.000
83.78381 270.000
83.80376 323.000
83.82371 289.000
83.84365 289.000
83.86360 279.000
83.88355 291.000
83.90349 285.000
83.92344 290.000
83.94339 276.000
83.96333 308.000
83.98328 306.000
84.00323 258.000
84.02318 290.000
84.04312 244.000
84.06307 291.000
84.08302 270.000
84.10296 252.000
84.12291 294.000
84.14286 251.000
84.16280 259.000
84.18275 284.000
84.20270 275.000
84.22264 266.000
84.24259 284.000
84.26254 263.000
84.28249 282.000
84.30243 267.000
84.32238 292.000
84.34233 273.000
84.36227 257.000
84.38222 253.000
84.40217 238.000
84.42211 280.000
84.44206 310.000
84.46201 291.000
84.48196 311.000
84.50190 279.000
84.52185 269.000
84.54180 281.000
84.56174 281.000
84.58169 272.000
84.60164 282.000
84.62158 253.000
84.64153 265.000
84.66148 292.000
84.68142 264.000
84.70137 234.000
84.72132 312.000
84.74127 268.000
84.76121 276.000
84.78116 282.000
84.80111 264.000
84.82105 311.000
84.84100 245.000
84.86095 260.000
84.88089 243.000
84.90084 281.000
84.92079 290.000
84.94074 284.000
84.96068 290.000
84.98063 274.000
85.00058 257.000
85.02052 258.000
85.04047 292.000
85.06042 274.000
85.08036 252.000
85.10031 267.000
85.12026 252.000
85.14021 288.000
85.16015 270.000
85.18010 251.000
85.20005 280.000
85.21999 257.000
85.23994 247.000
85.25989 279.000
85.27983 265.000
85.29978 265.000
85.31973 257.000
85.33967 270.000
85.35962 273.000
85.37957 245.000
85.39952 295.000
85.41946 278.000
85.43941 261.000
85.45936 272.000
85.47930 295.000
85.49925 274.000
85.51920 281.000
85.53914 270.000
85.55909 287.000
85.57904 267.000
85.59899 264.000
85.61893 279.000
85.63888 281.000
85.65883 282.000
85.67877 298.000
85.69872 259.000
85.71867 266.000
85.73861 256.000
85.75856 278.000
85.77851 257.000
85.79845 253.000
85.81840 242.000
85.83835 274.000
85.85830 293.000
85.87824 274.000
85.89819 268.000
85.91814 285.000
85.93808 291.000
85.95803 246.000
85.97798 253.000
85.99792 252.000
86.01787 272.000
86.03782 230.000
86.05777 281.000
86.07771 291.000
86.09766 250.000
86.11761 269.000
86.13755 269.000
86.15750 278.000
86.17745 262.000
86.19739 243.000
86.21734 297.000
86.23729 259.000
86.25723 281.000
86.27718 272.000
86.29713 251.000
86.31708 270.000
86.33702 279.000
86.35697 256.000
86.37692 311.000
86.39686 243.000
86.41681 268.000
86.43676 286.000
86.45670 264.000
86.47665 293.000
86.49660 265.000
86.51655 263.000
86.53649 260.000
86.55644 255.000
86.57639 304.000
86.59633 267.000
86.61628 259.000
86.63623 253.000
86.65617 261.000
86.67612 288.000
86.69607 294.000
86.71602 263.000
86.73596 254.000
86.75591 275.000
86.77586 279.000
86.79580 274.000
86.81575 262.000
86.83570 295.000
86.85564 279.000
86.87559 271.000
86.89554 268.000
86.91548 273.000
86.93543 280.000
86.95538 259.000
86.97533 292.000
86.99527 276.000
87.01522 279.000
87.03517 277.000
87.05511 267.000
87.07506 264.000
87.09501 266.000
87.11495 311.000
87.13490 290.000
87.15485 288.000
87.17480 280.000
87.19474 280.000
87.21469 278.000
87.23464 322.000
87.25458 310.000
87.27453 258.000
87.29448 303.000
87.31442 304.000
87.33437 298.000
87.35432 307.000
87.37426 316.000
87.39421 295.000
87.41416 316.000
87.43411 319.000
87.45405 302.000
87.47400 302.000
87.49395 285.000
87.51389 299.000
87.53384 306.000
87.55379 271.000
87.57373 295.000
87.59368 297.000
87.61363 312.000
87.63358 282.000
87.65352 271.000
87.67347 273.000
87.69342 303.000
87.71336 319.000
87.73331 280.000
87.75326 278.000
87.77320 281.000
87.79315 262.000
87.81310 241.000
87.83304 280.000
87.85299 296.000
87.87294 277.000
87.89289 259.000
87.91283 283.000
87.93278 259.000
87.95273 267.000
87.97267 304.000
87.99262 242.000
88.01257 266.000
88.03251 255.000
88.05246 264.000
88.07241 243.000
88.09236 276.000
88.11230 275.000
88.13225 257.000
88.15220 265.000
88.17214 270.000
88.19209 287.000
88.21204 247.000
88.23198 269.000
88.25193 247.000
88.27188 270.000
88.29183 272.000
88.31177 252.000
88.33172 247.000
88.35167 282.000
88.37161 279.000
88.39156 253.000
88.41151 298.000
88.43145 285.000
88.45140 280.000
88.47135 275.000
88.49129 262.000
88.51124 256.000
88.53119 275.000
88.55114 271.000
88.57108 286.000
88.59103 265.000
88.61098 298.000
88.63092 261.000
88.65087 287.000
88.67082 274.000
88.69076 285.000
88.71071 284.000
88.73066 260.000
88.75061 295.000
88.77055 256.000
88.79050 286.000
88.81045 269.000
88.83039 301.000
88.85034 288.000
88.87029 273.000
88.89023 254.000
88.91018 269.000
88.93013 303.000
88.95007 267.000
88.97002 271.000
88.98997 265.000
89.00992 274.000
89.02986 283.000
89.04981 287.000
89.06976 271.000
89.08970 258.000
89.10965 278.000
89.12960 274.000
89.14954 277.000
89.16949 309.000
89.18944 274.000
89.20939 276.000
89.22933 300.000
89.24928 282.000
89.26923 311.000
89.28917 274.000
89.30912 287.000
89.32907 279.000
89.34901 276.000
89.36896 285.000
89.38891 285.000
89.40885 284.000
89.42880 256.000
89.44875 280.000
89.46870 302.000
89.48864 285.000
89.50859 288.000
89.52854 298.000
89.54848 289.000
89.56843 286.000
89.58838 266.000
89.60832 291.000
89.62827 286.000
89.64822 295.000
89.66817 281.000
89.68811 281.000
89.70806 286.000
89.72801 304.000
89.74795 300.000
89.76790 287.000
89.78785 332.000
89.80779 303.000
89.82774 267.000
89.84769 270.000
89.86764 306.000
89.88758 292.000
89.90753 262.000
89.92748 323.000
89.94742 298.000
89.96737 271.000
89.98732 282.000
90.00726 294.000
