10.00000 48.000
10.01995 60.000
10.03989 63.000
10.05984 53.000
10.07979 57.000
10.09973 42.000
10.11968 53.000
10.13963 57.000
10.15958 51.000
10.17952 57.000
10.19947 63.000
10.21942 46.000
10.23936 60.000
10.25931 52.000
10.27926 62.000
10.29920 70.000
10.31915 57.000
10.33910 51.000
10.35905 66.000
10.37899 61.000
10.39894 52.000
10.41889 55.000
10.43883 42.000
10.45878 56.000
10.47873 42.000
10.49867 68.000
10.51862 61.000
10.53857 60.000
10.55851 49.000
10.57846 63.000
10.59841 60.000
10.61836 62.000
10.63830 55.000
10.65825 58.000
10.67820 59.000
10.69814 53.000
10.71809 51.000
10.73804 49.000
10.75798 64.000
10.77793 50.000
10.79788 49.000
10.81783 61.000
10.83777 54.000
10.85772 52.000
10.87767 50.000
10.89761 49.000
10.91756 56.000
10.93751 45.000
10.95745 62.000
10.97740 63.000
10.99735 45.000
11.01730 64.000
11.03724 72.000
11.05719 58.000
11.07714 68.000
11.09708 42.000
11.11703 55.000
11.13698 67.000
11.15692 50.000
11.17687 51.000
11.19682 41.000
11.21676 49.000
11.23671 48.000
11.25666 47.000
11.27661 49.000
11.29655 55.000
11.31650 52.000
11.33645 57.000
11.35639 70.000
11.37634 47.000
11.39629 43.000
11.41623 50.000
11.43618 57.000
11.45613 61.000
11.47608 56.000
11.49602 62.000
11.51597 55.000
11.53592 58.000
11.55586 66.000
11.57581 59.000
11.59576 51.000
11.61570 69.000
11.63565 57.000
11.65560 54.000
11.67554 60.000
11.69549 62.000
11.71544 48.000
11.73539 52.000
11.75533 47.000
11.77528 58.000
11.79523 73.000
11.81517 51.000
11.83512 44.000
11.85507 48.000
11.87501 65.000
11.89496 66.000
11.91491 62.000
11.93486 64.000
11.95480 56.000
11.97475 50.000
11.99470 57.000
12.01464 47.000
12.03459 48.000
12.05454 59.000
12.07448 64.000
12.09443 53.000
12.11438 45.000
12.13432 49.000
12.15427 59.000
12.17422 68.000
12.19417 54.000
12.21411 68.000
12.23406 49.000
12.25401 56.000
12.27395 60.000
12.29390 64.000
12.31385 67.000
12.33379 69.000
12.35374 56.000
12.37369 62.000
12.39364 58.000
12.41358 62.000
12.43353 55.000
12.45348 59.000
12.47342 55.000
12.49337 75.000
12.51332 60.000
12.53326 50.000
12.55321 56.000
12.57316 59.000
12.59311 66.000
12.61305 64.000
12.63300 45.000
12.65295 75.000
12.67289 50.000
12.69284 68.000
12.71279 55.000
12.73273 58.000
12.75268 68.000
12.77263 64.000
12.79257 60.000
12.81252 51.000
12.83247 57.000
12.85242 61.000
12.87236 52.000
12.89231 45.000
12.91226 49.000
12.93220 56.000
12.95215 66.000
12.97210 64.000
12.99204 41.000
13.01199 47.000
13.03194 56.000
13.05189 63.000
13.07183 62.000
13.09178 73.000
13.11173 61.000
13.13167 71.000
13.15162 78.000
13.17157 63.000
13.19151 55.000
13.21146 59.000
13.23141 67.000
13.25135 67.000
13.27130 67.000
13.29125 55.000
13.31120 63.000
13.33114 54.000
13.35109 64.000
13.37104 60.000
13.39098 62.000
13.41093 67.000
13.43088 69.000
13.45082 63.000
13.47077 58.000
13.49072 61.000
13.51067 53.000
13.53061 60.000
13.55056 61.000
13.57051 63.000
13.59045 62.000
13.61040 65.000
13.63035 60.000
13.65029 48.000
13.67024 79.000
13.69019 65.000
13.71013 55.000
13.73008 56.000
13.75003 64.000
13.76998 60.000
13.78992 61.000
13.80987 65.000
13.82982 68.000
13.84976 60.000
13.86971 80.000
13.88966 70.000
13.90960 67.000
13.92955 64.000
13.94950 72.000
13.96945 63.000
13.98939 67.000
14.00934 87.000
14.02929 74.000
14.04923 58.000
14.06918 67.000
14.08913 67.000
14.10907 51.000
14.12902 83.000
14.14897 99.000
14.16892 70.000
14.18886 63.000
14.20881 83.000
14.22876 66.000
14.24870 68.000
14.26865 76.000
14.28860 59.000
14.30854 75.000
14.32849 72.000
14.34844 70.000
14.36838 73.000
14.38833 85.000
14.40828 71.000
14.42823 69.000
14.44817 77.000
14.46812 68.000
14.48807 79.000
14.50801 54.000
14.52796 74.000
14.54791 84.000
14.56785 73.000
14.58780 67.000
14.60775 88.000
14.62770 64.000
14.64764 92.000
14.66759 93.000
14.68754 73.000
14.70748 81.000
14.72743 90.000
14.74738 100.000
14.76732 78.000
14.78727 99.000
14.80722 71.000
14.82716 88.000
14.84711 98.000
14.86706 92.000
14.88701 84.000
14.90695 104.000
14.92690 94.000
14.94685 110.000
14.96679 103.000
14.98674 111.000
15.00669 140.000
15.02663 116.000
15.04658 117.000
15.06653 115.000
15.08648 131.000
15.10642 122.000
15.12637 135.000
15.14632 127.000
15.16626 111.000
15.18621 160.000
15.20616 145.000
15.22610 154.000
15.24605 151.000
15.26600 157.000
15.28594 160.000
15.30589 178.000
15.32584 200.000
15.34579 197.000
15.36573 195.000
15.38568 213.000
15.40563 231.000
15.42557 287.000
15.44552 276.000
15.46547 361.000
15.48541 409.000
15.50536 496.000
15.52531 617.000
15.54526 803.000
15.56520 1066.000
15.58515 1506.000
15.60510 2463.000
15.62504 3966.000
15.64499 6201.000
15.66494 8850.000
15.68488 11126.000
15.70483 11359.000
15.72478 9783.000
15.74472 6818.000
15.76467 4106.000
15.78462 2253.000
15.80457 1142.000
15.82451 733.000
15.84446 466.000
15.86441 362.000
15.88435 277.000
15.90430 260.000
15.92425 238.000
15.94419 212.000
15.96414 199.000
15.98409 202.000
16.00404 153.000
16.02398 154.000
16.04393 135.000
16.06388 140.000
16.08382 132.000
16.10377 117.000
16.12372 128.000
16.14366 121.000
16.16361 133.000
16.18356 121.000
16.20351 119.000
16.22345 113.000
16.24340 104.000
16.26335 97.000
16.28329 98.000
16.30324 97.000
16.32319 95.000
16.34313 83.000
16.36308 82.000
16.38303 88.000
16.40297 85.000
16.42292 83.000
16.44287 81.000
16.46282 86.000
16.48276 65.000
16.50271 86.000
16.52266 81.000
16.54260 71.000
16.56255 75.000
16.58250 68.000
16.60244 58.000
16.62239 74.000
16.64234 60.000
16.66229 72.000
16.68223 74.000
16.70218 46.000
16.72213 71.000
16.74207 57.000
16.76202 61.000
16.78197 52.000
16.80191 67.000
16.82186 75.000
16.84181 45.000
16.86175 64.000
16.88170 56.000
16.90165 58.000
16.92160 61.000
16.94154 66.000
16.96149 56.000
16.98144 56.000
17.00138 46.000
17.02133 56.000
17.04128 49.000
17.06122 49.000
17.08117 61.000
17.10112 50.000
17.12107 60.000
17.14101 41.000
17.16096 65.000
17.18091 57.000
17.20085 46.000
17.22080 58.000
17.24075 61.000
17.26069 53.000
17.28064 59.000
17.30059 48.000
17.32053 47.000
17.34048 49.000
17.36043 45.000
17.38038 72.000
17.40032 55.000
17.42027 49.000
17.44022 42.000
17.46016 57.000
17.48011 39.000
17.50006 59.000
17.52000 56.000
17.53995 58.000
17.55990 46.000
17.57985 58.000
17.59979 56.000
17.61974 55.000
17.63969 57.000
17.65963 61.000
17.67958 40.000
17.69953 49.000
17.71947 40.000
17.73942 46.000
17.75937 52.000
17.77932 55.000
17.79926 51.000
17.81921 45.000
17.83916 46.000
17.85910 33.000
17.87905 62.000
17.89900 52.000
17.91894 56.000
17.93889 57.000
17.95884 40.000
17.97878 70.000
17.99873 51.000
18.01868 53.000
18.03863 49.000
18.05857 48.000
18.07852 48.000
18.09847 58.000
18.11841 61.000
18.13836 66.000
18.15831 59.000
18.17825 62.000
18.19820 50.000
18.21815 54.000
18.23810 65.000
18.25804 49.000
18.27799 53.000
18.29794 58.000
18.31788 52.000
18.33783 83.000
18.35778 75.000
18.37772 64.000
18.39767 53.000
18.41762 57.000
18.43756 59.000
18.45751 50.000
18.47746 47.000
18.49741 56.000
18.51735 46.000
18.53730 52.000
18.55725 50.000
18.57719 46.000
18.59714 44.000
18.61709 52.000
18.63703 55.000
18.65698 49.000
18.67693 40.000
18.69688 45.000
18.71682 59.000
18.73677 47.000
18.75672 57.000
18.77666 48.000
18.79661 56.000
18.81656 48.000
18.83650 46.000
18.85645 42.000
18.87640 48.000
18.89634 47.000
18.91629 55.000
18.93624 46.000
18.95619 49.000
18.97613 61.000
18.99608 48.000
19.01603 51.000
19.03597 43.000
19.05592 54.000
19.07587 44.000
19.09581 49.000
19.11576 48.000
19.13571 49.000
19.15566 53.000
19.17560 51.000
19.19555 46.000
19.21550 55.000
19.23544 43.000
19.25539 58.000
19.27534 55.000
19.29528 53.000
19.31523 44.000
19.33518 55.000
19.35513 46.000
19.37507 56.000
19.39502 52.000
19.41497 55.000
19.43491 41.000
19.45486 42.000
19.47481 54.000
19.49475 46.000
19.51470 53.000
19.53465 50.000
19.55459 42.000
19.57454 51.000
19.59449 50.000
19.61444 50.000
19.63438 54.000
19.65433 55.000
19.67428 51.000
19.69422 48.000
19.71417 60.000
19.73412 45.000
19.75406 50.000
19.77401 62.000
19.79396 46.000
19.81391 50.000
19.83385 55.000
19.85380 62.000
19.87375 44.000
19.89369 44.000
19.91364 51.000
19.93359 54.000
19.95353 59.000
19.97348 51.000
19.99343 52.000
20.01337 42.000
20.03332 55.000
20.05327 53.000
20.07322 50.000
20.09316 64.000
20.11311 55.000
20.13306 42.000
20.15300 49.000
20.17295 58.000
20.19290 57.000
20.21284 62.000
20.23279 47.000
20.25274 51.000
20.27269 47.000
20.29263 37.000
20.31258 54.000
20.33253 48.000
20.35247 52.000
20.37242 34.000
20.39237 54.000
20.41231 63.000
20.43226 45.000
20.45221 41.000
20.47215 67.000
20.49210 58.000
20.51205 57.000
20.53200 66.000
20.55194 45.000
20.57189 40.000
20.59184 42.000
20.61178 44.000
20.63173 47.000
20.65168 52.000
20.67162 48.000
20.69157 58.000
20.71152 48.000
20.73147 43.000
20.75141 60.000
20.77136 56.000
20.79131 50.000
20.81125 73.000
20.83120 56.000
20.85115 46.000
20.87109 50.000
20.89104 58.000
20.91099 64.000
20.93094 61.000
20.95088 49.000
20.97083 63.000
20.99078 53.000
21.01072 80.000
21.03067 73.000
21.05062 51.000
21.07056 65.000
21.09051 69.000
21.11046 66.000
21.13040 42.000
21.15035 55.000
21.17030 51.000
21.19025 56.000
21.21019 53.000
21.23014 57.000
21.25009 58.000
21.27003 52.000
21.28998 41.000
21.30993 53.000
21.32987 48.000
21.34982 57.000
21.36977 57.000
21.38972 45.000
21.40966 54.000
21.42961 60.000
21.44956 50.000
21.46950 52.000
21.48945 53.000
21.50940 46.000
21.52934 46.000
21.54929 44.000
21.56924 60.000
21.58918 53.000
21.60913 59.000
21.62908 55.000
21.64903 46.000
21.66897 63.000
21.68892 53.000
21.70887 49.000
21.72881 57.000
21.74876 47.000
21.76871 62.000
21.78865 45.000
21.80860 58.000
21.82855 54.000
21.84850 50.000
21.86844 54.000
21.88839 59.000
21.90834 54.000
21.92828 46.000
21.94823 65.000
21.96818 72.000
21.98812 56.000
22.00807 44.000
22.02802 64.000
22.04796 50.000
22.06791 49.000
22.08786 51.000
22.10781 53.000
22.12775 60.000
22.14770 60.000
22.16765 51.000
22.18759 59.000
22.20754 51.000
22.22749 63.000
22.24743 44.000
22.26738 50.000
22.28733 40.000
22.30728 38.000
22.32722 44.000
22.34717 64.000
22.36712 47.000
22.38706 58.000
22.40701 49.000
22.42696 55.000
22.44690 44.000
22.46685 56.000
22.48680 52.000
22.50675 59.000
22.52669 59.000
22.54664 55.000
22.56659 43.000
22.58653 64.000
22.60648 54.000
22.62643 63.000
22.64637 58.000
22.66632 64.000
22.68627 60.000
22.70621 58.000
22.72616 47.000
22.74611 52.000
22.76606 56.000
22.78600 55.000
22.80595 52.000
22.82590 43.000
22.84584 51.000
22.86579 58.000
22.88574 45.000
22.90568 36.000
22.92563 46.000
22.94558 54.000
22.96553 55.000
22.98547 59.000
23.00542 49.000
23.02537 45.000
23.04531 64.000
23.06526 54.000
23.08521 73.000
23.10515 54.000
23.12510 47.000
23.14505 55.000
23.16499 59.000
23.18494 46.000
23.20489 52.000
23.22484 42.000
23.24478 47.000
23.26473 50.000
23.28468 58.000
23.30462 48.000
23.32457 52.000
23.34452 48.000
23.36446 57.000
23.38441 65.000
23.40436 71.000
23.42431 57.000
23.44425 67.000
23.46420 53.000
23.48415 64.000
23.50409 57.000
23.52404 60.000
23.54399 64.000
23.56393 56.000
23.58388 47.000
23.60383 50.000
23.62377 54.000
23.64372 48.000
23.66367 52.000
23.68362 51.000
23.70356 54.000
23.72351 55.000
23.74346 51.000
23.76340 47.000
23.78335 52.000
23.80330 52.000
23.82324 63.000
23.84319 56.000
23.86314 52.000
23.88309 58.000
23.90303 74.000
23.92298 55.000
23.94293 62.000
23.96287 56.000
23.98282 49.000
24.00277 47.000
24.02271 70.000
24.04266 58.000
24.06261 54.000
24.08256 54.000
24.10250 56.000
24.12245 54.000
24.14240 59.000
24.16234 63.000
24.18229 66.000
24.20224 41.000
24.22218 62.000
24.24213 52.000
24.26208 48.000
24.28202 61.000
24.30197 61.000
24.32192 58.000
24.34187 47.000
24.36181 62.000
24.38176 64.000
24.40171 50.000
24.42165 71.000
24.44160 51.000
24.46155 60.000
24.48149 60.000
24.50144 59.000
24.52139 49.000
24.54134 69.000
24.56128 42.000
24.58123 50.000
24.60118 58.000
24.62112 51.000
24.64107 63.000
24.66102 56.000
24.68096 48.000
24.70091 51.000
24.72086 63.000
24.74080 54.000
24.76075 54.000
24.78070 55.000
24.80065 58.000
24.82059 59.000
24.84054 57.000
24.86049 53.000
24.88043 60.000
24.90038 58.000
24.92033 50.000
24.94027 61.000
24.96022 65.000
24.98017 51.000
25.00012 59.000
25.02006 44.000
25.04001 57.000
25.05996 53.000
25.07990 50.000
25.09985 55.000
25.11980 58.000
25.13974 51.000
25.15969 55.000
25.17964 67.000
25.19958 63.000
25.21953 56.000
25.23948 54.000
25.25943 51.000
25.27937 48.000
25.29932 41.000
25.31927 53.000
25.33921 70.000
25.35916 56.000
25.37911 49.000
25.39905 55.000
25.41900 60.000
25.43895 66.000
25.45890 56.000
25.47884 52.000
25.49879 56.000
25.51874 52.000
25.53868 46.000
25.55863 68.000
25.57858 45.000
25.59852 50.000
25.61847 46.000
25.63842 55.000
25.65837 49.000
25.67831 61.000
25.69826 62.000
25.71821 72.000
25.73815 47.000
25.75810 77.000
25.77805 57.000
25.79799 53.000
25.81794 42.000
25.83789 60.000
25.85783 55.000
25.87778 60.000
25.89773 64.000
25.91768 60.000
25.93762 59.000
25.95757 64.000
25.97752 64.000
25.99746 63.000
26.01741 52.000
26.03736 65.000
26.05730 77.000
26.07725 76.000
26.09720 49.000
26.11715 75.000
26.13709 66.000
26.15704 60.000
26.17699 46.000
26.19693 43.000
26.21688 54.000
26.23683 60.000
26.25677 72.000
26.27672 81.000
26.29667 57.000
26.31661 66.000
26.33656 61.000
26.35651 56.000
26.37646 67.000
26.39640 60.000
26.41635 52.000
26.43630 77.000
26.45624 78.000
26.47619 59.000
26.49614 46.000
26.51608 61.000
26.53603 58.000
26.55598 62.000
26.57593 52.000
26.59587 62.000
26.61582 80.000
26.63577 63.000
26.65571 53.000
26.67566 61.000
26.69561 59.000
26.71555 63.000
26.73550 58.000
26.75545 65.000
26.77539 63.000
26.79534 62.000
26.81529 72.000
26.83524 51.000
26.85518 62.000
26.87513 60.000
26.89508 67.000
26.91502 59.000
26.93497 63.000
26.95492 62.000
26.97486 64.000
26.99481 50.000
27.01476 53.000
27.03471 62.000
27.05465 49.000
27.07460 59.000
27.09455 73.000
27.11449 61.000
27.13444 65.000
27.15439 71.000
27.17433 62.000
27.19428 56.000
27.21423 71.000
27.23417 48.000
27.25412 55.000
27.27407 69.000
27.29402 76.000
27.31396 57.000
27.33391 77.000
27.35386 52.000
27.37380 62.000
27.39375 48.000
27.41370 71.000
27.43364 67.000
27.45359 49.000
27.47354 80.000
27.49349 57.000
27.51343 66.000
27.53338 76.000
27.55333 64.000
27.57327 70.000
27.59322 67.000
27.61317 72.000
27.63311 69.000
27.65306 56.000
27.67301 53.000
27.69296 56.000
27.71290 40.000
27.73285 57.000
27.75280 64.000
27.77274 61.000
27.79269 67.000
27.81264 55.000
27.83258 66.000
27.85253 71.000
27.87248 59.000
27.89242 77.000
27.91237 60.000
27.93232 56.000
27.95227 64.000
27.97221 68.000
27.99216 74.000
28.01211 63.000
28.03205 60.000
28.05200 47.000
28.07195 61.000
28.09189 68.000
28.11184 62.000
28.13179 54.000
28.15174 64.000
28.17168 56.000
28.19163 59.000
28.21158 59.000
28.23152 54.000
28.25147 59.000
28.27142 61.000
28.29136 57.000
28.31131 61.000
28.33126 61.000
28.35120 53.000
28.37115 63.000
28.39110 60.000
28.41105 58.000
28.43099 69.000
28.45094 58.000
28.47089 65.000
28.49083 68.000
28.51078 69.000
28.53073 67.000
28.55067 53.000
28.57062 67.000
28.59057 62.000
28.61052 76.000
28.63046 55.000
28.65041 65.000
28.67036 71.000
28.69030 69.000
28.71025 58.000
28.73020 75.000
28.75014 66.000
28.77009 79.000
28.79004 58.000
28.80998 71.000
28.82993 51.000
28.84988 47.000
28.86983 60.000
28.88977 60.000
28.90972 64.000
28.92967 63.000
28.94961 64.000
28.96956 68.000
28.98951 51.000
29.00945 50.000
29.02940 58.000
29.04935 58.000
29.06930 66.000
29.08924 61.000
29.10919 64.000
29.12914 61.000
29.14908 77.000
29.16903 62.000
29.18898 61.000
29.20892 65.000
29.22887 58.000
29.24882 54.000
29.26877 80.000
29.28871 62.000
29.30866 75.000
29.32861 79.000
29.34855 63.000
29.36850 89.000
29.38845 86.000
29.40839 60.000
29.42834 65.000
29.44829 71.000
29.46823 66.000
29.48818 49.000
29.50813 58.000
29.52808 68.000
29.54802 61.000
29.56797 58.000
29.58792 60.000
29.60786 58.000
29.62781 62.000
29.64776 57.000
29.66770 52.000
29.68765 60.000
29.70760 79.000
29.72755 69.000
29.74749 73.000
29.76744 64.000
29.78739 58.000
29.80733 50.000
29.82728 72.000
29.84723 64.000
29.86717 77.000
29.88712 77.000
29.90707 78.000
29.92701 75.000
29.94696 74.000
29.96691 78.000
29.98686 83.000
30.00680 88.000
30.02675 81.000
30.04670 87.000
30.06664 105.000
30.08659 93.000
30.10654 100.000
30.12648 111.000
30.14643 107.000
30.16638 108.000
30.18633 102.000
30.20627 102.000
30.22622 110.000
30.24617 105.000
30.26611 97.000
30.28606 91.000
30.30601 84.000
30.32595 86.000
30.34590 73.000
30.36585 66.000
30.38579 61.000
30.40574 82.000
30.42569 65.000
30.44564 58.000
30.46558 69.000
30.48553 67.000
30.50548 65.000
30.52542 40.000
30.54537 66.000
30.56532 58.000
30.58526 79.000
30.60521 75.000
30.62516 73.000
30.64511 63.000
30.66505 68.000
30.68500 63.000
30.70495 67.000
30.72489 71.000
30.74484 73.000
30.76479 42.000
30.78473 63.000
30.80468 56.000
30.82463 59.000
30.84458 63.000
30.86452 64.000
30.88447 78.000
30.90442 66.000
30.92436 64.000
30.94431 78.000
30.96426 70.000
30.98420 69.000
31.00415 73.000
31.02410 78.000
31.04404 80.000
31.06399 66.000
31.08394 72.000
31.10389 80.000
31.12383 79.000
31.14378 66.000
31.16373 71.000
31.18367 66.000
31.20362 65.000
31.22357 54.000
31.24351 69.000
31.26346 81.000
31.28341 78.000
31.30336 77.000
31.32330 72.000
31.34325 71.000
31.36320 89.000
31.38314 81.000
31.40309 73.000
31.42304 88.000
31.44298 84.000
31.46293 82.000
31.48288 85.000
31.50282 79.000
31.52277 122.000
31.54272 111.000
31.56267 134.000
31.58261 133.000
31.60256 222.000
31.62251 251.000
31.64245 332.000
31.66240 470.000
31.68235 568.000
31.70229 718.000
31.72224 732.000
31.74219 814.000
31.76214 777.000
31.78208 732.000
31.80203 655.000
31.82198 563.000
31.84192 441.000
31.86187 309.000
31.88182 267.000
31.90176 205.000
31.92171 167.000
31.94166 124.000
31.96160 110.000
31.98155 93.000
32.00150 79.000
32.02145 74.000
32.04139 85.000
32.06134 72.000
32.08129 76.000
32.10123 67.000
32.12118 87.000
32.14113 69.000
32.16107 89.000
32.18102 63.000
32.20097 86.000
32.22092 76.000
32.24086 58.000
32.26081 68.000
32.28076 57.000
32.30070 79.000
32.32065 78.000
32.34060 61.000
32.36054 57.000
32.38049 57.000
32.40044 60.000
32.42039 63.000
32.44033 58.000
32.46028 54.000
32.48023 68.000
32.50017 80.000
32.52012 55.000
32.54007 59.000
32.56001 51.000
32.57996 59.000
32.59991 86.000
32.61985 55.000
32.63980 64.000
32.65975 51.000
32.67970 53.000
32.69964 64.000
32.71959 54.000
32.73954 56.000
32.75948 56.000
32.77943 54.000
32.79938 74.000
32.81932 60.000
32.83927 75.000
32.85922 48.000
32.87917 54.000
32.89911 71.000
32.91906 70.000
32.93901 75.000
32.95895 53.000
32.97890 69.000
32.99885 76.000
33.01879 71.000
33.03874 69.000
33.05869 72.000
33.07863 63.000
33.09858 71.000
33.11853 77.000
33.13848 68.000
33.15842 71.000
33.17837 64.000
33.19832 63.000
33.21826 69.000
33.23821 61.000
33.25816 51.000
33.27810 67.000
33.29805 71.000
33.31800 58.000
33.33795 54.000
33.35789 55.000
33.37784 74.000
33.39779 59.000
33.41773 56.000
33.43768 58.000
33.45763 63.000
33.47757 67.000
33.49752 66.000
33.51747 41.000
33.53741 80.000
33.55736 59.000
33.57731 49.000
33.59726 68.000
33.61720 60.000
33.63715 63.000
33.65710 51.000
33.67704 62.000
33.69699 53.000
33.71694 52.000
33.73688 63.000
33.75683 60.000
33.77678 50.000
33.79673 61.000
33.81667 56.000
33.83662 74.000
33.85657 64.000
33.87651 65.000
33.89646 68.000
33.91641 47.000
33.93635 66.000
33.95630 53.000
33.97625 69.000
33.99620 60.000
34.01614 65.000
34.03609 68.000
34.05604 60.000
34.07598 75.000
34.09593 78.000
34.11588 71.000
34.13582 87.000
34.15577 99.000
34.17572 93.000
34.19566 85.000
34.21561 93.000
34.23556 81.000
34.25551 85.000
34.27545 72.000
34.29540 82.000
34.31535 77.000
34.33529 84.000
34.35524 62.000
34.37519 67.000
34.39513 89.000
34.41508 74.000
34.43503 63.000
34.45498 80.000
34.47492 86.000
34.49487 78.000
34.51482 88.000
34.53476 87.000
34.55471 65.000
34.57466 82.000
34.59460 82.000
34.61455 88.000
34.63450 73.000
34.65444 69.000
34.67439 94.000
34.69434 80.000
34.71429 87.000
34.73423 74.000
34.75418 65.000
34.77413 59.000
34.79407 85.000
34.81402 69.000
34.83397 81.000
34.85391 67.000
34.87386 83.000
34.89381 77.000
34.91376 69.000
34.93370 68.000
34.95365 62.000
34.97360 55.000
34.99354 52.000
35.01349 67.000
35.03344 76.000
35.05338 67.000
35.07333 62.000
35.09328 79.000
35.11322 49.000
35.13317 67.000
35.15312 94.000
35.17307 100.000
35.19301 97.000
35.21296 90.000
35.23291 96.000
35.25285 83.000
35.27280 78.000
35.29275 87.000
35.31269 91.000
35.33264 86.000
35.35259 96.000
35.37254 91.000
35.39248 102.000
35.41243 110.000
35.43238 94.000
35.45232 115.000
35.47227 119.000
35.49222 140.000
35.51216 138.000
35.53211 136.000
35.55206 157.000
35.57201 184.000
35.59195 225.000
35.61190 258.000
35.63185 259.000
35.65179 259.000
35.67174 243.000
35.69169 270.000
35.71163 374.000
35.73158 396.000
35.75153 637.000
35.77147 848.000
35.79142 1153.000
35.81137 1206.000
35.83132 1213.000
35.85126 1030.000
35.87121 885.000
35.89116 846.000
35.91110 769.000
35.93105 597.000
35.95100 422.000
35.97094 294.000
35.99089 262.000
36.01084 180.000
36.03079 158.000
36.05073 138.000
36.07068 100.000
36.09063 90.000
36.11057 97.000
36.13052 93.000
36.15047 87.000
36.17041 75.000
36.19036 96.000
36.21031 84.000
36.23025 77.000
36.25020 71.000
36.27015 75.000
36.29010 71.000
36.31004 82.000
36.32999 73.000
36.34994 76.000
36.36988 72.000
36.38983 74.000
36.40978 66.000
36.42972 64.000
36.44967 70.000
36.46962 68.000
36.48957 72.000
36.50951 72.000
36.52946 63.000
36.54941 60.000
36.56935 78.000
36.58930 76.000
36.60925 90.000
36.62919 90.000
36.64914 111.000
36.66909 111.000
36.68903 191.000
36.70898 162.000
36.72893 172.000
36.74888 176.000
36.76882 159.000
36.78877 158.000
36.80872 137.000
36.82866 128.000
36.84861 102.000
36.86856 107.000
36.88850 91.000
36.90845 76.000
36.92840 81.000
36.94835 69.000
36.96829 78.000
36.98824 79.000
37.00819 77.000
37.02813 79.000
37.04808 78.000
37.06803 79.000
37.08797 72.000
37.10792 85.000
37.12787 77.000
37.14781 76.000
37.16776 72.000
37.18771 65.000
37.20766 86.000
37.22760 82.000
37.24755 78.000
37.26750 80.000
37.28744 85.000
37.30739 72.000
37.32734 92.000
37.34728 76.000
37.36723 73.000
37.38718 65.000
37.40713 58.000
37.42707 75.000
37.44702 62.000
37.46697 72.000
37.48691 73.000
37.50686 72.000
37.52681 55.000
37.54675 68.000
37.56670 71.000
37.58665 55.000
37.60660 77.000
37.62654 66.000
37.64649 65.000
37.66644 73.000
37.68638 76.000
37.70633 71.000
37.72628 79.000
37.74622 78.000
37.76617 85.000
37.78612 61.000
37.80606 76.000
37.82601 66.000
37.84596 64.000
37.86591 86.000
37.88585 59.000
37.90580 83.000
37.92575 80.000
37.94569 83.000
37.96564 84.000
37.98559 80.000
38.00553 83.000
38.02548 83.000
38.04543 74.000
38.06538 69.000
38.08532 75.000
38.10527 83.000
38.12522 66.000
38.14516 61.000
38.16511 76.000
38.18506 77.000
38.20500 60.000
38.22495 80.000
38.24490 65.000
38.26484 61.000
38.28479 75.000
38.30474 64.000
38.32469 62.000
38.34463 62.000
38.36458 74.000
38.38453 81.000
38.40447 83.000
38.42442 75.000
38.44437 90.000
38.46431 80.000
38.48426 68.000
38.50421 92.000
38.52416 80.000
38.54410 91.000
38.56405 101.000
38.58400 100.000
38.60394 110.000
38.62389 83.000
38.64384 61.000
38.66378 74.000
38.68373 75.000
38.70368 102.000
38.72362 94.000
38.74357 100.000
38.76352 100.000
38.78347 86.000
38.80341 101.000
38.82336 94.000
38.84331 97.000
38.86325 96.000
38.88320 93.000
38.90315 99.000
38.92309 116.000
38.94304 122.000
38.96299 87.000
38.98294 120.000
39.00288 111.000
39.02283 139.000
39.04278 143.000
39.06272 168.000
39.08267 165.000
39.10262 185.000
39.12256 213.000
39.14251 234.000
39.16246 294.000
39.18241 323.000
39.20235 406.000
39.22230 541.000
39.24225 736.000
39.26219 1029.000
39.28214 1422.000
39.30209 1839.000
39.32203 2140.000
39.34198 2187.000
39.36193 1891.000
39.38187 1770.000
39.40182 1581.000
39.42177 1514.000
39.44172 1329.000
39.46166 1098.000
39.48161 838.000
39.50156 645.000
39.52150 447.000
39.54145 359.000
39.56140 317.000
39.58134 233.000
39.60129 192.000
39.62124 188.000
39.64119 165.000
39.66113 147.000
39.68108 124.000
39.70103 121.000
39.72097 123.000
39.74092 100.000
39.76087 94.000
39.78081 107.000
39.80076 88.000
39.82071 111.000
39.84065 87.000
39.86060 110.000
39.88055 91.000
39.90050 100.000
39.92044 95.000
39.94039 84.000
39.96034 74.000
39.98028 80.000
40.00023 61.000
40.02018 79.000
40.04012 85.000
40.06007 65.000
40.08002 71.000
40.09997 75.000
40.11991 68.000
40.13986 81.000
40.15981 91.000
40.17975 80.000
40.19970 79.000
40.21965 69.000
40.23959 67.000
40.25954 80.000
40.27949 64.000
40.29943 55.000
40.31938 53.000
40.33933 55.000
40.35928 78.000
40.37922 62.000
40.39917 49.000
40.41912 74.000
40.43906 61.000
40.45901 77.000
40.47896 64.000
40.49890 55.000
40.51885 74.000
40.53880 69.000
40.55875 72.000
40.57869 64.000
40.59864 57.000
40.61859 51.000
40.63853 56.000
40.65848 69.000
40.67843 67.000
40.69837 62.000
40.71832 56.000
40.73827 59.000
40.75822 56.000
40.77816 65.000
40.79811 60.000
40.81806 52.000
40.83800 56.000
40.85795 69.000
40.87790 74.000
40.89784 60.000
40.91779 54.000
40.93774 66.000
40.95768 67.000
40.97763 78.000
40.99758 70.000
41.01753 69.000
41.03747 68.000
41.05742 78.000
41.07737 66.000
41.09731 76.000
41.11726 68.000
41.13721 68.000
41.15715 74.000
41.17710 73.000
41.19705 60.000
41.21700 47.000
41.23694 56.000
41.25689 95.000
41.27684 72.000
41.29678 64.000
41.31673 74.000
41.33668 66.000
41.35662 58.000
41.37657 72.000
41.39652 74.000
41.41646 78.000
41.43641 55.000
41.45636 82.000
41.47631 69.000
41.49625 81.000
41.51620 78.000
41.53615 63.000
41.55609 73.000
41.57604 83.000
41.59599 70.000
41.61593 59.000
41.63588 62.000
41.65583 74.000
41.67578 58.000
41.69572 51.000
41.71567 59.000
41.73562 60.000
41.75556 57.000
41.77551 54.000
41.79546 72.000
41.81540 44.000
41.83535 52.000
41.85530 55.000
41.87524 55.000
41.89519 46.000
41.91514 59.000
41.93509 51.000
41.95503 54.000
41.97498 61.000
41.99493 60.000
42.01487 70.000
42.03482 56.000
42.05477 52.000
42.07471 57.000
42.09466 59.000
42.11461 56.000
42.13456 50.000
42.15450 48.000
42.17445 44.000
42.19440 52.000
42.21434 59.000
42.23429 74.000
42.25424 55.000
42.27418 54.000
42.29413 71.000
42.31408 50.000
42.33403 65.000
42.35397 61.000
42.37392 63.000
42.39387 59.000
42.41381 49.000
42.43376 60.000
42.45371 61.000
42.47365 58.000
42.49360 44.000
42.51355 77.000
42.53349 63.000
42.55344 65.000
42.57339 76.000
42.59334 63.000
42.61328 71.000
42.63323 70.000
42.65318 77.000
42.67312 62.000
42.69307 59.000
42.71302 66.000
42.73296 63.000
42.75291 71.000
42.77286 67.000
42.79281 76.000
42.81275 69.000
42.83270 71.000
42.85265 63.000
42.87259 75.000
42.89254 78.000
42.91249 80.000
42.93243 72.000
42.95238 63.000
42.97233 75.000
42.99227 71.000
43.01222 70.000
43.03217 81.000
43.05212 86.000
43.07206 114.000
43.09201 74.000
43.11196 109.000
43.13190 106.000
43.15185 114.000
43.17180 140.000
43.19174 165.000
43.21169 203.000
43.23164 189.000
43.25159 214.000
43.27153 247.000
43.29148 311.000
43.31143 414.000
43.33137 568.000
43.35132 715.000
43.37127 797.000
43.39121 838.000
43.41116 772.000
43.43111 736.000
43.45105 634.000
43.47100 660.000
43.49095 591.000
43.51090 542.000
43.53084 473.000
43.55079 342.000
43.57074 287.000
43.59068 228.000
43.61063 171.000
43.63058 143.000
43.65052 119.000
43.67047 125.000
43.69042 100.000
43.71037 110.000
43.73031 94.000
43.75026 85.000
43.77021 70.000
43.79015 98.000
43.81010 67.000
43.83005 84.000
43.84999 80.000
43.86994 76.000
43.88989 78.000
43.90984 67.000
43.92978 60.000
43.94973 68.000
43.96968 63.000
43.98962 67.000
44.00957 55.000
44.02952 60.000
44.04946 53.000
44.06941 57.000
44.08936 70.000
44.10930 74.000
44.12925 51.000
44.14920 71.000
44.16915 75.000
44.18909 59.000
44.20904 54.000
44.22899 68.000
44.24893 62.000
44.26888 60.000
44.28883 57.000
44.30877 79.000
44.32872 57.000
44.34867 67.000
44.36862 48.000
44.38856 65.000
44.40851 62.000
44.42846 62.000
44.44840 59.000
44.46835 62.000
44.48830 49.000
44.50824 58.000
44.52819 53.000
44.54814 64.000
44.56808 64.000
44.58803 65.000
44.60798 56.000
44.62793 75.000
44.64787 53.000
44.66782 60.000
44.68777 49.000
44.70771 52.000
44.72766 54.000
44.74761 52.000
44.76755 49.000
44.78750 61.000
44.80745 60.000
44.82740 56.000
44.84734 46.000
44.86729 69.000
44.88724 56.000
44.90718 55.000
44.92713 61.000
44.94708 41.000
44.96702 52.000
44.98697 55.000
45.00692 65.000
45.02686 54.000
45.04681 60.000
45.06676 60.000
45.08671 58.000
45.10665 53.000
45.12660 70.000
45.14655 48.000
45.16649 58.000
45.18644 58.000
45.20639 62.000
45.22633 47.000
45.24628 51.000
45.26623 46.000
45.28618 67.000
45.30612 46.000
45.32607 56.000
45.34602 67.000
45.36596 64.000
45.38591 45.000
45.40586 57.000
45.42580 66.000
45.44575 49.000
45.46570 47.000
45.48565 57.000
45.50559 59.000
45.52554 67.000
45.54549 55.000
45.56543 59.000
45.58538 61.000
45.60533 67.000
45.62527 47.000
45.64522 57.000
45.66517 49.000
45.68511 59.000
45.70506 59.000
45.72501 57.000
45.74496 49.000
45.76490 63.000
45.78485 57.000
45.80480 48.000
45.82474 55.000
45.84469 57.000
45.86464 53.000
45.88458 71.000
45.90453 70.000
45.92448 50.000
45.94443 51.000
45.96437 59.000
45.98432 48.000
46.00427 51.000
46.02421 60.000
46.04416 51.000
46.06411 59.000
46.08405 47.000
46.10400 55.000
46.12395 57.000
46.14389 64.000
46.16384 59.000
46.18379 76.000
46.20374 66.000
46.22368 60.000
46.24363 53.000
46.26358 55.000
46.28352 53.000
46.30347 58.000
46.32342 57.000
46.34336 71.000
46.36331 59.000
46.38326 52.000
46.40321 65.000
46.42315 61.000
46.44310 64.000
46.46305 79.000
46.48299 57.000
46.50294 68.000
46.52289 83.000
46.54283 75.000
46.56278 64.000
46.58273 66.000
46.60267 65.000
46.62262 52.000
46.64257 63.000
46.66252 65.000
46.68246 56.000
46.70241 67.000
46.72236 50.000
46.74230 69.000
46.76225 57.000
46.78220 60.000
46.80214 71.000
46.82209 57.000
46.84204 55.000
46.86199 56.000
46.88193 64.000
46.90188 76.000
46.92183 70.000
46.94177 61.000
46.96172 63.000
46.98167 63.000
47.00161 60.000
47.02156 67.000
47.04151 73.000
47.06146 60.000
47.08140 51.000
47.10135 53.000
47.12130 62.000
47.14124 56.000
47.16119 60.000
47.18114 57.000
47.20108 52.000
47.22103 63.000
47.24098 64.000
47.26092 51.000
47.28087 69.000
47.30082 70.000
47.32077 64.000
47.34071 61.000
47.36066 55.000
47.38061 56.000
47.40055 59.000
47.42050 61.000
47.44045 55.000
47.46039 64.000
47.48034 54.000
47.50029 69.000
47.52024 68.000
47.54018 60.000
47.56013 73.000
47.58008 60.000
47.60002 69.000
47.61997 68.000
47.63992 63.000
47.65986 79.000
47.67981 59.000
47.69976 45.000
47.71970 69.000
47.73965 77.000
47.75960 78.000
47.77955 74.000
47.79949 76.000
47.81944 85.000
47.83939 56.000
47.85933 69.000
47.87928 66.000
47.89923 98.000
47.91917 95.000
47.93912 73.000
47.95907 69.000
47.97902 93.000
47.99896 96.000
48.01891 97.000
48.03886 75.000
48.05880 87.000
48.07875 103.000
48.09870 90.000
48.11864 117.000
48.13859 115.000
48.15854 124.000
48.17848 115.000
48.19843 126.000
48.21838 112.000
48.23833 119.000
48.25827 134.000
48.27822 161.000
48.29817 168.000
48.31811 171.000
48.33806 179.000
48.35801 217.000
48.37795 252.000
48.39790 268.000
48.41785 317.000
48.43780 328.000
48.45774 409.000
48.47769 510.000
48.49764 636.000
48.51758 763.000
48.53753 1073.000
48.55748 1233.000
48.57742 1484.000
48.59737 1690.000
48.61732 1731.000
48.63726 1606.000
48.65721 1452.000
48.67716 1439.000
48.69711 1345.000
48.71705 1228.000
48.73700 1176.000
48.75695 1061.000
48.77689 906.000
48.79684 711.000
48.81679 553.000
48.83673 482.000
48.85668 397.000
48.87663 316.000
48.89658 262.000
48.91652 233.000
48.93647 216.000
48.95642 181.000
48.97636 146.000
48.99631 154.000
49.01626 147.000
49.03620 104.000
49.05615 104.000
49.07610 118.000
49.09605 106.000
49.11599 97.000
49.13594 104.000
49.15589 93.000
49.17583 80.000
49.19578 87.000
49.21573 96.000
49.23567 94.000
49.25562 89.000
49.27557 84.000
49.29551 82.000
49.31546 89.000
49.33541 87.000
49.35536 86.000
49.37530 68.000
49.39525 78.000
49.41520 82.000
49.43514 86.000
49.45509 67.000
49.47504 74.000
49.49498 64.000
49.51493 61.000
49.53488 61.000
49.55483 79.000
49.57477 61.000
49.59472 66.000
49.61467 81.000
49.63461 57.000
49.65456 64.000
49.67451 52.000
49.69445 80.000
49.71440 65.000
49.73435 55.000
49.75429 61.000
49.77424 64.000
49.79419 66.000
49.81414 64.000
49.83408 55.000
49.85403 64.000
49.87398 47.000
49.89392 65.000
49.91387 58.000
49.93382 52.000
49.95376 62.000
49.97371 78.000
49.99366 58.000
50.01361 62.000
50.03355 64.000
50.05350 67.000
50.07345 54.000
50.09339 58.000
50.11334 58.000
50.13329 59.000
50.15323 53.000
50.17318 61.000
50.19313 58.000
50.21307 68.000
50.23302 59.000
50.25297 60.000
50.27292 65.000
50.29286 66.000
50.31281 51.000
50.33276 58.000
50.35270 48.000
50.37265 44.000
50.39260 57.000
50.41254 61.000
50.43249 47.000
50.45244 65.000
50.47239 54.000
50.49233 54.000
50.51228 61.000
50.53223 57.000
50.55217 47.000
50.57212 61.000
50.59207 63.000
50.61201 52.000
50.63196 55.000
50.65191 52.000
50.67186 51.000
50.69180 70.000
50.71175 51.000
50.73170 56.000
50.75164 53.000
50.77159 48.000
50.79154 64.000
50.81148 68.000
50.83143 60.000
50.85138 60.000
50.87132 67.000
50.89127 64.000
50.91122 60.000
50.93117 46.000
50.95111 44.000
50.97106 42.000
50.99101 49.000
51.01095 62.000
51.03090 46.000
51.05085 54.000
51.07079 53.000
51.09074 62.000
51.11069 64.000
51.13064 55.000
51.15058 54.000
51.17053 41.000
51.19048 51.000
51.21042 48.000
51.23037 55.000
51.25032 53.000
51.27026 45.000
51.29021 51.000
51.31016 52.000
51.33010 55.000
51.35005 70.000
51.37000 44.000
51.38995 68.000
51.40989 49.000
51.42984 44.000
51.44979 44.000
51.46973 48.000
51.48968 50.000
51.50963 44.000
51.52957 45.000
51.54952 51.000
51.56947 61.000
51.58942 58.000
51.60936 54.000
51.62931 55.000
51.64926 50.000
51.66920 45.000
51.68915 52.000
51.70910 45.000
51.72904 51.000
51.74899 61.000
51.76894 46.000
51.78888 45.000
51.80883 42.000
51.82878 46.000
51.84873 46.000
51.86867 52.000
51.88862 55.000
51.90857 56.000
51.92851 45.000
51.94846 49.000
51.96841 60.000
51.98835 50.000
52.00830 45.000
52.02825 48.000
52.04820 35.000
52.06814 59.000
52.08809 48.000
52.10804 50.000
52.12798 49.000
52.14793 79.000
52.16788 63.000
52.18782 47.000
52.20777 48.000
52.22772 54.000
52.24767 55.000
52.26761 55.000
52.28756 48.000
52.30751 45.000
52.32745 48.000
52.34740 44.000
52.36735 55.000
52.38729 59.000
52.40724 40.000
52.42719 49.000
52.44713 38.000
52.46708 48.000
52.48703 42.000
52.50698 48.000
52.52692 61.000
52.54687 40.000
52.56682 54.000
52.58676 61.000
52.60671 57.000
52.62666 41.000
52.64660 64.000
52.66655 51.000
52.68650 47.000
52.70645 44.000
52.72639 38.000
52.74634 50.000
52.76629 52.000
52.78623 50.000
52.80618 63.000
52.82613 45.000
52.84607 52.000
52.86602 38.000
52.88597 48.000
52.90591 43.000
52.92586 57.000
52.94581 47.000
52.96576 61.000
52.98570 56.000
53.00565 53.000
53.02560 54.000
53.04554 52.000
53.06549 49.000
53.08544 47.000
53.10538 51.000
53.12533 39.000
53.14528 41.000
53.16523 52.000
53.18517 60.000
53.20512 48.000
53.22507 45.000
53.24501 66.000
53.26496 56.000
53.28491 51.000
53.30485 49.000
53.32480 46.000
53.34475 46.000
53.36469 58.000
53.38464 59.000
53.40459 52.000
53.42454 45.000
53.44448 52.000
53.46443 50.000
53.48438 45.000
53.50432 65.000
53.52427 42.000
53.54422 46.000
53.56416 65.000
53.58411 57.000
53.60406 60.000
53.62401 59.000
53.64395 63.000
53.66390 57.000
53.68385 62.000
53.70379 56.000
53.72374 45.000
53.74369 63.000
53.76363 62.000
53.78358 47.000
53.80353 62.000
53.82348 40.000
53.84342 51.000
53.86337 55.000
53.88332 56.000
53.90326 53.000
53.92321 55.000
53.94316 49.000
53.96310 53.000
53.98305 46.000
54.00300 47.000
54.02294 49.000
54.04289 41.000
54.06284 38.000
54.08279 47.000
54.10273 33.000
54.12268 44.000
54.14263 55.000
54.16257 47.000
54.18252 54.000
54.20247 53.000
54.22241 40.000
54.24236 57.000
54.26231 38.000
54.28226 55.000
54.30220 39.000
54.32215 42.000
54.34210 50.000
54.36204 49.000
54.38199 47.000
54.40194 52.000
54.42188 62.000
54.44183 56.000
54.46178 51.000
54.48172 57.000
54.50167 57.000
54.52162 46.000
54.54157 56.000
54.56151 45.000
54.58146 46.000
54.60141 61.000
54.62135 44.000
54.64130 64.000
54.66125 54.000
54.68119 59.000
54.70114 47.000
54.72109 44.000
54.74104 58.000
54.76098 53.000
54.78093 49.000
54.80088 56.000
54.82082 56.000
54.84077 39.000
54.86072 43.000
54.88066 49.000
54.90061 41.000
54.92056 63.000
54.94050 51.000
54.96045 44.000
54.98040 43.000
55.00035 58.000
55.02029 46.000
55.04024 37.000
55.06019 51.000
55.08013 48.000
55.10008 56.000
55.12003 57.000
55.13997 44.000
55.15992 60.000
55.17987 41.000
55.19982 48.000
55.21976 51.000
55.23971 33.000
55.25966 46.000
55.27960 47.000
55.29955 40.000
55.31950 56.000
55.33944 55.000
55.35939 45.000
55.37934 60.000
55.39929 54.000
55.41923 59.000
55.43918 59.000
55.45913 57.000
55.47907 47.000
55.49902 54.000
55.51897 54.000
55.53891 51.000
55.55886 42.000
55.57881 42.000
55.59875 46.000
55.61870 57.000
55.63865 59.000
55.65860 59.000
55.67854 47.000
55.69849 62.000
55.71844 46.000
55.73838 44.000
55.75833 45.000
55.77828 45.000
55.79822 41.000
55.81817 55.000
55.83812 35.000
55.85807 40.000
55.87801 52.000
55.89796 49.000
55.91791 57.000
55.93785 52.000
55.95780 50.000
55.97775 44.000
55.99769 56.000
56.01764 55.000
56.03759 50.000
56.05753 47.000
56.07748 53.000
56.09743 54.000
56.11738 57.000
56.13732 41.000
56.15727 32.000
56.17722 53.000
56.19716 48.000
56.21711 39.000
56.23706 54.000
56.25700 45.000
56.27695 40.000
56.29690 49.000
56.31685 54.000
56.33679 46.000
56.35674 49.000
56.37669 44.000
56.39663 45.000
56.41658 49.000
56.43653 46.000
56.45647 47.000
56.47642 39.000
56.49637 44.000
56.51631 50.000
56.53626 46.000
56.55621 45.000
56.57616 37.000
56.59610 49.000
56.61605 60.000
56.63600 47.000
56.65594 40.000
56.67589 61.000
56.69584 51.000
56.71578 40.000
56.73573 44.000
56.75568 59.000
56.77563 50.000
56.79557 53.000
56.81552 53.000
56.83547 57.000
56.85541 42.000
56.87536 48.000
56.89531 45.000
56.91525 59.000
56.93520 53.000
56.95515 57.000
56.97510 67.000
56.99504 52.000
57.01499 54.000
57.03494 86.000
57.05488 57.000
57.07483 62.000
57.09478 58.000
57.11472 39.000
57.13467 57.000
57.15462 73.000
57.17456 64.000
57.19451 62.000
57.21446 70.000
57.23441 79.000
57.25435 71.000
57.27430 92.000
57.29425 80.000
57.31419 73.000
57.33414 65.000
57.35409 62.000
57.37403 66.000
57.39398 72.000
57.41393 61.000
57.43388 68.000
57.45382 64.000
57.47377 66.000
57.49372 61.000
57.51366 58.000
57.53361 52.000
57.55356 58.000
57.57350 58.000
57.59345 40.000
57.61340 53.000
57.63334 54.000
57.65329 50.000
57.67324 44.000
57.69319 57.000
57.71313 47.000
57.73308 55.000
57.75303 52.000
57.77297 35.000
57.79292 42.000
57.81287 47.000
57.83281 44.000
57.85276 52.000
57.87271 46.000
57.89266 50.000
57.91260 48.000
57.93255 50.000
57.95250 53.000
57.97244 58.000
57.99239 48.000
58.01234 47.000
58.03228 47.000
58.05223 45.000
58.07218 35.000
58.09212 47.000
58.11207 51.000
58.13202 44.000
58.15197 62.000
58.17191 51.000
58.19186 63.000
58.21181 50.000
58.23175 43.000
58.25170 43.000
58.27165 61.000
58.29159 52.000
58.31154 46.000
58.33149 52.000
58.35144 38.000
58.37138 52.000
58.39133 51.000
58.41128 54.000
58.43122 64.000
58.45117 55.000
58.47112 46.000
58.49106 51.000
58.51101 62.000
58.53096 47.000
58.55090 37.000
58.57085 41.000
58.59080 55.000
58.61075 46.000
58.63069 31.000
58.65064 47.000
58.67059 49.000
58.69053 61.000
58.71048 59.000
58.73043 53.000
58.75037 51.000
58.77032 56.000
58.79027 54.000
58.81022 55.000
58.83016 52.000
58.85011 51.000
58.87006 39.000
58.89000 56.000
58.90995 53.000
58.92990 66.000
58.94984 71.000
58.96979 45.000
58.98974 49.000
59.00969 50.000
59.02963 37.000
59.04958 58.000
59.06953 70.000
59.08947 65.000
59.10942 40.000
59.12937 59.000
59.14931 57.000
59.16926 46.000
59.18921 46.000
59.20915 55.000
59.22910 46.000
59.24905 56.000
59.26900 48.000
59.28894 57.000
59.30889 66.000
59.32884 49.000
59.34878 38.000
59.36873 46.000
59.38868 53.000
59.40862 48.000
59.42857 57.000
59.44852 45.000
59.46847 53.000
59.48841 58.000
59.50836 63.000
59.52831 45.000
59.54825 69.000
59.56820 40.000
59.58815 39.000
59.60809 61.000
59.62804 43.000
59.64799 52.000
59.66793 61.000
59.68788 50.000
59.70783 52.000
59.72778 53.000
59.74772 45.000
59.76767 42.000
59.78762 50.000
59.80756 60.000
59.82751 57.000
59.84746 50.000
59.86740 53.000
59.88735 38.000
59.90730 52.000
59.92725 52.000
59.94719 50.000
59.96714 51.000
59.98709 61.000
60.00703 55.000
60.02698 47.000
60.04693 42.000
60.06687 60.000
60.08682 46.000
60.10677 65.000
60.12671 49.000
60.14666 50.000
60.16661 77.000
60.18656 56.000
60.20650 49.000
60.22645 56.000
60.24640 57.000
60.26634 54.000
60.28629 57.000
60.30624 46.000
60.32618 53.000
60.34613 57.000
60.36608 52.000
60.38603 50.000
60.40597 55.000
60.42592 55.000
60.44587 43.000
60.46581 50.000
60.48576 54.000
60.50571 46.000
60.52565 62.000
60.54560 43.000
60.56555 53.000
60.58550 50.000
60.60544 57.000
60.62539 65.000
60.64534 58.000
60.66528 37.000
60.68523 72.000
60.70518 56.000
60.72512 56.000
60.74507 50.000
60.76502 57.000
60.78496 44.000
60.80491 56.000
60.82486 60.000
60.84481 50.000
60.86475 56.000
60.88470 54.000
60.90465 57.000
60.92459 47.000
60.94454 58.000
60.96449 62.000
60.98443 53.000
61.00438 62.000
61.02433 70.000
61.04428 59.000
61.06422 63.000
61.08417 75.000
61.10412 62.000
61.12406 64.000
61.14401 70.000
61.16396 79.000
61.18390 79.000
61.20385 70.000
61.22380 78.000
61.24374 75.000
61.26369 82.000
61.28364 97.000
61.30359 83.000
61.32353 104.000
61.34348 104.000
61.36343 110.000
61.38337 97.000
61.40332 111.000
61.42327 152.000
61.44321 123.000
61.46316 150.000
61.48311 164.000
61.50306 157.000
61.52300 204.000
61.54295 215.000
61.56290 274.000
61.58284 274.000
61.60279 358.000
61.62274 431.000
61.64268 446.000
61.66263 509.000
61.68258 567.000
61.70252 603.000
61.72247 614.000
61.74242 609.000
61.76237 622.000
61.78231 564.000
61.80226 525.000
61.82221 502.000
61.84215 487.000
61.86210 495.000
61.88205 435.000
61.90199 427.000
61.92194 366.000
61.94189 293.000
61.96184 314.000
61.98178 261.000
62.00173 230.000
62.02168 202.000
62.04162 189.000
62.06157 149.000
62.08152 162.000
62.10146 125.000
62.12141 136.000
62.14136 122.000
62.16131 89.000
62.18125 90.000
62.20120 89.000
62.22115 90.000
62.24109 104.000
62.26104 75.000
62.28099 84.000
62.30093 97.000
62.32088 75.000
62.34083 87.000
62.36077 78.000
62.38072 66.000
62.40067 72.000
62.42062 60.000
62.44056 78.000
62.46051 73.000
62.48046 73.000
62.50040 74.000
62.52035 75.000
62.54030 66.000
62.56024 73.000
62.58019 71.000
62.60014 60.000
62.62009 58.000
62.64003 75.000
62.65998 71.000
62.67993 79.000
62.69987 71.000
62.71982 81.000
62.73977 85.000
62.75971 84.000
62.77966 76.000
62.79961 74.000
62.81955 82.000
62.83950 71.000
62.85945 86.000
62.87940 86.000
62.89934 96.000
62.91929 102.000
62.93924 90.000
62.95918 92.000
62.97913 92.000
62.99908 95.000
63.01902 71.000
63.03897 80.000
63.05892 82.000
63.07887 81.000
63.09881 66.000
63.11876 75.000
63.13871 78.000
63.15865 76.000
63.17860 68.000
63.19855 65.000
63.21849 38.000
63.23844 73.000
63.25839 55.000
63.27833 63.000
63.29828 69.000
63.31823 46.000
63.33818 75.000
63.35812 60.000
63.37807 60.000
63.39802 46.000
63.41796 50.000
63.43791 70.000
63.45786 69.000
63.47780 57.000
63.49775 60.000
63.51770 63.000
63.53765 46.000
63.55759 51.000
63.57754 59.000
63.59749 57.000
63.61743 46.000
63.63738 57.000
63.65733 58.000
63.67727 63.000
63.69722 53.000
63.71717 73.000
63.73712 62.000
63.75706 59.000
63.77701 68.000
63.79696 68.000
63.81690 68.000
63.83685 65.000
63.85680 62.000
63.87674 54.000
63.89669 74.000
63.91664 63.000
63.93658 60.000
63.95653 58.000
63.97648 66.000
63.99643 80.000
64.01637 69.000
64.03632 72.000
64.05627 63.000
64.07621 82.000
64.09616 90.000
64.11611 93.000
64.13605 104.000
64.15600 106.000
64.17595 115.000
64.19590 123.000
64.21584 135.000
64.23579 150.000
64.25574 183.000
64.27568 256.000
64.29563 318.000
64.31558 429.000
64.33552 463.000
64.35547 571.000
64.37542 598.000
64.39536 571.000
64.41531 486.000
64.43526 498.000
64.45521 440.000
64.47515 432.000
64.49510 417.000
64.51505 398.000
64.53499 409.000
64.55494 412.000
64.57489 397.000
64.59483 380.000
64.61478 293.000
64.63473 264.000
64.65468 226.000
64.67462 167.000
64.69457 182.000
64.71452 150.000
64.73446 106.000
64.75441 119.000
64.77436 124.000
64.79430 89.000
64.81425 80.000
64.83420 110.000
64.85414 85.000
64.87409 65.000
64.89404 69.000
64.91399 60.000
64.93393 66.000
64.95388 68.000
64.97383 66.000
64.99377 54.000
65.01372 66.000
65.03367 69.000
65.05361 63.000
65.07356 64.000
65.09351 72.000
65.11346 57.000
65.13340 62.000
65.15335 57.000
65.17330 60.000
65.19324 59.000
65.21319 73.000
65.23314 60.000
65.25308 62.000
65.27303 39.000
65.29298 52.000
65.31293 55.000
65.33287 43.000
65.35282 52.000
65.37277 60.000
65.39271 57.000
65.41266 61.000
65.43261 46.000
65.45255 66.000
65.47250 60.000
65.49245 79.000
65.51239 71.000
65.53234 46.000
65.55229 56.000
65.57224 65.000
65.59218 69.000
65.61213 53.000
65.63208 50.000
65.65202 44.000
65.67197 57.000
65.69192 59.000
65.71186 57.000
65.73181 57.000
65.75176 61.000
65.77171 64.000
65.79165 59.000
65.81160 76.000
65.83155 71.000
65.85149 62.000
65.87144 63.000
65.89139 64.000
65.91133 55.000
65.93128 47.000
65.95123 72.000
65.97117 60.000
65.99112 60.000
66.01107 70.000
66.03102 74.000
66.05096 68.000
66.07091 70.000
66.09086 67.000
66.11080 83.000
66.13075 74.000
66.15070 85.000
66.17064 100.000
66.19059 92.000
66.21054 105.000
66.23049 95.000
66.25043 108.000
66.27038 101.000
66.29033 96.000
66.31027 135.000
66.33022 129.000
66.35017 145.000
66.37011 138.000
66.39006 145.000
66.41001 143.000
66.42995 128.000
66.44990 132.000
66.46985 135.000
66.48980 134.000
66.50974 159.000
66.52969 138.000
66.54964 144.000
66.56958 152.000
66.58953 160.000
66.60948 206.000
66.62942 230.000
66.64937 259.000
66.66932 301.000
66.68927 375.000
66.70921 427.000
66.72916 482.000
66.74911 404.000
66.76905 428.000
66.78900 369.000
66.80895 366.000
66.82889 302.000
66.84884 269.000
66.86879 311.000
66.88874 283.000
66.90868 264.000
66.92863 285.000
66.94858 291.000
66.96852 238.000
66.98847 191.000
67.00842 199.000
67.02836 151.000
67.04831 136.000
67.06826 129.000
67.08820 99.000
67.10815 89.000
67.12810 84.000
67.14805 102.000
67.16799 78.000
67.18794 77.000
67.20789 77.000
67.22783 64.000
67.24778 72.000
67.26773 72.000
67.28767 60.000
67.30762 71.000
67.32757 54.000
67.34752 71.000
67.36746 58.000
67.38741 60.000
67.40736 53.000
67.42730 63.000
67.44725 68.000
67.46720 52.000
67.48714 45.000
67.50709 48.000
67.52704 54.000
67.54698 56.000
67.56693 43.000
67.58688 45.000
67.60683 68.000
67.62677 52.000
67.64672 57.000
67.66667 49.000
67.68661 66.000
67.70656 56.000
67.72651 52.000
67.74645 41.000
67.76640 55.000
67.78635 60.000
67.80630 57.000
67.82624 50.000
67.84619 59.000
67.86614 53.000
67.88608 53.000
67.90603 45.000
67.92598 40.000
67.94592 50.000
67.96587 57.000
67.98582 60.000
68.00576 55.000
68.02571 51.000
68.04566 43.000
68.06561 46.000
68.08555 41.000
68.10550 53.000
68.12545 50.000
68.14539 39.000
68.16534 54.000
68.18529 55.000
68.20523 51.000
68.22518 50.000
68.24513 50.000
68.26508 62.000
68.28502 57.000
68.30497 50.000
68.32492 45.000
68.34486 47.000
68.36481 61.000
68.38476 43.000
68.40470 52.000
68.42465 59.000
68.44460 46.000
68.46455 51.000
68.48449 44.000
68.50444 47.000
68.52439 46.000
68.54433 45.000
68.56428 44.000
68.58423 44.000
68.60417 56.000
68.62412 54.000
68.64407 58.000
68.66401 50.000
68.68396 60.000
68.70391 47.000
68.72386 47.000
68.74380 39.000
68.76375 52.000
68.78370 46.000
68.80364 54.000
68.82359 42.000
68.84354 42.000
68.86348 56.000
68.88343 33.000
68.90338 58.000
68.92333 44.000
68.94327 57.000
68.96322 50.000
68.98317 42.000
69.00311 56.000
69.02306 57.000
69.04301 45.000
69.06295 39.000
69.08290 46.000
69.10285 57.000
69.12279 49.000
69.14274 46.000
69.16269 35.000
69.18264 44.000
69.20258 41.000
69.22253 54.000
69.24248 62.000
69.26242 66.000
69.28237 48.000
69.30232 55.000
69.32226 60.000
69.34221 52.000
69.36216 57.000
69.38211 75.000
69.40205 66.000
69.42200 64.000
69.44195 61.000
69.46189 50.000
69.48184 44.000
69.50179 52.000
69.52173 45.000
69.54168 53.000
69.56163 43.000
69.58157 41.000
69.60152 49.000
69.62147 51.000
69.64142 50.000
69.66136 45.000
69.68131 50.000
69.70126 67.000
69.72120 51.000
69.74115 47.000
69.76110 47.000
69.78104 35.000
69.80099 43.000
69.82094 38.000
69.84089 53.000
69.86083 48.000
69.88078 40.000
69.90073 37.000
69.92067 48.000
69.94062 42.000
69.96057 47.000
69.98051 37.000
70.00046 49.000
70.02041 42.000
70.04035 51.000
70.06030 35.000
70.08025 53.000
70.10020 52.000
70.12014 52.000
70.14009 41.000
70.16004 46.000
70.17998 52.000
70.19993 66.000
70.21988 47.000
70.23982 44.000
70.25977 39.000
70.27972 44.000
70.29967 49.000
70.31961 44.000
70.33956 55.000
70.35951 43.000
70.37945 42.000
70.39940 38.000
70.41935 51.000
70.43929 37.000
70.45924 66.000
70.47919 46.000
70.49914 51.000
70.51908 53.000
70.53903 41.000
70.55898 50.000
70.57892 48.000
70.59887 46.000
70.61882 49.000
70.63876 44.000
70.65871 53.000
70.67866 37.000
70.69860 36.000
70.71855 50.000
70.73850 39.000
70.75845 54.000
70.77839 46.000
70.79834 43.000
70.81829 36.000
70.83823 49.000
70.85818 53.000
70.87813 50.000
70.89807 45.000
70.91802 64.000
70.93797 43.000
70.95792 38.000
70.97786 49.000
70.99781 51.000
71.01776 46.000
71.03770 37.000
71.05765 49.000
71.07760 48.000
71.09754 45.000
71.11749 37.000
71.13744 46.000
71.15738 40.000
71.17733 42.000
71.19728 50.000
71.21723 39.000
71.23717 44.000
71.25712 54.000
71.27707 42.000
71.29701 40.000
71.31696 41.000
71.33691 49.000
71.35685 41.000
71.37680 41.000
71.39675 53.000
71.41670 47.000
71.43664 39.000
71.45659 46.000
71.47654 55.000
71.49648 52.000
71.51643 36.000
71.53638 59.000
71.55632 63.000
71.57627 58.000
71.59622 49.000
71.61616 47.000
71.63611 46.000
71.65606 46.000
71.67601 45.000
71.69595 38.000
71.71590 62.000
71.73585 46.000
71.75579 47.000
71.77574 50.000
71.79569 57.000
71.81563 47.000
71.83558 38.000
71.85553 46.000
71.87548 43.000
71.89542 49.000
71.91537 52.000
71.93532 59.000
71.95526 39.000
71.97521 39.000
71.99516 49.000
72.01510 34.000
72.03505 50.000
72.05500 53.000
72.07495 36.000
72.09489 44.000
72.11484 42.000
72.13479 48.000
72.15473 41.000
72.17468 47.000
72.19463 51.000
72.21457 36.000
72.23452 34.000
72.25447 39.000
72.27441 53.000
72.29436 58.000
72.31431 48.000
72.33426 49.000
72.35420 41.000
72.37415 47.000
72.39410 35.000
72.41404 49.000
72.43399 47.000
72.45394 60.000
72.47388 61.000
72.49383 58.000
72.51378 41.000
72.53373 38.000
72.55367 46.000
72.57362 32.000
72.59357 49.000
72.61351 52.000
72.63346 37.000
72.65341 41.000
72.67335 37.000
72.69330 47.000
72.71325 42.000
72.73319 42.000
72.75314 44.000
72.77309 55.000
72.79304 50.000
72.81298 38.000
72.83293 50.000
72.85288 42.000
72.87282 49.000
72.89277 44.000
72.91272 43.000
72.93266 39.000
72.95261 54.000
72.97256 56.000
72.99251 44.000
73.01245 53.000
73.03240 46.000
73.05235 42.000
73.07229 60.000
73.09224 46.000
73.11219 52.000
73.13213 50.000
73.15208 50.000
73.17203 60.000
73.19197 45.000
73.21192 54.000
73.23187 55.000
73.25182 60.000
73.27176 63.000
73.29171 52.000
73.31166 62.000
73.33160 66.000
73.35155 66.000
73.37150 77.000
73.39144 66.000
73.41139 79.000
73.43134 90.000
73.45129 102.000
73.47123 108.000
73.49118 129.000
73.51113 146.000
73.53107 138.000
73.55102 163.000
73.57097 218.000
73.59091 196.000
73.61086 203.000
73.63081 177.000
73.65076 159.000
73.67070 166.000
73.69065 143.000
73.71060 167.000
73.73054 149.000
73.75049 153.000
73.77044 124.000
73.79038 133.000
73.81033 160.000
73.83028 109.000
73.85022 113.000
73.87017 82.000
73.89012 110.000
73.91007 99.000
73.93001 92.000
73.94996 73.000
73.96991 74.000
73.98985 69.000
74.00980 54.000
74.02975 57.000
74.04969 55.000
74.06964 65.000
74.08959 69.000
74.10954 56.000
74.12948 57.000
74.14943 50.000
74.16938 51.000
74.18932 41.000
74.20927 52.000
74.22922 53.000
74.24916 66.000
74.26911 45.000
74.28906 59.000
74.30900 53.000
74.32895 48.000
74.34890 50.000
74.36885 53.000
74.38879 47.000
74.40874 59.000
74.42869 53.000
74.44863 55.000
74.46858 60.000
74.48853 55.000
74.50847 62.000
74.52842 57.000
74.54837 47.000
74.56832 47.000
74.58826 59.000
74.60821 55.000
74.62816 46.000
74.64810 41.000
74.66805 55.000
74.68800 31.000
74.70794 51.000
74.72789 55.000
74.74784 46.000
74.76778 38.000
74.78773 47.000
74.80768 57.000
74.82763 46.000
74.84757 45.000
74.86752 44.000
74.88747 34.000
74.90741 40.000
74.92736 49.000
74.94731 43.000
74.96725 46.000
74.98720 37.000
75.00715 45.000
75.02710 43.000
75.04704 46.000
75.06699 42.000
75.08694 49.000
75.10688 51.000
75.12683 39.000
75.14678 43.000
75.16672 36.000
75.18667 42.000
75.20662 39.000
75.22657 59.000
75.24651 42.000
75.26646 43.000
75.28641 36.000
75.30635 34.000
75.32630 58.000
75.34625 57.000
75.36619 35.000
75.38614 57.000
75.40609 56.000
75.42603 49.000
75.44598 49.000
75.46593 54.000
75.48588 39.000
75.50582 49.000
75.52577 54.000
75.54572 52.000
75.56566 52.000
75.58561 49.000
75.60556 47.000
75.62550 55.000
75.64545 48.000
75.66540 57.000
75.68535 68.000
75.70529 51.000
75.72524 62.000
75.74519 55.000
75.76513 51.000
75.78508 60.000
75.80503 65.000
75.82497 64.000
75.84492 76.000
75.86487 99.000
75.88481 96.000
75.90476 117.000
75.92471 100.000
75.94466 104.000
75.96460 106.000
75.98455 96.000
76.00450 100.000
76.02444 108.000
76.04439 82.000
76.06434 95.000
76.08428 96.000
76.10423 83.000
76.12418 68.000
76.14413 65.000
76.16407 93.000
76.18402 91.000
76.20397 75.000
76.22391 69.000
76.24386 81.000
76.26381 61.000
76.28375 52.000
76.30370 59.000
76.32365 58.000
76.34359 51.000
76.36354 48.000
76.38349 60.000
76.40344 53.000
76.42338 64.000
76.44333 50.000
76.46328 55.000
76.48322 55.000
76.50317 51.000
76.52312 58.000
76.54306 41.000
76.56301 63.000
76.58296 39.000
76.60291 48.000
76.62285 41.000
76.64280 67.000
76.66275 37.000
76.68269 35.000
76.70264 49.000
76.72259 50.000
76.74253 55.000
76.76248 69.000
76.78243 39.000
76.80238 56.000
76.82232 37.000
76.84227 50.000
76.86222 48.000
76.88216 53.000
76.90211 54.000
76.92206 42.000
76.94200 47.000
76.96195 41.000
76.98190 52.000
77.00184 54.000
77.02179 38.000
77.04174 45.000
77.06169 53.000
77.08163 61.000
77.10158 51.000
77.12153 46.000
77.14147 44.000
77.16142 52.000
77.18137 47.000
77.20131 52.000
77.22126 53.000
77.24121 44.000
77.26116 64.000
77.28110 56.000
77.30105 54.000
77.32100 58.000
77.34094 59.000
77.36089 55.000
77.38084 64.000
77.40078 63.000
77.42073 79.000
77.44068 66.000
77.46062 89.000
77.48057 60.000
77.50052 99.000
77.52047 86.000
77.54041 87.000
77.56036 109.000
77.58031 109.000
77.60025 114.000
77.62020 124.000
77.64015 134.000
77.66009 153.000
77.68004 147.000
77.69999 158.000
77.71994 163.000
77.73988 193.000
77.75983 183.000
77.77978 191.000
77.79972 178.000
77.81967 199.000
77.83962 169.000
77.85956 185.000
77.87951 174.000
77.89946 193.000
77.91940 174.000
77.93935 176.000
77.95930 179.000
77.97925 201.000
77.99919 158.000
78.01914 219.000
78.03909 180.000
78.05903 221.000
78.07898 211.000
78.09893 217.000
78.11887 228.000
78.13882 233.000
78.15877 225.000
78.17872 225.000
78.19866 191.000
78.21861 184.000
78.23856 178.000
78.25850 149.000
78.27845 177.000
78.29840 148.000
78.31834 176.000
78.33829 131.000
78.35824 151.000
78.37819 153.000
78.39813 148.000
78.41808 138.000
78.43803 111.000
78.45797 106.000
78.47792 102.000
78.49787 80.000
78.51781 90.000
78.53776 69.000
78.55771 79.000
78.57765 77.000
78.59760 65.000
78.61755 67.000
78.63750 81.000
78.65744 54.000
78.67739 57.000
78.69734 54.000
78.71728 70.000
78.73723 60.000
78.75718 50.000
78.77712 51.000
78.79707 61.000
78.81702 44.000
78.83697 50.000
78.85691 53.000
78.87686 58.000
78.89681 55.000
78.91675 52.000
78.93670 42.000
78.95665 42.000
78.97659 54.000
78.99654 48.000
79.01649 43.000
79.03643 45.000
79.05638 46.000
79.07633 49.000
79.09628 39.000
79.11622 62.000
79.13617 51.000
79.15612 51.000
79.17606 45.000
79.19601 44.000
79.21596 59.000
79.23590 53.000
79.25585 41.000
79.27580 56.000
79.29575 47.000
79.31569 49.000
79.33564 46.000
79.35559 55.000
79.37553 53.000
79.39548 54.000
79.41543 46.000
79.43537 37.000
79.45532 55.000
79.47527 45.000
79.49521 45.000
79.51516 54.000
79.53511 39.000
79.55506 48.000
79.57500 43.000
79.59495 39.000
79.61490 54.000
79.63484 49.000
79.65479 37.000
79.67474 56.000
79.69468 54.000
79.71463 49.000
79.73458 57.000
79.75453 44.000
79.77447 38.000
79.79442 39.000
79.81437 44.000
79.83431 56.000
79.85426 43.000
79.87421 38.000
79.89415 49.000
79.91410 50.000
79.93405 34.000
79.95399 57.000
79.97394 40.000
79.99389 44.000
80.01384 43.000
80.03378 38.000
80.05373 49.000
80.07368 44.000
80.09362 42.000
80.11357 38.000
80.13352 38.000
80.15346 47.000
80.17341 57.000
80.19336 53.000
80.21331 41.000
80.23325 33.000
80.25320 45.000
80.27315 48.000
80.29309 45.000
80.31304 45.000
80.33299 43.000
80.35293 45.000
80.37288 73.000
80.39283 52.000
80.41278 51.000
80.43272 43.000
80.45267 39.000
80.47262 65.000
80.49256 62.000
80.51251 42.000
80.53246 41.000
80.55240 67.000
80.57235 47.000
80.59230 51.000
80.61224 56.000
80.63219 55.000
80.65214 36.000
80.67209 51.000
80.69203 52.000
80.71198 47.000
80.73193 55.000
80.75187 49.000
80.77182 54.000
80.79177 78.000
80.81171 59.000
80.83166 69.000
80.85161 80.000
80.87156 68.000
80.89150 70.000
80.91145 78.000
80.93140 75.000
80.95134 69.000
80.97129 60.000
80.99124 58.000
81.01118 56.000
81.03113 53.000
81.05108 46.000
81.07102 51.000
81.09097 62.000
81.11092 64.000
81.13087 72.000
81.15081 67.000
81.17076 57.000
81.19071 62.000
81.21065 54.000
81.23060 53.000
81.25055 45.000
81.27049 49.000
81.29044 59.000
81.31039 51.000
81.33034 45.000
81.35028 51.000
81.37023 44.000
81.39018 46.000
81.41012 44.000
81.43007 37.000
81.45002 35.000
81.46996 47.000
81.48991 59.000
81.50986 55.000
81.52980 30.000
81.54975 35.000
81.56970 47.000
81.58965 43.000
81.60959 49.000
81.62954 44.000
81.64949 37.000
81.66943 44.000
81.68938 34.000
81.70933 39.000
81.72927 43.000
81.74922 44.000
81.76917 40.000
81.78912 39.000
81.80906 40.000
81.82901 42.000
81.84896 50.000
81.86890 46.000
81.88885 45.000
81.90880 49.000
81.92874 47.000
81.94869 49.000
81.96864 50.000
81.98859 40.000
82.00853 52.000
82.02848 50.000
82.04843 52.000
82.06837 40.000
82.08832 54.000
82.10827 56.000
82.12821 44.000
82.14816 48.000
82.16811 38.000
82.18805 50.000
82.20800 40.000
82.22795 34.000
82.24790 44.000
82.26784 38.000
82.28779 47.000
82.30774 37.000
82.32768 50.000
82.34763 40.000
82.36758 55.000
82.38752 42.000
82.40747 40.000
82.42742 51.000
82.44737 53.000
82.46731 44.000
82.48726 47.000
82.50721 43.000
82.52715 39.000
82.54710 38.000
82.56705 39.000
82.58699 48.000
82.60694 49.000
82.62689 36.000
82.64683 51.000
82.66678 48.000
82.68673 42.000
82.70668 44.000
82.72662 33.000
82.74657 48.000
82.76652 53.000
82.78646 39.000
82.80641 38.000
82.82636 51.000
82.84630 51.000
82.86625 43.000
82.88620 52.000
82.90615 46.000
82.92609 47.000
82.94604 47.000
82.96599 40.000
82.98593 47.000
83.00588 35.000
83.02583 41.000
83.04577 55.000
83.06572 54.000
83.08567 53.000
83.10561 46.000
83.12556 46.000
83.14551 46.000
83.16546 51.000
83.18540 38.000
83.20535 47.000
83.22530 39.000
83.24524 37.000
83.26519 49.000
83.28514 52.000
83.30508 47.000
83.32503 46.000
83.34498 42.000
83.36493 28.000
83.38487 54.000
83.40482 56.000
83.42477 35.000
83.44471 49.000
83.46466 43.000
83.48461 39.000
83.50455 51.000
83.52450 43.000
83.54445 31.000
83.56440 42.000
83.58434 62.000
83.60429 44.000
83.62424 50.000
83.64418 52.000
83.66413 53.000
83.68408 42.000
83.70402 49.000
83.72397 50.000
83.74392 40.000
83.76386 58.000
83.78381 42.000
83.80376 49.000
83.82371 52.000
83.84365 46.000
83.86360 45.000
83.88355 42.000
83.90349 48.000
83.92344 42.000
83.94339 53.000
83.96333 49.000
83.98328 64.000
84.00323 50.000
84.02318 42.000
84.04312 41.000
84.06307 39.000
84.08302 46.000
84.10296 52.000
84.12291 56.000
84.14286 49.000
84.16280 45.000
84.18275 51.000
84.20270 54.000
84.22264 72.000
84.24259 53.000
84.26254 61.000
84.28249 62.000
84.30243 63.000
84.32238 80.000
84.34233 76.000
84.36227 68.000
84.38222 71.000
84.40217 78.000
84.42211 100.000
84.44206 91.000
84.46201 101.000
84.48196 112.000
84.50190 110.000
84.52185 146.000
84.54180 135.000
84.56174 145.000
84.58169 178.000
84.60164 183.000
84.62158 182.000
84.64153 190.000
84.66148 195.000
84.68142 198.000
84.70137 177.000
84.72132 194.000
84.74127 178.000
84.76121 161.000
84.78116 148.000
84.80111 143.000
84.82105 166.000
84.84100 147.000
84.86095 144.000
84.88089 156.000
84.90084 142.000
84.92079 142.000
84.94074 147.000
84.96068 126.000
84.98063 120.000
85.00058 97.000
85.02052 93.000
85.04047 102.000
85.06042 103.000
85.08036 86.000
85.10031 91.000
85.12026 84.000
85.14021 56.000
85.16015 72.000
85.18010 55.000
85.20005 78.000
85.21999 56.000
85.23994 52.000
85.25989 61.000
85.27983 47.000
85.29978 54.000
85.31973 55.000
85.33967 51.000
85.35962 57.000
85.37957 42.000
85.39952 45.000
85.41946 46.000
85.43941 58.000
85.45936 58.000
85.47930 43.000
85.49925 47.000
85.51920 54.000
85.53914 57.000
85.55909 48.000
85.57904 57.000
85.59899 55.000
85.61893 42.000
85.63888 48.000
85.65883 40.000
85.67877 57.000
85.69872 52.000
85.71867 51.000
85.73861 52.000
85.75856 49.000
85.77851 53.000
85.79845 45.000
85.81840 49.000
85.83835 51.000
85.85830 41.000
85.87824 44.000
85.89819 52.000
85.91814 51.000
85.93808 44.000
85.95803 63.000
85.97798 63.000
85.99792 43.000
86.01787 58.000
86.03782 47.000
86.05777 53.000
86.07771 61.000
86.09766 45.000
86.11761 54.000
86.13755 48.000
86.15750 55.000
86.17745 56.000
86.19739 57.000
86.21734 51.000
86.23729 63.000
86.25723 57.000
86.27718 47.000
86.29713 60.000
86.31708 65.000
86.33702 48.000
86.35697 72.000
86.37692 44.000
86.39686 67.000
86.41681 67.000
86.43676 64.000
86.45670 53.000
86.47665 69.000
86.49660 69.000
86.51655 56.000
86.53649 60.000
86.55644 54.000
86.57639 59.000
86.59633 61.000
86.61628 67.000
86.63623 72.000
86.65617 52.000
86.67612 43.000
86.69607 55.000
86.71602 60.000
86.73596 58.000
86.75591 55.000
86.77586 55.000
86.79580 39.000
86.81575 50.000
86.83570 62.000
86.85564 53.000
86.87559 61.000
86.89554 73.000
86.91548 77.000
86.93543 62.000
86.95538 55.000
86.97533 63.000
86.99527 74.000
87.01522 47.000
87.03517 64.000
87.05511 59.000
87.07506 59.000
87.09501 64.000
87.11495 62.000
87.13490 62.000
87.15485 61.000
87.17480 53.000
87.19474 58.000
87.21469 52.000
87.23464 55.000
87.25458 55.000
87.27453 55.000
87.29448 57.000
87.31442 50.000
87.33437 50.000
87.35432 52.000
87.37426 48.000
87.39421 62.000
87.41416 46.000
87.43411 46.000
87.45405 53.000
87.47400 49.000
87.49395 52.000
87.51389 48.000
87.53384 49.000
87.55379 55.000
87.57373 52.000
87.59368 50.000
87.61363 52.000
87.63358 51.000
87.65352 46.000
87.67347 39.000
87.69342 52.000
87.71336 45.000
87.73331 53.000
87.75326 53.000
87.77320 44.000
87.79315 45.000
87.81310 40.000
87.83304 31.000
87.85299 54.000
87.87294 39.000
87.89289 35.000
87.91283 38.000
87.93278 36.000
87.95273 54.000
87.97267 44.000
87.99262 39.000
88.01257 50.000
88.03251 42.000
88.05246 25.000
88.07241 47.000
88.09236 35.000
88.11230 38.000
88.13225 48.000
88.15220 40.000
88.17214 42.000
88.19209 36.000
88.21204 42.000
88.23198 49.000
88.25193 41.000
88.27188 44.000
88.29183 39.000
88.31177 52.000
88.33172 48.000
88.35167 37.000
88.37161 52.000
88.39156 38.000
88.41151 49.000
88.43145 41.000
88.45140 45.000
88.47135 33.000
88.49129 44.000
88.51124 42.000
88.53119 46.000
88.55114 41.000
88.57108 42.000
88.59103 31.000
88.61098 48.000
88.63092 39.000
88.65087 50.000
88.67082 43.000
88.69076 30.000
88.71071 38.000
88.73066 45.000
88.75061 56.000
88.77055 41.000
88.79050 34.000
88.81045 44.000
88.83039 43.000
88.85034 45.000
88.87029 41.000
88.89023 48.000
88.91018 41.000
88.93013 45.000
88.95007 43.000
88.97002 46.000
88.98997 49.000
89.00992 44.000
89.02986 45.000
89.04981 56.000
89.06976 31.000
89.08970 39.000
89.10965 47.000
89.12960 47.000
89.14954 35.000
89.16949 42.000
89.18944 51.000
89.20939 48.000
89.22933 36.000
89.24928 29.000
89.26923 38.000
89.28917 36.000
89.30912 51.000
89.32907 44.000
89.34901 39.000
89.36896 57.000
89.38891 41.000
89.40885 33.000
89.42880 35.000
89.44875 42.000
89.46870 45.000
89.48864 51.000
89.50859 54.000
89.52854 41.000
89.54848 37.000
89.56843 43.000
89.58838 43.000
89.60832 47.000
89.62827 37.000
89.64822 47.000
89.66817 49.000
89.68811 38.000
89.70806 50.000
89.72801 30.000
89.74795 41.000
89.76790 36.000
89.78785 38.000
89.80779 36.000
89.82774 37.000
89.84769 41.000
89.86764 44.000
89.88758 55.000
89.90753 38.000
89.92748 56.000
89.94742 36.000
89.96737 50.000
89.98732 34.000
90.00726 41.000
