10.00000 235.000
10.01995 242.000
10.03989 235.000
10.05984 220.000
10.07979 215.000
10.09973 224.000
10.11968 221.000
10.13963 247.000
10.15958 258.000
10.17952 251.000
10.19947 216.000
10.21942 219.000
10.23936 276.000
10.25931 269.000
10.27926 222.000
10.29920 262.000
10.31915 224.000
10.33910 277.000
10.35905 280.000
10.37899 242.000
10.39894 225.000
10.41889 243.000
10.43883 245.000
10.45878 254.000
10.47873 220.000
10.49867 249.000
10.51862 257.000
10.53857 246.000
10.55851 262.000
10.57846 240.000
10.59841 232.000
10.61836 250.000
10.63830 215.000
10.65825 237.000
10.67820 241.000
10.69814 260.000
10.71809 246.000
10.73804 258.000
10.75798 234.000
10.77793 232.000
10.79788 253.000
10.81783 261.000
10.83777 228.000
10.85772 261.000
10.87767 240.000
10.89761 271.000
10.91756 264.000
10.93751 235.000
10.95745 243.000
10.97740 229.000
10.99735 219.000
11.01730 258.000
11.03724 234.000
11.05719 245.000
11.07714 259.000
11.09708 235.000
11.11703 221.000
11.13698 249.000
11.15692 260.000
11.17687 269.000
11.19682 241.000
11.21676 257.000
11.23671 244.000
11.25666 237.000
11.27661 256.000
11.29655 230.000
11.31650 231.000
11.33645 232.000
11.35639 264.000
11.37634 255.000
11.39629 220.000
11.41623 267.000
11.43618 262.000
11.45613 245.000
11.47608 205.000
11.49602 256.000
11.51597 252.000
11.53592 227.000
11.55586 245.000
11.57581 236.000
11.59576 228.000
11.61570 235.000
11.63565 232.000
11.65560 224.000
11.67554 244.000
11.69549 235.000
11.71544 246.000
11.73539 258.000
11.75533 248.000
11.77528 270.000
11.79523 240.000
11.81517 285.000
11.83512 256.000
11.85507 255.000
11.87501 243.000
11.89496 244.000
11.91491 243.000
11.93486 258.000
11.95480 260.000
11.97475 224.000
11.99470 251.000
12.01464 238.000
12.03459 245.000
12.05454 247.000
12.07448 235.000
12.09443 253.000
12.11438 241.000
12.13432 220.000
12.15427 236.000
12.17422 237.000
12.19417 234.000
12.21411 224.000
12.23406 235.000
12.25401 232.000
12.27395 242.000
12.29390 242.000
12.31385 224.000
12.33379 242.000
12.35374 260.000
12.37369 276.000
12.39364 264.000
12.41358 258.000
12.43353 228.000
12.45348 235.000
12.47342 274.000
12.49337 235.000
12.51332 238.000
12.53326 255.000
12.55321 249.000
12.57316 261.000
12.59311 247.000
12.61305 222.000
12.63300 252.000
12.65295 265.000
12.67289 247.000
12.69284 265.000
12.71279 232.000
12.73273 248.000
12.75268 259.000
12.77263 268.000
12.79257 235.000
12.81252 226.000
12.83247 230.000
12.85242 223.000
12.87236 241.000
12.89231 256.000
12.91226 247.000
12.93220 226.000
12.95215 252.000
12.97210 247.000
12.99204 228.000
13.01199 228.000
13.03194 247.000
13.05189 283.000
13.07183 256.000
13.09178 263.000
13.11173 247.000
13.13167 229.000
13.15162 208.000
13.17157 224.000
13.19151 249.000
13.21146 252.000
13.23141 253.000
13.25135 242.000
13.27130 238.000
13.29125 224.000
13.31120 218.000
13.33114 244.000
13.35109 220.000
13.37104 235.000
13.39098 230.000
13.41093 265.000
13.43088 246.000
13.45082 238.000
13.47077 233.000
13.49072 241.000
13.51067 229.000
13.53061 251.000
13.55056 258.000
13.57051 251.000
13.59045 252.000
13.61040 225.000
13.63035 235.000
13.65029 246.000
13.67024 248.000
13.69019 258.000
13.71013 227.000
13.73008 234.000
13.75003 247.000
13.76998 231.000
13.78992 257.000
13.80987 244.000
13.82982 268.000
13.84976 191.000
13.86971 238.000
13.88966 261.000
13.90960 215.000
13.92955 232.000
13.94950 242.000
13.96945 204.000
13.98939 247.000
14.00934 206.000
14.02929 230.000
14.04923 238.000
14.06918 228.000
14.08913 255.000
14.10907 235.000
14.12902 252.000
14.14897 220.000
14.16892 250.000
14.18886 303.000
14.20881 275.000
14.22876 277.000
14.24870 272.000
14.26865 274.000
14.28860 246.000
14.30854 247.000
14.32849 281.000
14.34844 262.000
14.36838 242.000
14.38833 208.000
14.40828 231.000
14.42823 269.000
14.44817 272.000
14.46812 248.000
14.48807 212.000
14.50801 231.000
14.52796 260.000
14.54791 233.000
14.56785 269.000
14.58780 250.000
14.60775 246.000
14.62770 273.000
14.64764 286.000
14.66759 245.000
14.68754 225.000
14.70748 273.000
14.72743 279.000
14.74738 247.000
14.76732 252.000
14.78727 268.000
14.80722 287.000
14.82716 243.000
14.84711 263.000
14.86706 257.000
14.88701 278.000
14.90695 263.000
14.92690 258.000
14.94685 258.000
14.96679 260.000
14.98674 293.000
15.00669 302.000
15.02663 236.000
15.04658 287.000
15.06653 294.000
15.08648 318.000
15.10642 309.000
15.12637 364.000
15.14632 327.000
15.16626 312.000
15.18621 302.000
15.20616 269.000
15.22610 308.000
15.24605 273.000
15.26600 307.000
15.28594 354.000
15.30589 342.000
15.32584 337.000
15.34579 325.000
15.36573 335.000
15.38568 334.000
15.40563 370.000
15.42557 366.000
15.44552 405.000
15.46547 406.000
15.48541 400.000
15.50536 430.000
15.52531 470.000
15.54526 541.000
15.56520 579.000
15.58515 700.000
15.60510 872.000
15.62504 1072.000
15.64499 1497.000
15.66494 2057.000
15.68488 3073.000
15.70483 4529.000
15.72478 6986.000
15.74472 10698.000
15.76467 15045.000
15.78462 17925.000
15.80457 17156.000
15.82451 13617.000
15.84446 9033.000
15.86441 5304.000
15.88435 2649.000
15.90430 1307.000
15.92425 825.000
15.94419 627.000
15.96414 503.000
15.98409 494.000
16.00404 460.000
16.02398 412.000
16.04393 412.000
16.06388 367.000
16.08382 386.000
16.10377 372.000
16.12372 343.000
16.14366 316.000
16.16361 348.000
16.18356 357.000
16.20351 314.000
16.22345 289.000
16.24340 321.000
16.26335 303.000
16.28329 290.000
16.30324 296.000
16.32319 280.000
16.34313 323.000
16.36308 274.000
16.38303 304.000
16.40297 276.000
16.42292 279.000
16.44287 288.000
16.46282 312.000
16.48276 269.000
16.50271 259.000
16.52266 280.000
16.54260 263.000
16.56255 263.000
16.58250 250.000
16.60244 259.000
16.62239 273.000
16.64234 263.000
16.66229 279.000
16.68223 246.000
16.70218 301.000
16.72213 233.000
16.74207 244.000
16.76202 276.000
16.78197 260.000
16.80191 277.000
16.82186 249.000
16.84181 268.000
16.86175 251.000
16.88170 248.000
16.90165 251.000
16.92160 247.000
16.94154 227.000
16.96149 239.000
16.98144 231.000
17.00138 215.000
17.02133 223.000
17.04128 238.000
17.06122 278.000
17.08117 246.000
17.10112 218.000
17.12107 235.000
17.14101 241.000
17.16096 203.000
17.18091 248.000
17.20085 232.000
17.22080 229.000
17.24075 226.000
17.26069 234.000
17.28064 238.000
17.30059 266.000
17.32053 249.000
17.34048 235.000
17.36043 251.000
17.38038 234.000
17.40032 238.000
17.42027 239.000
17.44022 235.000
17.46016 263.000
17.48011 258.000
17.50006 230.000
17.52000 239.000
17.53995 224.000
17.55990 252.000
17.57985 240.000
17.59979 239.000
17.61974 214.000
17.63969 260.000
17.65963 244.000
17.67958 229.000
17.69953 249.000
17.71947 231.000
17.73942 227.000
17.75937 258.000
17.77932 250.000
17.79926 252.000
17.81921 240.000
17.83916 236.000
17.85910 227.000
17.87905 242.000
17.89900 274.000
17.91894 249.000
17.93889 198.000
17.95884 238.000
17.97878 228.000
17.99873 252.000
18.01868 267.000
18.03863 228.000
18.05857 227.000
18.07852 251.000
18.09847 236.000
18.11841 237.000
18.13836 255.000
18.15831 258.000
18.17825 246.000
18.19820 256.000
18.21815 217.000
18.23810 265.000
18.25804 251.000
18.27799 257.000
18.29794 253.000
18.31788 257.000
18.33783 247.000
18.35778 248.000
18.37772 280.000
18.39767 246.000
18.41762 267.000
18.43756 279.000
18.45751 243.000
18.47746 224.000
18.49741 254.000
18.51735 225.000
18.53730 248.000
18.55725 235.000
18.57719 249.000
18.59714 236.000
18.61709 228.000
18.63703 234.000
18.65698 247.000
18.67693 242.000
18.69688 251.000
18.71682 248.000
18.73677 236.000
18.75672 260.000
18.77666 225.000
18.79661 229.000
18.81656 198.000
18.83650 235.000
18.85645 238.000
18.87640 250.000
18.89634 233.000
18.91629 223.000
18.93624 217.000
18.95619 250.000
18.97613 262.000
18.99608 242.000
19.01603 261.000
19.03597 220.000
19.05592 232.000
19.07587 232.000
19.09581 226.000
19.11576 218.000
19.13571 249.000
19.15566 259.000
19.17560 254.000
19.19555 229.000
19.21550 253.000
19.23544 220.000
19.25539 219.000
19.27534 248.000
19.29528 235.000
19.31523 215.000
19.33518 255.000
19.35513 243.000
19.37507 238.000
19.39502 240.000
19.41497 225.000
19.43491 240.000
19.45486 217.000
19.47481 245.000
19.49475 240.000
19.51470 253.000
19.53465 276.000
19.55459 283.000
19.57454 235.000
19.59449 247.000
19.61444 242.000
19.63438 237.000
19.65433 253.000
19.67428 227.000
19.69422 249.000
19.71417 249.000
19.73412 226.000
19.75406 217.000
19.77401 246.000
19.79396 266.000
19.81391 237.000
19.83385 249.000
19.85380 239.000
19.87375 249.000
19.89369 219.000
19.91364 235.000
19.93359 248.000
19.95353 242.000
19.97348 263.000
19.99343 252.000
20.01337 211.000
20.03332 208.000
20.05327 218.000
20.07322 244.000
20.09316 235.000
20.11311 217.000
20.13306 229.000
20.15300 236.000
20.17295 233.000
20.19290 225.000
20.21284 229.000
20.23279 232.000
20.25274 211.000
20.27269 223.000
20.29263 240.000
20.31258 206.000
20.33253 215.000
20.35247 219.000
20.37242 217.000
20.39237 220.000
20.41231 281.000
20.43226 246.000
20.45221 270.000
20.47215 246.000
20.49210 261.000
20.51205 272.000
20.53200 248.000
20.55194 233.000
20.57189 236.000
20.59184 238.000
20.61178 224.000
20.63173 243.000
20.65168 228.000
20.67162 254.000
20.69157 250.000
20.71152 218.000
20.73147 271.000
20.75141 249.000
20.77136 225.000
20.79131 262.000
20.81125 254.000
20.83120 247.000
20.85115 263.000
20.87109 263.000
20.89104 269.000
20.91099 279.000
20.93094 289.000
20.95088 314.000
20.97083 325.000
20.99078 293.000
21.01072 296.000
21.03067 326.000
21.05062 332.000
21.07056 343.000
21.09051 290.000
21.11046 298.000
21.13040 253.000
21.15035 260.000
21.17030 243.000
21.19025 254.000
21.21019 267.000
21.23014 232.000
21.25009 269.000
21.27003 235.000
21.28998 250.000
21.30993 232.000
21.32987 218.000
21.34982 261.000
21.36977 224.000
21.38972 250.000
21.40966 231.000
21.42961 249.000
21.44956 256.000
21.46950 218.000
21.48945 240.000
21.50940 248.000
21.52934 248.000
21.54929 262.000
21.56924 218.000
21.58918 225.000
21.60913 250.000
21.62908 226.000
21.64903 263.000
21.66897 236.000
21.68892 245.000
21.70887 248.000
21.72881 249.000
21.74876 244.000
21.76871 244.000
21.78865 225.000
21.80860 198.000
21.82855 248.000
21.84850 249.000
21.86844 243.000
21.88839 272.000
21.90834 229.000
21.92828 242.000
21.94823 216.000
21.96818 225.000
21.98812 238.000
22.00807 234.000
22.02802 233.000
22.04796 215.000
22.06791 248.000
22.08786 244.000
22.10781 253.000
22.12775 261.000
22.14770 243.000
22.16765 212.000
22.18759 238.000
22.20754 224.000
22.22749 253.000
22.24743 237.000
22.26738 248.000
22.28733 220.000
22.30728 249.000
22.32722 226.000
22.34717 261.000
22.36712 213.000
22.38706 252.000
22.40701 237.000
22.42696 236.000
22.44690 228.000
22.46685 223.000
22.48680 241.000
22.50675 235.000
22.52669 224.000
22.54664 249.000
22.56659 253.000
22.58653 213.000
22.60648 226.000
22.62643 226.000
22.64637 255.000
22.66632 237.000
22.68627 255.000
22.70621 222.000
22.72616 217.000
22.74611 242.000
22.76606 229.000
22.78600 229.000
22.80595 255.000
22.82590 239.000
22.84584 266.000
22.86579 261.000
22.88574 242.000
22.90568 254.000
22.92563 243.000
22.94558 226.000
22.96553 219.000
22.98547 235.000
23.00542 258.000
23.02537 228.000
23.04531 215.000
23.06526 236.000
23.08521 229.000
23.10515 241.000
23.12510 251.000
23.14505 255.000
23.16499 240.000
23.18494 239.000
23.20489 205.000
23.22484 218.000
23.24478 240.000
23.26473 250.000
23.28468 229.000
23.30462 235.000
23.32457 253.000
23.34452 238.000
23.36446 256.000
23.38441 217.000
23.40436 226.000
23.42431 237.000
23.44425 235.000
23.46420 242.000
23.48415 238.000
23.50409 233.000
23.52404 226.000
23.54399 233.000
23.56393 241.000
23.58388 212.000
23.60383 222.000
23.62377 242.000
23.64372 244.000
23.66367 230.000
23.68362 236.000
23.70356 213.000
23.72351 244.000
23.74346 231.000
23.76340 233.000
23.78335 247.000
23.80330 255.000
23.82324 231.000
23.84319 226.000
23.86314 244.000
23.88309 256.000
23.90303 233.000
23.92298 239.000
23.94293 220.000
23.96287 244.000
23.98282 244.000
24.00277 252.000
24.02271 230.000
24.04266 227.000
24.06261 249.000
24.08256 242.000
24.10250 244.000
24.12245 242.000
24.14240 224.000
24.16234 217.000
24.18229 239.000
24.20224 250.000
24.22218 222.000
24.24213 233.000
24.26208 221.000
24.28202 226.000
24.30197 274.000
24.32192 220.000
24.34187 236.000
24.36181 223.000
24.38176 234.000
24.40171 260.000
24.42165 240.000
24.44160 248.000
24.46155 239.000
24.48149 241.000
24.50144 228.000
24.52139 246.000
24.54134 253.000
24.56128 262.000
24.58123 234.000
24.60118 232.000
24.62112 247.000
24.64107 236.000
24.66102 228.000
24.68096 243.000
24.70091 243.000
24.72086 242.000
24.74080 244.000
24.76075 251.000
24.78070 233.000
24.80065 228.000
24.82059 239.000
24.84054 252.000
24.86049 250.000
24.88043 276.000
24.90038 274.000
24.92033 270.000
24.94027 258.000
24.96022 263.000
24.98017 237.000
25.00012 254.000
25.02006 267.000
25.04001 255.000
25.05996 273.000
25.07990 252.000
25.09985 239.000
25.11980 250.000
25.13974 271.000
25.15969 238.000
25.17964 218.000
25.19958 263.000
25.21953 257.000
25.23948 250.000
25.25943 247.000
25.27937 241.000
25.29932 235.000
25.31927 244.000
25.33921 209.000
25.35916 231.000
25.37911 233.000
25.39905 258.000
25.41900 222.000
25.43895 233.000
25.45890 241.000
25.47884 242.000
25.49879 211.000
25.51874 239.000
25.53868 241.000
25.55863 246.000
25.57858 236.000
25.59852 248.000
25.61847 228.000
25.63842 245.000
25.65837 239.000
25.67831 237.000
25.69826 225.000
25.71821 237.000
25.73815 250.000
25.75810 252.000
25.77805 244.000
25.79799 242.000
25.81794 233.000
25.83789 284.000
25.85783 247.000
25.87778 218.000
25.89773 257.000
25.91768 239.000
25.93762 260.000
25.95757 260.000
25.97752 244.000
25.99746 230.000
26.01741 272.000
26.03736 220.000
26.05730 234.000
26.07725 227.000
26.09720 252.000
26.11715 244.000
26.13709 240.000
26.15704 278.000
26.17699 235.000
26.19693 230.000
26.21688 225.000
26.23683 231.000
26.25677 243.000
26.27672 196.000
26.29667 234.000
26.31661 263.000
26.33656 276.000
26.35651 264.000
26.37646 212.000
26.39640 241.000
26.41635 224.000
26.43630 236.000
26.45624 227.000
26.47619 254.000
26.49614 254.000
26.51608 262.000
26.53603 239.000
26.55598 240.000
26.57593 243.000
26.59587 249.000
26.61582 261.000
26.63577 254.000
26.65571 250.000
26.67566 247.000
26.69561 238.000
26.71555 257.000
26.73550 264.000
26.75545 231.000
26.77539 244.000
26.79534 262.000
26.81529 246.000
26.83524 280.000
26.85518 224.000
26.87513 228.000
26.89508 247.000
26.91502 263.000
26.93497 245.000
26.95492 243.000
26.97486 215.000
26.99481 254.000
27.01476 237.000
27.03471 247.000
27.05465 217.000
27.07460 246.000
27.09455 240.000
27.11449 250.000
27.13444 265.000
27.15439 265.000
27.17433 218.000
27.19428 205.000
27.21423 263.000
27.23417 232.000
27.25412 288.000
27.27407 260.000
27.29402 248.000
27.31396 267.000
27.33391 222.000
27.35386 229.000
27.37380 249.000
27.39375 254.000
27.41370 261.000
27.43364 252.000
27.45359 237.000
27.47354 226.000
27.49349 263.000
27.51343 261.000
27.53338 263.000
27.55333 234.000
27.57327 233.000
27.59322 251.000
27.61317 243.000
27.63311 245.000
27.65306 243.000
27.67301 249.000
27.69296 239.000
27.71290 260.000
27.73285 244.000
27.75280 250.000
27.77274 249.000
27.79269 234.000
27.81264 253.000
27.83258 255.000
27.85253 243.000
27.87248 273.000
27.89242 251.000
27.91237 225.000
27.93232 256.000
27.95227 259.000
27.97221 251.000
27.99216 263.000
28.01211 245.000
28.03205 229.000
28.05200 238.000
28.07195 226.000
28.09189 239.000
28.11184 256.000
28.13179 248.000
28.15174 235.000
28.17168 253.000
28.19163 238.000
28.21158 247.000
28.23152 256.000
28.25147 238.000
28.27142 262.000
28.29136 236.000
28.31131 249.000
28.33126 249.000
28.35120 264.000
28.37115 245.000
28.39110 269.000
28.41105 271.000
28.43099 242.000
28.45094 274.000
28.47089 274.000
28.49083 261.000
28.51078 253.000
28.53073 263.000
28.55067 219.000
28.57062 244.000
28.59057 249.000
28.61052 238.000
28.63046 255.000
28.65041 250.000
28.67036 239.000
28.69030 255.000
28.71025 265.000
28.73020 269.000
28.75014 220.000
28.77009 236.000
28.79004 236.000
28.80998 247.000
28.82993 247.000
28.84988 242.000
28.86983 237.000
28.88977 268.000
28.90972 251.000
28.92967 267.000
28.94961 244.000
28.96956 242.000
28.98951 244.000
29.00945 233.000
29.02940 220.000
29.04935 256.000
29.06930 258.000
29.08924 278.000
29.10919 256.000
29.12914 258.000
29.14908 236.000
29.16903 248.000
29.18898 238.000
29.20892 209.000
29.22887 226.000
29.24882 250.000
29.26877 293.000
29.28871 233.000
29.30866 312.000
29.32861 306.000
29.34855 293.000
29.36850 272.000
29.38845 310.000
29.40839 299.000
29.42834 282.000
29.44829 289.000
29.46823 247.000
29.48818 280.000
29.50813 282.000
29.52808 275.000
29.54802 249.000
29.56797 246.000
29.58792 246.000
29.60786 235.000
29.62781 249.000
29.64776 245.000
29.66770 255.000
29.68765 235.000
29.70760 236.000
29.72755 263.000
29.74749 227.000
29.76744 265.000
29.78739 273.000
29.80733 260.000
29.82728 230.000
29.84723 253.000
29.86717 245.000
29.88712 256.000
29.90707 262.000
29.92701 251.000
29.94696 261.000
29.96691 247.000
29.98686 248.000
30.00680 264.000
30.02675 255.000
30.04670 272.000
30.06664 286.000
30.08659 270.000
30.10654 284.000
30.12648 264.000
30.14643 270.000
30.16638 269.000
30.18633 289.000
30.20627 278.000
30.22622 288.000
30.24617 256.000
30.26611 303.000
30.28606 289.000
30.30601 258.000
30.32595 292.000
30.34590 289.000
30.36585 276.000
30.38579 246.000
30.40574 290.000
30.42569 251.000
30.44564 264.000
30.46558 256.000
30.48553 243.000
30.50548 262.000
30.52542 236.000
30.54537 246.000
30.56532 235.000
30.58526 235.000
30.60521 252.000
30.62516 260.000
30.64511 247.000
30.66505 250.000
30.68500 283.000
30.70495 222.000
30.72489 235.000
30.74484 240.000
30.76479 238.000
30.78473 247.000
30.80468 255.000
30.82463 243.000
30.84458 258.000
30.86452 259.000
30.88447 259.000
30.90442 256.000
30.92436 246.000
30.94431 251.000
30.96426 270.000
30.98420 266.000
31.00415 251.000
31.02410 249.000
31.04404 256.000
31.06399 252.000
31.08394 268.000
31.10389 248.000
31.12383 221.000
31.14378 227.000
31.16373 271.000
31.18367 218.000
31.20362 255.000
31.22357 241.000
31.24351 242.000
31.26346 249.000
31.28341 268.000
31.30336 265.000
31.32330 246.000
31.34325 259.000
31.36320 262.000
31.38314 254.000
31.40309 233.000
31.42304 264.000
31.44298 266.000
31.46293 252.000
31.48288 267.000
31.50282 233.000
31.52277 245.000
31.54272 280.000
31.56267 280.000
31.58261 271.000
31.60256 260.000
31.62251 267.000
31.64245 267.000
31.66240 283.000
31.68235 284.000
31.70229 320.000
31.72224 331.000
31.74219 376.000
31.76214 423.000
31.78208 482.000
31.80203 602.000
31.82198 770.000
31.84192 916.000
31.86187 1079.000
31.88182 1200.000
31.90176 1447.000
31.92171 1417.000
31.94166 1403.000
31.96160 1310.000
31.98155 1188.000
32.00150 1057.000
32.02145 862.000
32.04139 693.000
32.06134 500.000
32.08129 467.000
32.10123 373.000
32.12118 357.000
32.14113 330.000
32.16107 304.000
32.18102 265.000
32.20097 302.000
32.22092 289.000
32.24086 268.000
32.26081 293.000
32.28076 293.000
32.30070 255.000
32.32065 300.000
32.34060 294.000
32.36054 309.000
32.38049 358.000
32.40044 330.000
32.42039 402.000
32.44033 404.000
32.46028 407.000
32.48023 402.000
32.50017 415.000
32.52012 427.000
32.54007 399.000
32.56001 353.000
32.57996 336.000
32.59991 311.000
32.61985 293.000
32.63980 286.000
32.65975 255.000
32.67970 243.000
32.69964 248.000
32.71959 263.000
32.73954 273.000
32.75948 261.000
32.77943 259.000
32.79938 230.000
32.81932 258.000
32.83927 255.000
32.85922 246.000
32.87917 273.000
32.89911 254.000
32.91906 274.000
32.93901 254.000
32.95895 279.000
32.97890 259.000
32.99885 242.000
33.01879 248.000
33.03874 275.000
33.05869 248.000
33.07863 244.000
33.09858 238.000
33.11853 258.000
33.13848 228.000
33.15842 269.000
33.17837 268.000
33.19832 243.000
33.21826 255.000
33.23821 257.000
33.25816 266.000
33.27810 260.000
33.29805 253.000
33.31800 263.000
33.33795 250.000
33.35789 252.000
33.37784 261.000
33.39779 255.000
33.41773 252.000
33.43768 269.000
33.45763 267.000
33.47757 246.000
33.49752 255.000
33.51747 260.000
33.53741 253.000
33.55736 237.000
33.57731 259.000
33.59726 235.000
33.61720 255.000
33.63715 256.000
33.65710 245.000
33.67704 251.000
33.69699 263.000
33.71694 247.000
33.73688 253.000
33.75683 247.000
33.77678 280.000
33.79673 288.000
33.81667 240.000
33.83662 250.000
33.85657 248.000
33.87651 256.000
33.89646 243.000
33.91641 235.000
33.93635 268.000
33.95630 269.000
33.97625 257.000
33.99620 271.000
34.01614 258.000
34.03609 245.000
34.05604 267.000
34.07598 275.000
34.09593 267.000
34.11588 259.000
34.13582 283.000
34.15577 283.000
34.17572 267.000
34.19566 232.000
34.21561 249.000
34.23556 252.000
34.25551 259.000
34.27545 268.000
34.29540 283.000
34.31535 241.000
34.33529 273.000
34.35524 256.000
34.37519 290.000
34.39513 261.000
34.41508 272.000
34.43503 307.000
34.45498 299.000
34.47492 281.000
34.49487 304.000
34.51482 318.000
34.53476 333.000
34.55471 291.000
34.57466 312.000
34.59460 359.000
34.61455 325.000
34.63450 360.000
34.65444 321.000
34.67439 327.000
34.69434 338.000
34.71429 330.000
34.73423 346.000
34.75418 345.000
34.77413 318.000
34.79407 332.000
34.81402 330.000
34.83397 323.000
34.85391 343.000
34.87386 289.000
34.89381 292.000
34.91376 291.000
34.93370 299.000
34.95365 282.000
34.97360 274.000
34.99354 331.000
35.01349 309.000
35.03344 308.000
35.05338 315.000
35.07333 318.000
35.09328 320.000
35.11322 333.000
35.13317 306.000
35.15312 296.000
35.17307 323.000
35.19301 389.000
35.21296 414.000
35.23291 379.000
35.25285 390.000
35.27280 446.000
35.29275 449.000
35.31269 511.000
35.33264 590.000
35.35259 770.000
35.37254 1047.000
35.39248 1231.000
35.41243 1418.000
35.43238 1364.000
35.45232 1590.000
35.47227 1992.000
35.49222 2332.000
35.51216 2388.000
35.53211 2062.000
35.55206 1752.000
35.57201 1722.000
35.59195 1668.000
35.61190 1525.000
35.63185 1323.000
35.65179 1277.000
35.67174 1103.000
35.69169 1046.000
35.71163 1088.000
35.73158 1091.000
35.75153 1033.000
35.77147 991.000
35.79142 898.000
35.81137 836.000
35.83132 785.000
35.85126 661.000
35.87121 606.000
35.89116 581.000
35.91110 472.000
35.93105 448.000
35.95100 397.000
35.97094 372.000
35.99089 310.000
36.01084 306.000
36.03079 295.000
36.05073 285.000
36.07068 279.000
36.09063 299.000
36.11057 271.000
36.13052 276.000
36.15047 263.000
36.17041 277.000
36.19036 275.000
36.21031 290.000
36.23025 299.000
36.25020 322.000
36.27015 246.000
36.29010 284.000
36.31004 299.000
36.32999 278.000
36.34994 248.000
36.36988 253.000
36.38983 265.000
36.40978 247.000
36.42972 299.000
36.44967 297.000
36.46962 270.000
36.48957 286.000
36.50951 286.000
36.52946 257.000
36.54941 260.000
36.56935 291.000
36.58930 286.000
36.60925 326.000
36.62919 308.000
36.64914 323.000
36.66909 355.000
36.68903 331.000
36.70898 354.000
36.72893 320.000
36.74888 327.000
36.76882 292.000
36.78877 314.000
36.80872 257.000
36.82866 305.000
36.84861 280.000
36.86856 273.000
36.88850 274.000
36.90845 276.000
36.92840 303.000
36.94835 282.000
36.96829 246.000
36.98824 275.000
37.00819 269.000
37.02813 273.000
37.04808 315.000
37.06803 276.000
37.08797 319.000
37.10792 310.000
37.12787 317.000
37.14781 339.000
37.16776 341.000
37.18771 318.000
37.20766 346.000
37.22760 295.000
37.24755 343.000
37.26750 283.000
37.28744 303.000
37.30739 342.000
37.32734 279.000
37.34728 310.000
37.36723 244.000
37.38718 305.000
37.40713 273.000
37.42707 293.000
37.44702 294.000
37.46697 250.000
37.48691 264.000
37.50686 285.000
37.52681 260.000
37.54675 273.000
37.56670 266.000
37.58665 271.000
37.60660 271.000
37.62654 265.000
37.64649 255.000
37.66644 266.000
37.68638 284.000
37.70633 254.000
37.72628 265.000
37.74622 294.000
37.76617 277.000
37.78612 278.000
37.80606 273.000
37.82601 271.000
37.84596 262.000
37.86591 249.000
37.88585 258.000
37.90580 260.000
37.92575 264.000
37.94569 288.000
37.96564 304.000
37.98559 265.000
38.00553 285.000
38.02548 304.000
38.04543 267.000
38.06538 274.000
38.08532 290.000
38.10527 285.000
38.12522 305.000
38.14516 301.000
38.16511 271.000
38.18506 290.000
38.20500 301.000
38.22495 309.000
38.24490 314.000
38.26484 321.000
38.28479 331.000
38.30474 327.000
38.32469 348.000
38.34463 357.000
38.36458 360.000
38.38453 373.000
38.40447 376.000
38.42442 451.000
38.44437 448.000
38.46431 521.000
38.48426 531.000
38.50421 632.000
38.52416 704.000
38.54410 812.000
38.56405 998.000
38.58400 1226.000
38.60394 1529.000
38.62389 1660.000
38.64384 1894.000
38.66378 1786.000
38.68373 1818.000
38.70368 1621.000
38.72362 1594.000
38.74357 1474.000
38.76352 1301.000
38.78347 1130.000
38.80341 1008.000
38.82336 921.000
38.84331 831.000
38.86325 817.000
38.88320 697.000
38.90315 728.000
38.92309 711.000
38.94304 748.000
38.96299 744.000
38.98294 729.000
39.00288 728.000
39.02283 678.000
39.04278 693.000
39.06272 631.000
39.08267 591.000
39.10262 596.000
39.12256 586.000
39.14251 599.000
39.16246 745.000
39.18241 772.000
39.20235 890.000
39.22230 1042.000
39.24225 1227.000
39.26219 1414.000
39.28214 1683.000
39.30209 1768.000
39.32203 1870.000
39.34198 1725.000
39.36193 1577.000
39.38187 1510.000
39.40182 1389.000
39.42177 1203.000
39.44172 1130.000
39.46166 860.000
39.48161 761.000
39.50156 528.000
39.52150 509.000
39.54145 452.000
39.56140 387.000
39.58134 391.000
39.60129 348.000
39.62124 373.000
39.64119 335.000
39.66113 320.000
39.68108 320.000
39.70103 276.000
39.72097 285.000
39.74092 301.000
39.76087 268.000
39.78081 287.000
39.80076 295.000
39.82071 270.000
39.84065 250.000
39.86060 262.000
39.88055 298.000
39.90050 251.000
39.92044 279.000
39.94039 280.000
39.96034 293.000
39.98028 282.000
40.00023 233.000
40.02018 242.000
40.04012 272.000
40.06007 263.000
40.08002 274.000
40.09997 246.000
40.11991 254.000
40.13986 265.000
40.15981 300.000
40.17975 238.000
40.19970 284.000
40.21965 252.000
40.23959 245.000
40.25954 278.000
40.27949 282.000
40.29943 254.000
40.31938 277.000
40.33933 242.000
40.35928 262.000
40.37922 275.000
40.39917 280.000
40.41912 248.000
40.43906 263.000
40.45901 236.000
40.47896 265.000
40.49890 245.000
40.51885 246.000
40.53880 261.000
40.55875 269.000
40.57869 245.000
40.59864 268.000
40.61859 254.000
40.63853 247.000
40.65848 261.000
40.67843 224.000
40.69837 254.000
40.71832 211.000
40.73827 252.000
40.75822 226.000
40.77816 242.000
40.79811 265.000
40.81806 265.000
40.83800 246.000
40.85795 260.000
40.87790 264.000
40.89784 229.000
40.91779 297.000
40.93774 209.000
40.95768 264.000
40.97763 254.000
40.99758 239.000
41.01753 245.000
41.03747 270.000
41.05742 223.000
41.07737 244.000
41.09731 232.000
41.11726 248.000
41.13721 232.000
41.15715 260.000
41.17710 241.000
41.19705 257.000
41.21700 241.000
41.23694 220.000
41.25689 245.000
41.27684 252.000
41.29678 245.000
41.31673 236.000
41.33668 235.000
41.35662 235.000
41.37657 235.000
41.39652 276.000
41.41646 244.000
41.43641 255.000
41.45636 257.000
41.47631 282.000
41.49625 246.000
41.51620 250.000
41.53615 258.000
41.55609 261.000
41.57604 258.000
41.59599 249.000
41.61593 262.000
41.63588 267.000
41.65583 247.000
41.67578 253.000
41.69572 251.000
41.71567 245.000
41.73562 248.000
41.75556 238.000
41.77551 243.000
41.79546 258.000
41.81540 239.000
41.83535 272.000
41.85530 265.000
41.87524 255.000
41.89519 253.000
41.91514 258.000
41.93509 236.000
41.95503 244.000
41.97498 257.000
41.99493 242.000
42.01487 262.000
42.03482 263.000
42.05477 272.000
42.07471 262.000
42.09466 253.000
42.11461 251.000
42.13456 255.000
42.15450 255.000
42.17445 223.000
42.19440 220.000
42.21434 282.000
42.23429 249.000
42.25424 274.000
42.27418 250.000
42.29413 228.000
42.31408 252.000
42.33403 244.000
42.35397 253.000
42.37392 270.000
42.39387 272.000
42.41381 251.000
42.43376 283.000
42.45371 243.000
42.47365 218.000
42.49360 257.000
42.51355 248.000
42.53349 200.000
42.55344 245.000
42.57339 252.000
42.59334 238.000
42.61328 258.000
42.63323 274.000
42.65318 247.000
42.67312 277.000
42.69307 286.000
42.71302 269.000
42.73296 248.000
42.75291 254.000
42.77286 248.000
42.79281 306.000
42.81275 267.000
42.83270 255.000
42.85265 309.000
42.87259 273.000
42.89254 283.000
42.91249 239.000
42.93243 267.000
42.95238 315.000
42.97233 265.000
42.99227 265.000
43.01222 302.000
43.03217 304.000
43.05212 319.000
43.07206 304.000
43.09201 309.000
43.11196 314.000
43.13190 359.000
43.15185 362.000
43.17180 369.000
43.19174 414.000
43.21169 433.000
43.23164 436.000
43.25159 486.000
43.27153 493.000
43.29148 523.000
43.31143 579.000
43.33137 682.000
43.35132 713.000
43.37127 808.000
43.39121 856.000
43.41116 864.000
43.43111 850.000
43.45105 818.000
43.47100 726.000
43.49095 706.000
43.51090 698.000
43.53084 609.000
43.55079 555.000
43.57074 488.000
43.59068 460.000
43.61063 394.000
43.63058 353.000
43.65052 348.000
43.67047 356.000
43.69042 269.000
43.71037 260.000
43.73031 271.000
43.75026 311.000
43.77021 312.000
43.79015 280.000
43.81010 269.000
43.83005 278.000
43.84999 265.000
43.86994 276.000
43.88989 257.000
43.90984 271.000
43.92978 241.000
43.94973 226.000
43.96968 282.000
43.98962 256.000
44.00957 232.000
44.02952 268.000
44.04946 255.000
44.06941 230.000
44.08936 283.000
44.10930 239.000
44.12925 273.000
44.14920 262.000
44.16915 245.000
44.18909 247.000
44.20904 266.000
44.22899 239.000
44.24893 254.000
44.26888 240.000
44.28883 266.000
44.30877 237.000
44.32872 258.000
44.34867 268.000
44.36862 249.000
44.38856 240.000
44.40851 223.000
44.42846 247.000
44.44840 248.000
44.46835 247.000
44.48830 227.000
44.50824 261.000
44.52819 235.000
44.54814 229.000
44.56808 266.000
44.58803 239.000
44.60798 218.000
44.62793 263.000
44.64787 275.000
44.66782 247.000
44.68777 251.000
44.70771 254.000
44.72766 265.000
44.74761 262.000
44.76755 246.000
44.78750 229.000
44.80745 246.000
44.82740 254.000
44.84734 252.000
44.86729 234.000
44.88724 259.000
44.90718 260.000
44.92713 250.000
44.94708 258.000
44.96702 253.000
44.98697 270.000
45.00692 235.000
45.02686 271.000
45.04681 274.000
45.06676 254.000
45.08671 257.000
45.10665 225.000
45.12660 258.000
45.14655 261.000
45.16649 244.000
45.18644 233.000
45.20639 253.000
45.22633 243.000
45.24628 256.000
45.26623 245.000
45.28618 264.000
45.30612 231.000
45.32607 246.000
45.34602 239.000
45.36596 262.000
45.38591 227.000
45.40586 289.000
45.42580 249.000
45.44575 234.000
45.46570 239.000
45.48565 255.000
45.50559 245.000
45.52554 250.000
45.54549 253.000
45.56543 224.000
45.58538 240.000
45.60533 262.000
45.62527 277.000
45.64522 239.000
45.66517 264.000
45.68511 234.000
45.70506 256.000
45.72501 260.000
45.74496 244.000
45.76490 248.000
45.78485 271.000
45.80480 248.000
45.82474 265.000
45.84469 264.000
45.86464 250.000
45.88458 260.000
45.90453 256.000
45.92448 270.000
45.94443 260.000
45.96437 233.000
45.98432 276.000
46.00427 231.000
46.02421 250.000
46.04416 249.000
46.06411 248.000
46.08405 277.000
46.10400 281.000
46.12395 231.000
46.14389 229.000
46.16384 256.000
46.18379 271.000
46.20374 272.000
46.22368 291.000
46.24363 288.000
46.26358 268.000
46.28352 269.000
46.30347 294.000
46.32342 273.000
46.34336 278.000
46.36331 259.000
46.38326 264.000
46.40321 290.000
46.42315 277.000
46.44310 251.000
46.46305 242.000
46.48299 247.000
46.50294 241.000
46.52289 263.000
46.54283 279.000
46.56278 251.000
46.58273 257.000
46.60267 264.000
46.62262 309.000
46.64257 247.000
46.66252 255.000
46.68246 249.000
46.70241 250.000
46.72236 247.000
46.74230 230.000
46.76225 273.000
46.78220 232.000
46.80214 241.000
46.82209 255.000
46.84204 231.000
46.86199 250.000
46.88193 268.000
46.90188 250.000
46.92183 259.000
46.94177 233.000
46.96172 240.000
46.98167 258.000
47.00161 233.000
47.02156 249.000
47.04151 232.000
47.06146 253.000
47.08140 251.000
47.10135 268.000
47.12130 230.000
47.14124 233.000
47.16119 250.000
47.18114 270.000
47.20108 251.000
47.22103 252.000
47.24098 286.000
47.26092 248.000
47.28087 248.000
47.30082 245.000
47.32077 252.000
47.34071 282.000
47.36066 243.000
47.38061 264.000
47.40055 250.000
47.42050 298.000
47.44045 276.000
47.46039 280.000
47.48034 275.000
47.50029 245.000
47.52024 252.000
47.54018 245.000
47.56013 256.000
47.58008 268.000
47.60002 246.000
47.61997 265.000
47.63992 245.000
47.65986 244.000
47.67981 250.000
47.69976 290.000
47.71970 242.000
47.73965 236.000
47.75960 271.000
47.77955 246.000
47.79949 252.000
47.81944 266.000
47.83939 264.000
47.85933 255.000
47.87928 247.000
47.89923 241.000
47.91917 281.000
47.93912 276.000
47.95907 297.000
47.97902 258.000
47.99896 258.000
48.01891 290.000
48.03886 272.000
48.05880 281.000
48.07875 274.000
48.09870 263.000
48.11864 280.000
48.13859 259.000
48.15854 279.000
48.17848 297.000
48.19843 324.000
48.21838 304.000
48.23833 307.000
48.25827 333.000
48.27822 305.000
48.29817 346.000
48.31811 343.000
48.33806 369.000
48.35801 347.000
48.37795 348.000
48.39790 411.000
48.41785 421.000
48.43780 417.000
48.45774 456.000
48.47769 521.000
48.49764 560.000
48.51758 663.000
48.53753 692.000
48.55748 861.000
48.57742 955.000
48.59737 1180.000
48.61732 1421.000
48.63726 1692.000
48.65721 1916.000
48.67716 1976.000
48.69711 2061.000
48.71705 1860.000
48.73700 1799.000
48.75695 1654.000
48.77689 1680.000
48.79684 1739.000
48.81679 1598.000
48.83673 1420.000
48.85668 1379.000
48.87663 1118.000
48.89658 912.000
48.91652 857.000
48.93647 770.000
48.95642 708.000
48.97636 663.000
48.99631 565.000
49.01626 469.000
49.03620 451.000
49.05615 404.000
49.07610 368.000
49.09605 338.000
49.11599 338.000
49.13594 346.000
49.15589 345.000
49.17583 322.000
49.19578 328.000
49.21573 297.000
49.23567 304.000
49.25562 320.000
49.27557 306.000
49.29551 285.000
49.31546 275.000
49.33541 281.000
49.35536 275.000
49.37530 287.000
49.39525 278.000
49.41520 304.000
49.43514 289.000
49.45509 282.000
49.47504 280.000
49.49498 261.000
49.51493 259.000
49.53488 254.000
49.55483 273.000
49.57477 266.000
49.59472 261.000
49.61467 270.000
49.63461 262.000
49.65456 249.000
49.67451 258.000
49.69445 276.000
49.71440 273.000
49.73435 239.000
49.75429 266.000
49.77424 276.000
49.79419 280.000
49.81414 306.000
49.83408 259.000
49.85403 232.000
49.87398 276.000
49.89392 274.000
49.91387 266.000
49.93382 240.000
49.95376 249.000
49.97371 231.000
49.99366 263.000
50.01361 275.000
50.03355 246.000
50.05350 220.000
50.07345 242.000
50.09339 257.000
50.11334 233.000
50.13329 277.000
50.15323 281.000
50.17318 267.000
50.19313 242.000
50.21307 270.000
50.23302 236.000
50.25297 259.000
50.27292 284.000
50.29286 252.000
50.31281 252.000
50.33276 241.000
50.35270 237.000
50.37265 252.000
50.39260 274.000
50.41254 230.000
50.43249 270.000
50.45244 276.000
50.47239 254.000
50.49233 254.000
50.51228 271.000
50.53223 247.000
50.55217 258.000
50.57212 259.000
50.59207 254.000
50.61201 246.000
50.63196 252.000
50.65191 251.000
50.67186 250.000
50.69180 234.000
50.71175 258.000
50.73170 270.000
50.75164 243.000
50.77159 231.000
50.79154 240.000
50.81148 224.000
50.83143 211.000
50.85138 236.000
50.87132 280.000
50.89127 243.000
50.91122 259.000
50.93117 276.000
50.95111 249.000
50.97106 245.000
50.99101 243.000
51.01095 249.000
51.03090 228.000
51.05085 274.000
51.07079 277.000
51.09074 226.000
51.11069 256.000
51.13064 274.000
51.15058 248.000
51.17053 242.000
51.19048 255.000
51.21042 263.000
51.23037 237.000
51.25032 270.000
51.27026 257.000
51.29021 262.000
51.31016 272.000
51.33010 281.000
51.35005 254.000
51.37000 252.000
51.38995 243.000
51.40989 262.000
51.42984 277.000
51.44979 264.000
51.46973 234.000
51.48968 248.000
51.50963 264.000
51.52957 263.000
51.54952 243.000
51.56947 278.000
51.58942 263.000
51.60936 213.000
51.62931 244.000
51.64926 255.000
51.66920 228.000
51.68915 251.000
51.70910 252.000
51.72904 237.000
51.74899 234.000
51.76894 245.000
51.78888 273.000
51.80883 257.000
51.82878 258.000
51.84873 268.000
51.86867 245.000
51.88862 239.000
51.90857 250.000
51.92851 263.000
51.94846 250.000
51.96841 249.000
51.98835 268.000
52.00830 257.000
52.02825 280.000
52.04820 248.000
52.06814 280.000
52.08809 247.000
52.10804 264.000
52.12798 246.000
52.14793 222.000
52.16788 254.000
52.18782 273.000
52.20777 261.000
52.22772 270.000
52.24767 241.000
52.26761 248.000
52.28756 253.000
52.30751 249.000
52.32745 259.000
52.34740 236.000
52.36735 262.000
52.38729 245.000
52.40724 237.000
52.42719 224.000
52.44713 242.000
52.46708 251.000
52.48703 245.000
52.50698 226.000
52.52692 256.000
52.54687 234.000
52.56682 251.000
52.58676 257.000
52.60671 260.000
52.62666 275.000
52.64660 266.000
52.66655 239.000
52.68650 221.000
52.70645 259.000
52.72639 275.000
52.74634 245.000
52.76629 233.000
52.78623 278.000
52.80618 246.000
52.82613 250.000
52.84607 258.000
52.86602 247.000
52.88597 243.000
52.90591 275.000
52.92586 232.000
52.94581 242.000
52.96576 238.000
52.98570 262.000
53.00565 262.000
53.02560 268.000
53.04554 276.000
53.06549 262.000
53.08544 299.000
53.10538 276.000
53.12533 277.000
53.14528 242.000
53.16523 277.000
53.18517 299.000
53.20512 320.000
53.22507 288.000
53.24501 301.000
53.26496 292.000
53.28491 340.000
53.30485 329.000
53.32480 354.000
53.34475 326.000
53.36469 316.000
53.38464 318.000
53.40459 328.000
53.42454 309.000
53.44448 336.000
53.46443 308.000
53.48438 302.000
53.50432 280.000
53.52427 301.000
53.54422 296.000
53.56416 287.000
53.58411 295.000
53.60406 310.000
53.62401 245.000
53.64395 304.000
53.66390 265.000
53.68385 303.000
53.70379 292.000
53.72374 294.000
53.74369 276.000
53.76363 285.000
53.78358 251.000
53.80353 260.000
53.82348 242.000
53.84342 268.000
53.86337 254.000
53.88332 251.000
53.90326 253.000
53.92321 259.000
53.94316 266.000
53.96310 263.000
53.98305 251.000
54.00300 255.000
54.02294 239.000
54.04289 256.000
54.06284 270.000
54.08279 266.000
54.10273 247.000
54.12268 247.000
54.14263 254.000
54.16257 229.000
54.18252 256.000
54.20247 251.000
54.22241 227.000
54.24236 262.000
54.26231 228.000
54.28226 230.000
54.30220 259.000
54.32215 235.000
54.34210 244.000
54.36204 232.000
54.38199 236.000
54.40194 255.000
54.42188 242.000
54.44183 259.000
54.46178 247.000
54.48172 232.000
54.50167 214.000
54.52162 236.000
54.54157 280.000
54.56151 235.000
54.58146 247.000
54.60141 258.000
54.62135 258.000
54.64130 221.000
54.66125 241.000
54.68119 227.000
54.70114 249.000
54.72109 259.000
54.74104 266.000
54.76098 277.000
54.78093 243.000
54.80088 236.000
54.82082 253.000
54.84077 233.000
54.86072 262.000
54.88066 236.000
54.90061 239.000
54.92056 213.000
54.94050 261.000
54.96045 258.000
54.98040 269.000
55.00035 255.000
55.02029 235.000
55.04024 247.000
55.06019 232.000
55.08013 234.000
55.10008 236.000
55.12003 222.000
55.13997 242.000
55.15992 245.000
55.17987 269.000
55.19982 227.000
55.21976 243.000
55.23971 250.000
55.25966 260.000
55.27960 246.000
55.29955 244.000
55.31950 255.000
55.33944 264.000
55.35939 274.000
55.37934 280.000
55.39929 264.000
55.41923 254.000
55.43918 237.000
55.45913 208.000
55.47907 257.000
55.49902 252.000
55.51897 263.000
55.53891 240.000
55.55886 224.000
55.57881 257.000
55.59875 266.000
55.61870 241.000
55.63865 250.000
55.65860 242.000
55.67854 217.000
55.69849 262.000
55.71844 215.000
55.73838 244.000
55.75833 259.000
55.77828 270.000
55.79822 274.000
55.81817 262.000
55.83812 214.000
55.85807 243.000
55.87801 249.000
55.89796 238.000
55.91791 240.000
55.93785 269.000
55.95780 249.000
55.97775 259.000
55.99769 250.000
56.01764 235.000
56.03759 259.000
56.05753 231.000
56.07748 236.000
56.09743 263.000
56.11738 245.000
56.13732 266.000
56.15727 240.000
56.17722 271.000
56.19716 244.000
56.21711 242.000
56.23706 244.000
56.25700 215.000
56.27695 271.000
56.29690 258.000
56.31685 252.000
56.33679 276.000
56.35674 250.000
56.37669 242.000
56.39663 234.000
56.41658 245.000
56.43653 244.000
56.45647 270.000
56.47642 253.000
56.49637 254.000
56.51631 250.000
56.53626 227.000
56.55621 256.000
56.57616 246.000
56.59610 251.000
56.61605 240.000
56.63600 265.000
56.65594 266.000
56.67589 259.000
56.69584 251.000
56.71578 252.000
56.73573 229.000
56.75568 255.000
56.77563 264.000
56.79557 260.000
56.81552 243.000
56.83547 251.000
56.85541 260.000
56.87536 259.000
56.89531 250.000
56.91525 248.000
56.93520 268.000
56.95515 268.000
56.97510 260.000
56.99504 250.000
57.01499 263.000
57.03494 238.000
57.05488 275.000
57.07483 238.000
57.09478 271.000
57.11472 295.000
57.13467 232.000
57.15462 259.000
57.17456 258.000
57.19451 242.000
57.21446 260.000
57.23441 251.000
57.25435 261.000
57.27430 241.000
57.29425 291.000
57.31419 269.000
57.33414 261.000
57.35409 286.000
57.37403 257.000
57.39398 269.000
57.41393 264.000
57.43388 251.000
57.45382 275.000
57.47377 260.000
57.49372 294.000
57.51366 247.000
57.53361 252.000
57.55356 248.000
57.57350 253.000
57.59345 259.000
57.61340 257.000
57.63334 262.000
57.65329 245.000
57.67324 245.000
57.69319 276.000
57.71313 255.000
57.73308 237.000
57.75303 255.000
57.77297 263.000
57.79292 235.000
57.81287 271.000
57.83281 280.000
57.85276 250.000
57.87271 259.000
57.89266 215.000
57.91260 244.000
57.93255 299.000
57.95250 254.000
57.97244 279.000
57.99239 299.000
58.01234 296.000
58.03228 281.000
58.05223 301.000
58.07218 289.000
58.09212 291.000
58.11207 308.000
58.13202 340.000
58.15197 341.000
58.17191 382.000
58.19186 457.000
58.21181 420.000
58.23175 456.000
58.25170 448.000
58.27165 397.000
58.29159 415.000
58.31154 399.000
58.33149 402.000
58.35144 391.000
58.37138 367.000
58.39133 365.000
58.41128 334.000
58.43122 320.000
58.45117 325.000
58.47112 294.000
58.49106 289.000
58.51101 299.000
58.53096 313.000
58.55090 267.000
58.57085 284.000
58.59080 246.000
58.61075 262.000
58.63069 257.000
58.65064 261.000
58.67059 294.000
58.69053 234.000
58.71048 278.000
58.73043 244.000
58.75037 229.000
58.77032 231.000
58.79027 238.000
58.81022 258.000
58.83016 259.000
58.85011 250.000
58.87006 273.000
58.89000 267.000
58.90995 250.000
58.92990 252.000
58.94984 247.000
58.96979 271.000
58.98974 274.000
59.00969 284.000
59.02963 254.000
59.04958 274.000
59.06953 242.000
59.08947 236.000
59.10942 256.000
59.12937 268.000
59.14931 257.000
59.16926 265.000
59.18921 233.000
59.20915 215.000
59.22910 262.000
59.24905 261.000
59.26900 274.000
59.28894 269.000
59.30889 255.000
59.32884 224.000
59.34878 245.000
59.36873 243.000
59.38868 263.000
59.40862 253.000
59.42857 272.000
59.44852 269.000
59.46847 266.000
59.48841 241.000
59.50836 258.000
59.52831 255.000
59.54825 244.000
59.56820 249.000
59.58815 264.000
59.60809 242.000
59.62804 244.000
59.64799 273.000
59.66793 237.000
59.68788 236.000
59.70783 255.000
59.72778 222.000
59.74772 243.000
59.76767 231.000
59.78762 253.000
59.80756 254.000
59.82751 261.000
59.84746 281.000
59.86740 234.000
59.88735 268.000
59.90730 225.000
59.92725 250.000
59.94719 266.000
59.96714 240.000
59.98709 267.000
60.00703 239.000
60.02698 238.000
60.04693 261.000
60.06687 230.000
60.08682 283.000
60.10677 239.000
60.12671 263.000
60.14666 250.000
60.16661 264.000
60.18656 257.000
60.20650 253.000
60.22645 266.000
60.24640 262.000
60.26634 267.000
60.28629 241.000
60.30624 255.000
60.32618 225.000
60.34613 250.000
60.36608 253.000
60.38603 244.000
60.40597 269.000
60.42592 257.000
60.44587 267.000
60.46581 266.000
60.48576 232.000
60.50571 265.000
60.52565 245.000
60.54560 229.000
60.56555 242.000
60.58550 253.000
60.60544 221.000
60.62539 270.000
60.64534 260.000
60.66528 249.000
60.68523 218.000
60.70518 255.000
60.72512 226.000
60.74507 252.000
60.76502 259.000
60.78496 285.000
60.80491 262.000
60.82486 261.000
60.84481 269.000
60.86475 250.000
60.88470 273.000
60.90465 251.000
60.92459 280.000
60.94454 252.000
60.96449 289.000
60.98443 268.000
61.00438 278.000
61.02433 284.000
61.04428 286.000
61.06422 262.000
61.08417 252.000
61.10412 263.000
61.12406 302.000
61.14401 275.000
61.16396 277.000
61.18390 277.000
61.20385 287.000
61.22380 269.000
61.24374 248.000
61.26369 310.000
61.28364 302.000
61.30359 285.000
61.32353 304.000
61.34348 296.000
61.36343 344.000
61.38337 359.000
61.40332 394.000
61.42327 405.000
61.44321 454.000
61.46316 475.000
61.48311 492.000
61.50306 577.000
61.52300 582.000
61.54295 563.000
61.56290 538.000
61.58284 546.000
61.60279 545.000
61.62274 532.000
61.64268 508.000
61.66263 578.000
61.68258 580.000
61.70252 595.000
61.72247 617.000
61.74242 576.000
61.76237 600.000
61.78231 681.000
61.80226 687.000
61.82221 785.000
61.84215 785.000
61.86210 870.000
61.88205 803.000
61.90199 835.000
61.92194 882.000
61.94189 807.000
61.96184 768.000
61.98178 721.000
62.00173 749.000
62.02168 659.000
62.04162 640.000
62.06157 630.000
62.08152 632.000
62.10146 608.000
62.12141 563.000
62.14136 487.000
62.16131 423.000
62.18125 403.000
62.20120 385.000
62.22115 333.000
62.24109 370.000
62.26104 350.000
62.28099 360.000
62.30093 296.000
62.32088 283.000
62.34083 323.000
62.36077 277.000
62.38072 318.000
62.40067 312.000
62.42062 273.000
62.44056 289.000
62.46051 263.000
62.48046 286.000
62.50040 304.000
62.52035 269.000
62.54030 274.000
62.56024 288.000
62.58019 313.000
62.60014 291.000
62.62009 326.000
62.64003 278.000
62.65998 297.000
62.67993 301.000
62.69987 289.000
62.71982 308.000
62.73977 313.000
62.75971 284.000
62.77966 294.000
62.79961 294.000
62.81955 293.000
62.83950 282.000
62.85945 273.000
62.87940 301.000
62.89934 306.000
62.91929 305.000
62.93924 313.000
62.95918 305.000
62.97913 262.000
62.99908 289.000
63.01902 281.000
63.03897 285.000
63.05892 282.000
63.07887 294.000
63.09881 269.000
63.11876 281.000
63.13871 295.000
63.15865 251.000
63.17860 284.000
63.19855 300.000
63.21849 253.000
63.23844 252.000
63.25839 285.000
63.27833 285.000
63.29828 269.000
63.31823 278.000
63.33818 264.000
63.35812 256.000
63.37807 232.000
63.39802 249.000
63.41796 243.000
63.43791 256.000
63.45786 275.000
63.47780 281.000
63.49775 269.000
63.51770 263.000
63.53765 254.000
63.55759 263.000
63.57754 256.000
63.59749 272.000
63.61743 295.000
63.63738 247.000
63.65733 260.000
63.67727 251.000
63.69722 260.000
63.71717 276.000
63.73712 254.000
63.75706 265.000
63.77701 285.000
63.79696 302.000
63.81690 299.000
63.83685 292.000
63.85680 252.000
63.87674 290.000
63.89669 290.000
63.91664 301.000
63.93658 310.000
63.95653 304.000
63.97648 305.000
63.99643 317.000
64.01637 324.000
64.03632 371.000
64.05627 361.000
64.07621 355.000
64.09616 382.000
64.11611 437.000
64.13605 459.000
64.15600 432.000
64.17595 479.000
64.19590 563.000
64.21584 511.000
64.23579 515.000
64.25574 564.000
64.27568 610.000
64.29563 571.000
64.31558 534.000
64.33552 533.000
64.35547 500.000
64.37542 507.000
64.39536 483.000
64.41531 467.000
64.43526 493.000
64.45521 435.000
64.47515 429.000
64.49510 422.000
64.51505 367.000
64.53499 361.000
64.55494 338.000
64.57489 357.000
64.59483 342.000
64.61478 303.000
64.63473 294.000
64.65468 359.000
64.67462 291.000
64.69457 299.000
64.71452 278.000
64.73446 283.000
64.75441 291.000
64.77436 267.000
64.79430 266.000
64.81425 288.000
64.83420 244.000
64.85414 287.000
64.87409 234.000
64.89404 270.000
64.91399 254.000
64.93393 298.000
64.95388 241.000
64.97383 235.000
64.99377 276.000
65.01372 274.000
65.03367 247.000
65.05361 247.000
65.07356 266.000
65.09351 295.000
65.11346 234.000
65.13340 262.000
65.15335 263.000
65.17330 299.000
65.19324 261.000
65.21319 277.000
65.23314 260.000
65.25308 266.000
65.27303 298.000
65.29298 256.000
65.31293 286.000
65.33287 299.000
65.35282 288.000
65.37277 299.000
65.39271 297.000
65.41266 287.000
65.43261 292.000
65.45255 281.000
65.47250 330.000
65.49245 317.000
65.51239 312.000
65.53234 350.000
65.55229 362.000
65.57224 346.000
65.59218 366.000
65.61213 369.000
65.63208 404.000
65.65202 393.000
65.67197 372.000
65.69192 381.000
65.71186 361.000
65.73181 367.000
65.75176 366.000
65.77171 374.000
65.79165 363.000
65.81160 380.000
65.83155 367.000
65.85149 356.000
65.87144 353.000
65.89139 393.000
65.91133 333.000
65.93128 339.000
65.95123 343.000
65.97117 341.000
65.99112 364.000
66.01107 363.000
66.03102 313.000
66.05096 284.000
66.07091 318.000
66.09086 305.000
66.11080 332.000
66.13075 352.000
66.15070 370.000
66.17064 393.000
66.19059 410.000
66.21054 396.000
66.23049 475.000
66.25043 450.000
66.27038 474.000
66.29033 506.000
66.31027 495.000
66.33022 467.000
66.35017 498.000
66.37011 471.000
66.39006 461.000
66.41001 457.000
66.42995 501.000
66.44990 488.000
66.46985 486.000
66.48980 470.000
66.50974 509.000
66.52969 570.000
66.54964 570.000
66.56958 512.000
66.58953 515.000
66.60948 551.000
66.62942 593.000
66.64937 585.000
66.66932 512.000
66.68927 565.000
66.70921 581.000
66.72916 545.000
66.74911 507.000
66.76905 477.000
66.78900 500.000
66.80895 495.000
66.82889 488.000
66.84884 462.000
66.86879 416.000
66.88874 431.000
66.90868 456.000
66.92863 419.000
66.94858 423.000
66.96852 361.000
66.98847 360.000
67.00842 335.000
67.02836 349.000
67.04831 311.000
67.06826 329.000
67.08820 325.000
67.10815 293.000
67.12810 274.000
67.14805 317.000
67.16799 282.000
67.18794 266.000
67.20789 257.000
67.22783 296.000
67.24778 279.000
67.26773 231.000
67.28767 277.000
67.30762 271.000
67.32757 289.000
67.34752 270.000
67.36746 273.000
67.38741 243.000
67.40736 275.000
67.42730 300.000
67.44725 255.000
67.46720 289.000
67.48714 258.000
67.50709 282.000
67.52704 296.000
67.54698 300.000
67.56693 283.000
67.58688 260.000
67.60683 301.000
67.62677 301.000
67.64672 298.000
67.66667 326.000
67.68661 317.000
67.70656 346.000
67.72651 349.000
67.74645 353.000
67.76640 350.000
67.78635 368.000
67.80630 387.000
67.82624 366.000
67.84619 340.000
67.86614 403.000
67.88608 366.000
67.90603 389.000
67.92598 443.000
67.94592 471.000
67.96587 465.000
67.98582 466.000
68.00576 463.000
68.02571 505.000
68.04566 443.000
68.06561 459.000
68.08555 421.000
68.10550 386.000
68.12545 384.000
68.14539 387.000
68.16534 376.000
68.18529 381.000
68.20523 393.000
68.22518 355.000
68.24513 354.000
68.26508 358.000
68.28502 330.000
68.30497 311.000
68.32492 310.000
68.34486 315.000
68.36481 273.000
68.38476 314.000
68.40470 260.000
68.42465 246.000
68.44460 277.000
68.46455 279.000
68.48449 258.000
68.50444 235.000
68.52439 272.000
68.54433 246.000
68.56428 267.000
68.58423 248.000
68.60417 274.000
68.62412 259.000
68.64407 290.000
68.66401 245.000
68.68396 257.000
68.70391 270.000
68.72386 256.000
68.74380 265.000
68.76375 242.000
68.78370 244.000
68.80364 260.000
68.82359 254.000
68.84354 234.000
68.86348 248.000
68.88343 237.000
68.90338 254.000
68.92333 268.000
68.94327 239.000
68.96322 266.000
68.98317 221.000
69.00311 253.000
69.02306 272.000
69.04301 230.000
69.06295 225.000
69.08290 249.000
69.10285 278.000
69.12279 251.000
69.14274 271.000
69.16269 243.000
69.18264 258.000
69.20258 233.000
69.22253 234.000
69.24248 302.000
69.26242 224.000
69.28237 252.000
69.30232 283.000
69.32226 255.000
69.34221 247.000
69.36216 256.000
69.38211 271.000
69.40205 224.000
69.42200 297.000
69.44195 243.000
69.46189 236.000
69.48184 268.000
69.50179 258.000
69.52173 237.000
69.54168 246.000
69.56163 245.000
69.58157 242.000
69.60152 266.000
69.62147 257.000
69.64142 211.000
69.66136 243.000
69.68131 248.000
69.70126 259.000
69.72120 268.000
69.74115 256.000
69.76110 291.000
69.78104 245.000
69.80099 251.000
69.82094 245.000
69.84089 244.000
69.86083 264.000
69.88078 255.000
69.90073 219.000
69.92067 231.000
69.94062 277.000
69.96057 249.000
69.98051 265.000
70.00046 250.000
70.02041 222.000
70.04035 259.000
70.06030 236.000
70.08025 271.000
70.10020 229.000
70.12014 236.000
70.14009 214.000
70.16004 227.000
70.17998 236.000
70.19993 240.000
70.21988 237.000
70.23982 263.000
70.25977 241.000
70.27972 249.000
70.29967 237.000
70.31961 246.000
70.33956 253.000
70.35951 249.000
70.37945 268.000
70.39940 268.000
70.41935 263.000
70.43929 245.000
70.45924 224.000
70.47919 243.000
70.49914 251.000
70.51908 228.000
70.53903 265.000
70.55898 260.000
70.57892 253.000
70.59887 235.000
70.61882 243.000
70.63876 256.000
70.65871 242.000
70.67866 266.000
70.69860 245.000
70.71855 266.000
70.73850 248.000
70.75845 238.000
70.77839 232.000
70.79834 237.000
70.81829 241.000
70.83823 277.000
70.85818 250.000
70.87813 262.000
70.89807 241.000
70.91802 259.000
70.93797 238.000
70.95792 250.000
70.97786 238.000
70.99781 268.000
71.01776 229.000
71.03770 289.000
71.05765 287.000
71.07760 240.000
71.09754 280.000
71.11749 262.000
71.13744 242.000
71.15738 250.000
71.17733 247.000
71.19728 247.000
71.21723 240.000
71.23717 248.000
71.25712 231.000
71.27707 247.000
71.29701 254.000
71.31696 242.000
71.33691 253.000
71.35685 226.000
71.37680 244.000
71.39675 257.000
71.41670 239.000
71.43664 250.000
71.45659 267.000
71.47654 279.000
71.49648 250.000
71.51643 241.000
71.53638 249.000
71.55632 252.000
71.57627 234.000
71.59622 255.000
71.61616 277.000
71.63611 237.000
71.65606 252.000
71.67601 263.000
71.69595 231.000
71.71590 261.000
71.73585 277.000
71.75579 226.000
71.77574 254.000
71.79569 265.000
71.81563 253.000
71.83558 272.000
71.85553 248.000
71.87548 248.000
71.89542 259.000
71.91537 254.000
71.93532 261.000
71.95526 244.000
71.97521 258.000
71.99516 277.000
72.01510 259.000
72.03505 266.000
72.05500 244.000
72.07495 261.000
72.09489 283.000
72.11484 233.000
72.13479 242.000
72.15473 252.000
72.17468 263.000
72.19463 273.000
72.21457 277.000
72.23452 271.000
72.25447 293.000
72.27441 250.000
72.29436 291.000
72.31431 332.000
72.33426 327.000
72.35420 322.000
72.37415 328.000
72.39410 344.000
72.41404 331.000
72.43399 305.000
72.45394 324.000
72.47388 317.000
72.49383 301.000
72.51378 329.000
72.53373 320.000
72.55367 292.000
72.57362 304.000
72.59357 313.000
72.61351 262.000
72.63346 301.000
72.65341 276.000
72.67335 295.000
72.69330 270.000
72.71325 264.000
72.73319 244.000
72.75314 266.000
72.77309 293.000
72.79304 257.000
72.81298 266.000
72.83293 259.000
72.85288 243.000
72.87282 279.000
72.89277 232.000
72.91272 264.000
72.93266 275.000
72.95261 277.000
72.97256 246.000
72.99251 250.000
73.01245 266.000
73.03240 230.000
73.05235 263.000
73.07229 242.000
73.09224 246.000
73.11219 259.000
73.13213 265.000
73.15208 242.000
73.17203 277.000
73.19197 288.000
73.21192 243.000
73.23187 279.000
73.25182 253.000
73.27176 252.000
73.29171 284.000
73.31166 257.000
73.33160 297.000
73.35155 268.000
73.37150 295.000
73.39144 281.000
73.41139 296.000
73.43134 340.000
73.45129 328.000
73.47123 319.000
73.49118 329.000
73.51113 331.000
73.53107 355.000
73.55102 356.000
73.57097 316.000
73.59091 363.000
73.61086 311.000
73.63081 355.000
73.65076 312.000
73.67070 307.000
73.69065 339.000
73.71060 337.000
73.73054 340.000
73.75049 345.000
73.77044 348.000
73.79038 310.000
73.81033 293.000
73.83028 291.000
73.85022 323.000
73.87017 277.000
73.89012 311.000
73.91007 311.000
73.93001 291.000
73.94996 238.000
73.96991 266.000
73.98985 269.000
74.00980 307.000
74.02975 271.000
74.04969 237.000
74.06964 273.000
74.08959 264.000
74.10954 257.000
74.12948 280.000
74.14943 244.000
74.16938 241.000
74.18932 246.000
74.20927 263.000
74.22922 272.000
74.24916 270.000
74.26911 243.000
74.28906 272.000
74.30900 261.000
74.32895 258.000
74.34890 257.000
74.36885 275.000
74.38879 285.000
74.40874 257.000
74.42869 272.000
74.44863 251.000
74.46858 243.000
74.48853 264.000
74.50847 241.000
74.52842 266.000
74.54837 255.000
74.56832 252.000
74.58826 249.000
74.60821 260.000
74.62816 275.000
74.64810 261.000
74.66805 265.000
74.68800 258.000
74.70794 274.000
74.72789 257.000
74.74784 267.000
74.76778 266.000
74.78773 294.000
74.80768 236.000
74.82763 263.000
74.84757 312.000
74.86752 284.000
74.88747 306.000
74.90741 329.000
74.92736 348.000
74.94731 378.000
74.96725 391.000
74.98720 329.000
75.00715 322.000
75.02710 334.000
75.04704 328.000
75.06699 322.000
75.08694 335.000
75.10688 341.000
75.12683 356.000
75.14678 371.000
75.16672 381.000
75.18667 363.000
75.20662 348.000
75.22657 379.000
75.24651 344.000
75.26646 274.000
75.28641 325.000
75.30635 351.000
75.32630 346.000
75.34625 296.000
75.36619 321.000
75.38614 296.000
75.40609 311.000
75.42603 272.000
75.44598 315.000
75.46593 310.000
75.48588 302.000
75.50582 274.000
75.52577 288.000
75.54572 312.000
75.56566 300.000
75.58561 287.000
75.60556 271.000
75.62550 256.000
75.64545 270.000
75.66540 286.000
75.68535 272.000
75.70529 276.000
75.72524 287.000
75.74519 272.000
75.76513 286.000
75.78508 297.000
75.80503 279.000
75.82497 275.000
75.84492 310.000
75.86487 271.000
75.88481 273.000
75.90476 273.000
75.92471 299.000
75.94466 280.000
75.96460 255.000
75.98455 259.000
76.00450 274.000
76.02444 287.000
76.04439 283.000
76.06434 252.000
76.08428 317.000
76.10423 284.000
76.12418 261.000
76.14413 274.000
76.16407 239.000
76.18402 303.000
76.20397 242.000
76.22391 233.000
76.24386 264.000
76.26381 227.000
76.28375 257.000
76.30370 267.000
76.32365 247.000
76.34359 262.000
76.36354 260.000
76.38349 256.000
76.40344 241.000
76.42338 248.000
76.44333 258.000
76.46328 229.000
76.48322 269.000
76.50317 236.000
76.52312 240.000
76.54306 264.000
76.56301 235.000
76.58296 252.000
76.60291 246.000
76.62285 246.000
76.64280 212.000
76.66275 259.000
76.68269 274.000
76.70264 233.000
76.72259 247.000
76.74253 255.000
76.76248 261.000
76.78243 251.000
76.80238 266.000
76.82232 230.000
76.84227 266.000
76.86222 247.000
76.88216 261.000
76.90211 263.000
76.92206 248.000
76.94200 230.000
76.96195 237.000
76.98190 230.000
77.00184 242.000
77.02179 222.000
77.04174 263.000
77.06169 270.000
77.08163 256.000
77.10158 259.000
77.12153 257.000
77.14147 228.000
77.16142 261.000
77.18137 237.000
77.20131 241.000
77.22126 249.000
77.24121 226.000
77.26116 276.000
77.28110 229.000
77.30105 263.000
77.32100 258.000
77.34094 247.000
77.36089 228.000
77.38084 257.000
77.40078 291.000
77.42073 244.000
77.44068 255.000
77.46062 256.000
77.48057 254.000
77.50052 243.000
77.52047 268.000
77.54041 259.000
77.56036 252.000
77.58031 258.000
77.60025 259.000
77.62020 270.000
77.64015 271.000
77.66009 282.000
77.68004 279.000
77.69999 258.000
77.71994 274.000
77.73988 306.000
77.75983 293.000
77.77978 304.000
77.79972 309.000
77.81967 330.000
77.83962 295.000
77.85956 300.000
77.87951 349.000
77.89946 367.000
77.91940 373.000
77.93935 401.000
77.95930 406.000
77.97925 421.000
77.99919 429.000
78.01914 439.000
78.03909 471.000
78.05903 479.000
78.07898 490.000
78.09893 466.000
78.11887 514.000
78.13882 468.000
78.15877 457.000
78.17872 446.000
78.19866 437.000
78.21861 411.000
78.23856 393.000
78.25850 445.000
78.27845 435.000
78.29840 386.000
78.31834 383.000
78.33829 408.000
78.35824 328.000
78.37819 351.000
78.39813 290.000
78.41808 331.000
78.43803 320.000
78.45797 346.000
78.47792 330.000
78.49787 301.000
78.51781 272.000
78.53776 288.000
78.55771 307.000
78.57765 254.000
78.59760 251.000
78.61755 276.000
78.63750 262.000
78.65744 272.000
78.67739 260.000
78.69734 255.000
78.71728 267.000
78.73723 262.000
78.75718 259.000
78.77712 242.000
78.79707 253.000
78.81702 294.000
78.83697 238.000
78.85691 280.000
78.87686 256.000
78.89681 249.000
78.91675 225.000
78.93670 257.000
78.95665 239.000
78.97659 265.000
78.99654 247.000
79.01649 220.000
79.03643 260.000
79.05638 250.000
79.07633 247.000
79.09628 262.000
79.11622 241.000
79.13617 256.000
79.15612 239.000
79.17606 250.000
79.19601 283.000
79.21596 275.000
79.23590 253.000
79.25585 269.000
79.27580 255.000
79.29575 280.000
79.31569 254.000
79.33564 236.000
79.35559 250.000
79.37553 257.000
79.39548 227.000
79.41543 239.000
79.43537 270.000
79.45532 250.000
79.47527 237.000
79.49521 259.000
79.51516 230.000
79.53511 257.000
79.55506 214.000
79.57500 238.000
79.59495 260.000
79.61490 275.000
79.63484 234.000
79.65479 265.000
79.67474 241.000
79.69468 253.000
79.71463 255.000
79.73458 237.000
79.75453 256.000
79.77447 265.000
79.79442 226.000
79.81437 251.000
79.83431 242.000
79.85426 241.000
79.87421 251.000
79.89415 249.000
79.91410 255.000
79.93405 248.000
79.95399 242.000
79.97394 249.000
79.99389 232.000
80.01384 237.000
80.03378 275.000
80.05373 265.000
80.07368 277.000
80.09362 258.000
80.11357 244.000
80.13352 239.000
80.15346 231.000
80.17341 277.000
80.19336 279.000
80.21331 287.000
80.23325 277.000
80.25320 273.000
80.27315 244.000
80.29309 282.000
80.31304 278.000
80.33299 280.000
80.35293 248.000
80.37288 260.000
80.39283 268.000
80.41278 257.000
80.43272 270.000
80.45267 269.000
80.47262 273.000
80.49256 248.000
80.51251 252.000
80.53246 262.000
80.55240 280.000
80.57235 232.000
80.59230 267.000
80.61224 264.000
80.63219 274.000
80.65214 262.000
80.67209 255.000
80.69203 261.000
80.71198 255.000
80.73193 253.000
80.75187 271.000
80.77182 249.000
80.79177 253.000
80.81171 283.000
80.83166 274.000
80.85161 246.000
80.87156 283.000
80.89150 274.000
80.91145 252.000
80.93140 257.000
80.95134 285.000
80.97129 265.000
80.99124 284.000
81.01118 294.000
81.03113 273.000
81.05108 233.000
81.07102 262.000
81.09097 219.000
81.11092 261.000
81.13087 242.000
81.15081 257.000
81.17076 248.000
81.19071 254.000
81.21065 262.000
81.23060 240.000
81.25055 284.000
81.27049 257.000
81.29044 239.000
81.31039 244.000
81.33034 245.000
81.35028 237.000
81.37023 234.000
81.39018 263.000
81.41012 240.000
81.43007 264.000
81.45002 266.000
81.46996 298.000
81.48991 249.000
81.50986 247.000
81.52980 241.000
81.54975 239.000
81.56970 260.000
81.58965 215.000
81.60959 263.000
81.62954 259.000
81.64949 229.000
81.66943 240.000
81.68938 254.000
81.70933 265.000
81.72927 251.000
81.74922 241.000
81.76917 233.000
81.78912 247.000
81.80906 263.000
81.82901 261.000
81.84896 254.000
81.86890 244.000
81.88885 240.000
81.90880 240.000
81.92874 248.000
81.94869 246.000
81.96864 229.000
81.98859 236.000
82.00853 252.000
82.02848 251.000
82.04843 227.000
82.06837 264.000
82.08832 263.000
82.10827 260.000
82.12821 219.000
82.14816 290.000
82.16811 227.000
82.18805 274.000
82.20800 267.000
82.22795 246.000
82.24790 255.000
82.26784 277.000
82.28779 244.000
82.30774 261.000
82.32768 269.000
82.34763 252.000
82.36758 254.000
82.38752 270.000
82.40747 259.000
82.42742 303.000
82.44737 273.000
82.46731 288.000
82.48726 265.000
82.50721 284.000
82.52715 314.000
82.54710 327.000
82.56705 297.000
82.58699 295.000
82.60694 304.000
82.62689 280.000
82.64683 314.000
82.66678 276.000
82.68673 291.000
82.70668 277.000
82.72662 284.000
82.74657 320.000
82.76652 286.000
82.78646 288.000
82.80641 281.000
82.82636 309.000
82.84630 269.000
82.86625 307.000
82.88620 290.000
82.90615 267.000
82.92609 295.000
82.94604 305.000
82.96599 271.000
82.98593 279.000
83.00588 276.000
83.02583 263.000
83.04577 296.000
83.06572 256.000
83.08567 278.000
83.10561 298.000
83.12556 277.000
83.14551 287.000
83.16546 288.000
83.18540 288.000
83.20535 271.000
83.22530 271.000
83.24524 267.000
83.26519 268.000
83.28514 244.000
83.30508 260.000
83.32503 279.000
83.34498 287.000
83.36493 239.000
83.38487 273.000
83.40482 278.000
83.42477 287.000
83.44471 280.000
83.46466 280.000
83.48461 278.000
83.50455 254.000
83.52450 260.000
83.54445 293.000
83.56440 268.000
83.58434 282.000
83.60429 258.000
83.62424 310.000
83.64418 287.000
83.66413 291.000
83.68408 288.000
83.70402 272.000
83.72397 313.000
83.74392 311.000
83.76386 264.000
83.78381 288.000
83.80376 290.000
83.82371 279.000
83.84365 268.000
83.86360 283.000
83.88355 283.000
83.90349 256.000
83.92344 311.000
83.94339 232.000
83.96333 263.000
83.98328 249.000
84.00323 278.000
84.02318 284.000
84.04312 307.000
84.06307 291.000
84.08302 291.000
84.10296 258.000
84.12291 259.000
84.14286 222.000
84.16280 267.000
84.18275 262.000
84.20270 257.000
84.22264 263.000
84.24259 306.000
84.26254 273.000
84.28249 270.000
84.30243 278.000
84.32238 288.000
84.34233 290.000
84.36227 252.000
84.38222 300.000
84.40217 302.000
84.42211 291.000
84.44206 327.000
84.46201 318.000
84.48196 299.000
84.50190 326.000
84.52185 361.000
84.54180 374.000
84.56174 338.000
84.58169 401.000
84.60164 361.000
84.62158 376.000
84.64153 353.000
84.66148 330.000
84.68142 350.000
84.70137 379.000
84.72132 363.000
84.74127 337.000
84.76121 322.000
84.78116 318.000
84.80111 346.000
84.82105 350.000
84.84100 319.000
84.86095 335.000
84.88089 340.000
84.90084 305.000
84.92079 327.000
84.94074 285.000
84.96068 281.000
84.98063 285.000
85.00058 303.000
85.02052 255.000
85.04047 272.000
85.06042 294.000
85.08036 238.000
85.10031 283.000
85.12026 247.000
85.14021 252.000
85.16015 252.000
85.18010 263.000
85.20005 254.000
85.21999 271.000
85.23994 251.000
85.25989 254.000
85.27983 246.000
85.29978 264.000
85.31973 236.000
85.33967 261.000
85.35962 234.000
85.37957 290.000
85.39952 285.000
85.41946 256.000
85.43941 280.000
85.45936 240.000
85.47930 227.000
85.49925 235.000
85.51920 258.000
85.53914 267.000
85.55909 278.000
85.57904 223.000
85.59899 261.000
85.61893 246.000
85.63888 246.000
85.65883 230.000
85.67877 258.000
85.69872 256.000
85.71867 245.000
85.73861 266.000
85.75856 251.000
85.77851 255.000
85.79845 247.000
85.81840 225.000
85.83835 268.000
85.85830 257.000
85.87824 214.000
85.89819 279.000
85.91814 219.000
85.93808 228.000
85.95803 246.000
85.97798 239.000
85.99792 232.000
86.01787 246.000
86.03782 225.000
86.05777 257.000
86.07771 251.000
86.09766 240.000
86.11761 245.000
86.13755 253.000
86.15750 225.000
86.17745 236.000
86.19739 243.000
86.21734 260.000
86.23729 252.000
86.25723 248.000
86.27718 251.000
86.29713 239.000
86.31708 243.000
86.33702 246.000
86.35697 254.000
86.37692 254.000
86.39686 240.000
86.41681 250.000
86.43676 265.000
86.45670 267.000
86.47665 237.000
86.49660 217.000
86.51655 231.000
86.53649 276.000
86.55644 271.000
86.57639 244.000
86.59633 267.000
86.61628 278.000
86.63623 298.000
86.65617 310.000
86.67612 301.000
86.69607 274.000
86.71602 262.000
86.73596 281.000
86.75591 265.000
86.77586 264.000
86.79580 294.000
86.81575 260.000
86.83570 285.000
86.85564 276.000
86.87559 274.000
86.89554 306.000
86.91548 276.000
86.93543 315.000
86.95538 271.000
86.97533 274.000
86.99527 309.000
87.01522 277.000
87.03517 295.000
87.05511 296.000
87.07506 269.000
87.09501 287.000
87.11495 271.000
87.13490 271.000
87.15485 278.000
87.17480 267.000
87.19474 285.000
87.21469 277.000
87.23464 261.000
87.25458 281.000
87.27453 260.000
87.29448 264.000
87.31442 283.000
87.33437 286.000
87.35432 260.000
87.37426 268.000
87.39421 256.000
87.41416 309.000
87.43411 246.000
87.45405 287.000
87.47400 291.000
87.49395 282.000
87.51389 266.000
87.53384 276.000
87.55379 256.000
87.57373 283.000
87.59368 259.000
87.61363 289.000
87.63358 242.000
87.65352 249.000
87.67347 247.000
87.69342 296.000
87.71336 265.000
87.73331 259.000
87.75326 245.000
87.77320 259.000
87.79315 284.000
87.81310 241.000
87.83304 247.000
87.85299 232.000
87.87294 261.000
87.89289 278.000
87.91283 286.000
87.93278 248.000
87.95273 234.000
87.97267 253.000
87.99262 257.000
88.01257 253.000
88.03251 224.000
88.05246 248.000
88.07241 256.000
88.09236 263.000
88.11230 254.000
88.13225 234.000
88.15220 260.000
88.17214 241.000
88.19209 224.000
88.21204 268.000
88.23198 241.000
88.25193 253.000
88.27188 234.000
88.29183 248.000
88.31177 251.000
88.33172 223.000
88.35167 273.000
88.37161 247.000
88.39156 221.000
88.41151 246.000
88.43145 238.000
88.45140 275.000
88.47135 244.000
88.49129 242.000
88.51124 249.000
88.53119 250.000
88.55114 223.000
88.57108 246.000
88.59103 246.000
88.61098 273.000
88.63092 259.000
88.65087 245.000
88.67082 240.000
88.69076 264.000
88.71071 252.000
88.73066 212.000
88.75061 239.000
88.77055 235.000
88.79050 247.000
88.81045 238.000
88.83039 245.000
88.85034 252.000
88.87029 236.000
88.89023 262.000
88.91018 238.000
88.93013 251.000
88.95007 248.000
88.97002 267.000
88.98997 255.000
89.00992 241.000
89.02986 259.000
89.04981 249.000
89.06976 249.000
89.08970 257.000
89.10965 234.000
89.12960 256.000
89.14954 237.000
89.16949 240.000
89.18944 277.000
89.20939 254.000
89.22933 297.000
89.24928 283.000
89.26923 252.000
89.28917 274.000
89.30912 264.000
89.32907 257.000
89.34901 250.000
89.36896 259.000
89.38891 285.000
89.40885 294.000
89.42880 267.000
89.44875 242.000
89.46870 282.000
89.48864 268.000
89.50859 295.000
89.52854 283.000
89.54848 300.000
89.56843 274.000
89.58838 267.000
89.60832 275.000
89.62827 257.000
89.64822 265.000
89.66817 280.000
89.68811 293.000
89.70806 290.000
89.72801 259.000
89.74795 276.000
89.76790 296.000
89.78785 283.000
89.80779 274.000
89.82774 259.000
89.84769 259.000
89.86764 274.000
89.88758 319.000
89.90753 254.000
89.92748 308.000
89.94742 230.000
89.96737 261.000
89.98732 287.000
90.00726 267.000
