10.00000 97.000
10.01995 73.000
10.03989 111.000
10.05984 72.000
10.07979 67.000
10.09973 87.000
10.11968 80.000
10.13963 73.000
10.15958 91.000
10.17952 73.000
10.19947 75.000
10.21942 89.000
10.23936 86.000
10.25931 76.000
10.27926 79.000
10.29920 86.000
10.31915 95.000
10.33910 80.000
10.35905 67.000
10.37899 73.000
10.39894 86.000
10.41889 77.000
10.43883 66.000
10.45878 86.000
10.47873 84.000
10.49867 93.000
10.51862 78.000
10.53857 87.000
10.55851 85.000
10.57846 76.000
10.59841 92.000
10.61836 89.000
10.63830 75.000
10.65825 79.000
10.67820 85.000
10.69814 89.000
10.71809 85.000
10.73804 78.000
10.75798 75.000
10.77793 69.000
10.79788 87.000
10.81783 62.000
10.83777 83.000
10.85772 93.000
10.87767 91.000
10.89761 80.000
10.91756 97.000
10.93751 75.000
10.95745 81.000
10.97740 76.000
10.99735 100.000
11.01730 100.000
11.03724 71.000
11.05719 76.000
11.07714 79.000
11.09708 67.000
11.11703 67.000
11.13698 82.000
11.15692 93.000
11.17687 90.000
11.19682 83.000
11.21676 77.000
11.23671 72.000
11.25666 88.000
11.27661 97.000
11.29655 88.000
11.31650 78.000
11.33645 71.000
11.35639 79.000
11.37634 70.000
11.39629 113.000
11.41623 67.000
11.43618 89.000
11.45613 75.000
11.47608 88.000
11.49602 94.000
11.51597 73.000
11.53592 88.000
11.55586 85.000
11.57581 80.000
11.59576 91.000
11.61570 81.000
11.63565 81.000
11.65560 93.000
11.67554 88.000
11.69549 84.000
11.71544 90.000
11.73539 77.000
11.75533 91.000
11.77528 78.000
11.79523 86.000
11.81517 84.000
11.83512 89.000
11.85507 96.000
11.87501 99.000
11.89496 80.000
11.91491 72.000
11.93486 76.000
11.95480 91.000
11.97475 83.000
11.99470 72.000
12.01464 59.000
12.03459 86.000
12.05454 63.000
12.07448 80.000
12.09443 69.000
12.11438 76.000
12.13432 80.000
12.15427 73.000
12.17422 101.000
12.19417 75.000
12.21411 92.000
12.23406 77.000
12.25401 76.000
12.27395 83.000
12.29390 84.000
12.31385 75.000
12.33379 87.000
12.35374 85.000
12.37369 86.000
12.39364 97.000
12.41358 79.000
12.43353 67.000
12.45348 90.000
12.47342 77.000
12.49337 85.000
12.51332 82.000
12.53326 92.000
12.55321 78.000
12.57316 110.000
12.59311 91.000
12.61305 82.000
12.63300 86.000
12.65295 80.000
12.67289 82.000
12.69284 89.000
12.71279 77.000
12.73273 74.000
12.75268 66.000
12.77263 84.000
12.79257 73.000
12.81252 59.000
12.83247 77.000
12.85242 75.000
12.87236 87.000
12.89231 93.000
12.91226 85.000
12.93220 102.000
12.95215 71.000
12.97210 77.000
12.99204 91.000
13.01199 92.000
13.03194 76.000
13.05189 77.000
13.07183 67.000
13.09178 67.000
13.11173 85.000
13.13167 91.000
13.15162 78.000
13.17157 70.000
13.19151 90.000
13.21146 81.000
13.23141 81.000
13.25135 70.000
13.27130 73.000
13.29125 87.000
13.31120 60.000
13.33114 87.000
13.35109 97.000
13.37104 75.000
13.39098 81.000
13.41093 68.000
13.43088 88.000
13.45082 74.000
13.47077 90.000
13.49072 86.000
13.51067 88.000
13.53061 80.000
13.55056 73.000
13.57051 83.000
13.59045 78.000
13.61040 82.000
13.63035 87.000
13.65029 75.000
13.67024 98.000
13.69019 71.000
13.71013 87.000
13.73008 80.000
13.75003 61.000
13.76998 77.000
13.78992 70.000
13.80987 89.000
13.82982 76.000
13.84976 78.000
13.86971 88.000
13.88966 97.000
13.90960 74.000
13.92955 76.000
13.94950 65.000
13.96945 83.000
13.98939 77.000
14.00934 78.000
14.02929 76.000
14.04923 75.000
14.06918 77.000
14.08913 83.000
14.10907 71.000
14.12902 86.000
14.14897 93.000
14.16892 78.000
14.18886 83.000
14.20881 87.000
14.22876 71.000
14.24870 92.000
14.26865 83.000
14.28860 71.000
14.30854 85.000
14.32849 62.000
14.34844 74.000
14.36838 73.000
14.38833 81.000
14.40828 67.000
14.42823 91.000
14.44817 69.000
14.46812 68.000
14.48807 84.000
14.50801 91.000
14.52796 90.000
14.54791 84.000
14.56785 73.000
14.58780 73.000
14.60775 86.000
14.62770 80.000
14.64764 98.000
14.66759 68.000
14.68754 94.000
14.70748 87.000
14.72743 76.000
14.74738 90.000
14.76732 89.000
14.78727 92.000
14.80722 86.000
14.82716 81.000
14.84711 82.000
14.86706 80.000
14.88701 86.000
14.90695 91.000
14.92690 70.000
14.94685 90.000
14.96679 100.000
14.98674 93.000
15.00669 59.000
15.02663 98.000
15.04658 87.000
15.06653 88.000
15.08648 80.000
15.10642 83.000
15.12637 100.000
15.14632 87.000
15.16626 101.000
15.18621 103.000
15.20616 112.000
15.22610 104.000
15.24605 106.000
15.26600 106.000
15.28594 140.000
15.30589 115.000
15.32584 137.000
15.34579 167.000
15.36573 165.000
15.38568 192.000
15.40563 224.000
15.42557 233.000
15.44552 247.000
15.46547 249.000
15.48541 257.000
15.50536 217.000
15.52531 216.000
15.54526 162.000
15.56520 162.000
15.58515 161.000
15.60510 153.000
15.62504 176.000
15.64499 205.000
15.66494 217.000
15.68488 231.000
15.70483 245.000
15.72478 277.000
15.74472 272.000
15.76467 291.000
15.78462 272.000
15.80457 297.000
15.82451 245.000
15.84446 282.000
15.86441 280.000
15.88435 232.000
15.90430 232.000
15.92425 258.000
15.94419 228.000
15.96414 207.000
15.98409 212.000
16.00404 192.000
16.02398 154.000
16.04393 151.000
16.06388 114.000
16.08382 108.000
16.10377 125.000
16.12372 110.000
16.14366 106.000
16.16361 121.000
16.18356 122.000
16.20351 113.000
16.22345 95.000
16.24340 97.000
16.26335 107.000
16.28329 106.000
16.30324 105.000
16.32319 85.000
16.34313 83.000
16.36308 122.000
16.38303 83.000
16.40297 112.000
16.42292 127.000
16.44287 128.000
16.46282 108.000
16.48276 77.000
16.50271 105.000
16.52266 128.000
16.54260 99.000
16.56255 114.000
16.58250 112.000
16.60244 111.000
16.62239 100.000
16.64234 111.000
16.66229 126.000
16.68223 96.000
16.70218 97.000
16.72213 90.000
16.74207 104.000
16.76202 110.000
16.78197 103.000
16.80191 125.000
16.82186 108.000
16.84181 106.000
16.86175 104.000
16.88170 127.000
16.90165 106.000
16.92160 116.000
16.94154 95.000
16.96149 120.000
16.98144 99.000
17.00138 110.000
17.02133 127.000
17.04128 129.000
17.06122 116.000
17.08117 122.000
17.10112 105.000
17.12107 122.000
17.14101 125.000
17.16096 104.000
17.18091 126.000
17.20085 114.000
17.22080 114.000
17.24075 119.000
17.26069 124.000
17.28064 132.000
17.30059 115.000
17.32053 131.000
17.34048 108.000
17.36043 149.000
17.38038 98.000
17.40032 130.000
17.42027 122.000
17.44022 135.000
17.46016 113.000
17.48011 115.000
17.50006 135.000
17.52000 109.000
17.53995 108.000
17.55990 138.000
17.57985 111.000
17.59979 106.000
17.61974 118.000
17.63969 152.000
17.65963 131.000
17.67958 134.000
17.69953 120.000
17.71947 137.000
17.73942 123.000
17.75937 128.000
17.77932 97.000
17.79926 144.000
17.81921 138.000
17.83916 145.000
17.85910 135.000
17.87905 141.000
17.89900 149.000
17.91894 139.000
17.93889 136.000
17.95884 166.000
17.97878 166.000
17.99873 162.000
18.01868 203.000
18.03863 183.000
18.05857 207.000
18.07852 215.000
18.09847 247.000
18.11841 193.000
18.13836 219.000
18.15831 159.000
18.17825 160.000
18.19820 164.000
18.21815 121.000
18.23810 143.000
18.25804 125.000
18.27799 136.000
18.29794 118.000
18.31788 99.000
18.33783 135.000
18.35778 126.000
18.37772 147.000
18.39767 137.000
18.41762 128.000
18.43756 137.000
18.45751 121.000
18.47746 105.000
18.49741 131.000
18.51735 144.000
18.53730 130.000
18.55725 153.000
18.57719 151.000
18.59714 163.000
18.61709 130.000
18.63703 142.000
18.65698 128.000
18.67693 165.000
18.69688 156.000
18.71682 123.000
18.73677 119.000
18.75672 153.000
18.77666 164.000
18.79661 166.000
18.81656 144.000
18.83650 151.000
18.85645 135.000
18.87640 144.000
18.89634 125.000
18.91629 140.000
18.93624 137.000
18.95619 175.000
18.97613 154.000
18.99608 160.000
19.01603 148.000
19.03597 144.000
19.05592 136.000
19.07587 149.000
19.09581 130.000
19.11576 160.000
19.13571 158.000
19.15566 147.000
19.17560 146.000
19.19555 145.000
19.21550 171.000
19.23544 154.000
19.25539 147.000
19.27534 186.000
19.29528 146.000
19.31523 153.000
19.33518 150.000
19.35513 136.000
19.37507 160.000
19.39502 157.000
19.41497 148.000
19.43491 159.000
19.45486 147.000
19.47481 147.000
19.49475 155.000
19.51470 173.000
19.53465 172.000
19.55459 162.000
19.57454 171.000
19.59449 172.000
19.61444 183.000
19.63438 158.000
19.65433 145.000
19.67428 169.000
19.69422 144.000
19.71417 177.000
19.73412 163.000
19.75406 170.000
19.77401 154.000
19.79396 155.000
19.81391 169.000
19.83385 162.000
19.85380 176.000
19.87375 156.000
19.89369 147.000
19.91364 170.000
19.93359 174.000
19.95353 183.000
19.97348 190.000
19.99343 177.000
20.01337 176.000
20.03332 171.000
20.05327 188.000
20.07322 197.000
20.09316 168.000
20.11311 175.000
20.13306 193.000
20.15300 192.000
20.17295 201.000
20.19290 205.000
20.21284 219.000
20.23279 235.000
20.25274 222.000
20.27269 222.000
20.29263 206.000
20.31258 214.000
20.33253 289.000
20.35247 272.000
20.37242 237.000
20.39237 268.000
20.41231 264.000
20.43226 269.000
20.45221 277.000
20.47215 252.000
20.49210 282.000
20.51205 223.000
20.53200 234.000
20.55194 222.000
20.57189 233.000
20.59184 219.000
20.61178 206.000
20.63173 216.000
20.65168 224.000
20.67162 202.000
20.69157 192.000
20.71152 167.000
20.73147 153.000
20.75141 177.000
20.77136 163.000
20.79131 167.000
20.81125 174.000
20.83120 161.000
20.85115 184.000
20.87109 165.000
20.89104 181.000
20.91099 152.000
20.93094 167.000
20.95088 156.000
20.97083 208.000
20.99078 155.000
21.01072 155.000
21.03067 155.000
21.05062 170.000
21.07056 180.000
21.09051 174.000
21.11046 176.000
21.13040 181.000
21.15035 187.000
21.17030 180.000
21.19025 209.000
21.21019 176.000
21.23014 153.000
21.25009 174.000
21.27003 181.000
21.28998 163.000
21.30993 190.000
21.32987 165.000
21.34982 163.000
21.36977 195.000
21.38972 168.000
21.40966 188.000
21.42961 164.000
21.44956 204.000
21.46950 166.000
21.48945 193.000
21.50940 172.000
21.52934 162.000
21.54929 214.000
21.56924 178.000
21.58918 175.000
21.60913 191.000
21.62908 154.000
21.64903 189.000
21.66897 193.000
21.68892 183.000
21.70887 187.000
21.72881 176.000
21.74876 170.000
21.76871 205.000
21.78865 171.000
21.80860 178.000
21.82855 182.000
21.84850 191.000
21.86844 193.000
21.88839 172.000
21.90834 178.000
21.92828 170.000
21.94823 198.000
21.96818 193.000
21.98812 214.000
22.00807 192.000
22.02802 175.000
22.04796 157.000
22.06791 203.000
22.08786 194.000
22.10781 185.000
22.12775 180.000
22.14770 196.000
22.16765 167.000
22.18759 187.000
22.20754 167.000
22.22749 187.000
22.24743 196.000
22.26738 193.000
22.28733 187.000
22.30728 190.000
22.32722 195.000
22.34717 187.000
22.36712 199.000
22.38706 181.000
22.40701 198.000
22.42696 183.000
22.44690 190.000
22.46685 207.000
22.48680 177.000
22.50675 190.000
22.52669 198.000
22.54664 190.000
22.56659 197.000
22.58653 184.000
22.60648 180.000
22.62643 203.000
22.64637 184.000
22.66632 191.000
22.68627 165.000
22.70621 175.000
22.72616 189.000
22.74611 178.000
22.76606 169.000
22.78600 201.000
22.80595 189.000
22.82590 179.000
22.84584 199.000
22.86579 188.000
22.88574 210.000
22.90568 202.000
22.92563 207.000
22.94558 227.000
22.96553 198.000
22.98547 197.000
23.00542 209.000
23.02537 203.000
23.04531 220.000
23.06526 230.000
23.08521 200.000
23.10515 187.000
23.12510 207.000
23.14505 172.000
23.16499 209.000
23.18494 190.000
23.20489 202.000
23.22484 195.000
23.24478 200.000
23.26473 195.000
23.28468 201.000
23.30462 155.000
23.32457 196.000
23.34452 189.000
23.36446 199.000
23.38441 180.000
23.40436 188.000
23.42431 205.000
23.44425 203.000
23.46420 207.000
23.48415 176.000
23.50409 250.000
23.52404 206.000
23.54399 209.000
23.56393 205.000
23.58388 199.000
23.60383 216.000
23.62377 207.000
23.64372 198.000
23.66367 217.000
23.68362 229.000
23.70356 213.000
23.72351 225.000
23.74346 203.000
23.76340 205.000
23.78335 210.000
23.80330 186.000
23.82324 220.000
23.84319 216.000
23.86314 210.000
23.88309 209.000
23.90303 210.000
23.92298 238.000
23.94293 190.000
23.96287 225.000
23.98282 207.000
24.00277 221.000
24.02271 203.000
24.04266 211.000
24.06261 231.000
24.08256 241.000
24.10250 189.000
24.12245 247.000
24.14240 203.000
24.16234 232.000
24.18229 231.000
24.20224 216.000
24.22218 228.000
24.24213 208.000
24.26208 235.000
24.28202 214.000
24.30197 242.000
24.32192 234.000
24.34187 213.000
24.36181 229.000
24.38176 221.000
24.40171 224.000
24.42165 221.000
24.44160 224.000
24.46155 248.000
24.48149 208.000
24.50144 214.000
24.52139 243.000
24.54134 200.000
24.56128 255.000
24.58123 201.000
24.60118 239.000
24.62112 244.000
24.64107 230.000
24.66102 255.000
24.68096 260.000
24.70091 227.000
24.72086 230.000
24.74080 231.000
24.76075 232.000
24.78070 245.000
24.80065 232.000
24.82059 256.000
24.84054 233.000
24.86049 222.000
24.88043 228.000
24.90038 238.000
24.92033 256.000
24.94027 194.000
24.96022 243.000
24.98017 228.000
25.00012 219.000
25.02006 227.000
25.04001 237.000
25.05996 239.000
25.07990 241.000
25.09985 247.000
25.11980 268.000
25.13974 263.000
25.15969 236.000
25.17964 258.000
25.19958 212.000
25.21953 224.000
25.23948 260.000
25.25943 228.000
25.27937 251.000
25.29932 250.000
25.31927 272.000
25.33921 243.000
25.35916 251.000
25.37911 269.000
25.39905 248.000
25.41900 249.000
25.43895 280.000
25.45890 285.000
25.47884 258.000
25.49879 259.000
25.51874 274.000
25.53868 241.000
25.55863 265.000
25.57858 253.000
25.59852 221.000
25.61847 259.000
25.63842 279.000
25.65837 252.000
25.67831 249.000
25.69826 235.000
25.71821 260.000
25.73815 267.000
25.75810 247.000
25.77805 272.000
25.79799 279.000
25.81794 272.000
25.83789 260.000
25.85783 244.000
25.87778 269.000
25.89773 270.000
25.91768 275.000
25.93762 260.000
25.95757 259.000
25.97752 266.000
25.99746 265.000
26.01741 286.000
26.03736 272.000
26.05730 277.000
26.07725 273.000
26.09720 262.000
26.11715 283.000
26.13709 252.000
26.15704 254.000
26.17699 278.000
26.19693 269.000
26.21688 287.000
26.23683 271.000
26.25677 289.000
26.27672 253.000
26.29667 254.000
26.31661 297.000
26.33656 282.000
26.35651 276.000
26.37646 300.000
26.39640 310.000
26.41635 294.000
26.43630 295.000
26.45624 284.000
26.47619 297.000
26.49614 256.000
26.51608 254.000
26.53603 296.000
26.55598 295.000
26.57593 304.000
26.59587 268.000
26.61582 280.000
26.63577 274.000
26.65571 284.000
26.67566 294.000
26.69561 305.000
26.71555 282.000
26.73550 291.000
26.75545 324.000
26.77539 306.000
26.79534 291.000
26.81529 294.000
26.83524 317.000
26.85518 307.000
26.87513 273.000
26.89508 293.000
26.91502 329.000
26.93497 296.000
26.95492 307.000
26.97486 282.000
26.99481 311.000
27.01476 313.000
27.03471 298.000
27.05465 353.000
27.07460 299.000
27.09455 299.000
27.11449 301.000
27.13444 316.000
27.15439 308.000
27.17433 340.000
27.19428 288.000
27.21423 304.000
27.23417 310.000
27.25412 293.000
27.27407 317.000
27.29402 305.000
27.31396 285.000
27.33391 319.000
27.35386 298.000
27.37380 311.000
27.39375 306.000
27.41370 317.000
27.43364 298.000
27.45359 320.000
27.47354 302.000
27.49349 289.000
27.51343 322.000
27.53338 297.000
27.55333 320.000
27.57327 346.000
27.59322 333.000
27.61317 326.000
27.63311 305.000
27.65306 329.000
27.67301 316.000
27.69296 295.000
27.71290 315.000
27.73285 320.000
27.75280 361.000
27.77274 362.000
27.79269 354.000
27.81264 283.000
27.83258 354.000
27.85253 359.000
27.87248 292.000
27.89242 331.000
27.91237 293.000
27.93232 348.000
27.95227 346.000
27.97221 330.000
27.99216 330.000
28.01211 313.000
28.03205 330.000
28.05200 347.000
28.07195 340.000
28.09189 321.000
28.11184 333.000
28.13179 273.000
28.15174 337.000
28.17168 315.000
28.19163 336.000
28.21158 339.000
28.23152 337.000
28.25147 324.000
28.27142 324.000
28.29136 336.000
28.31131 321.000
28.33126 332.000
28.35120 327.000
28.37115 340.000
28.39110 316.000
28.41105 337.000
28.43099 314.000
28.45094 326.000
28.47089 341.000
28.49083 363.000
28.51078 353.000
28.53073 339.000
28.55067 303.000
28.57062 339.000
28.59057 339.000
28.61052 348.000
28.63046 319.000
28.65041 324.000
28.67036 312.000
28.69030 319.000
28.71025 327.000
28.73020 327.000
28.75014 333.000
28.77009 307.000
28.79004 336.000
28.80998 363.000
28.82993 330.000
28.84988 340.000
28.86983 353.000
28.88977 345.000
28.90972 313.000
28.92967 330.000
28.94961 308.000
28.96956 328.000
28.98951 330.000
29.00945 329.000
29.02940 332.000
29.04935 359.000
29.06930 342.000
29.08924 315.000
29.10919 323.000
29.12914 334.000
29.14908 364.000
29.16903 362.000
29.18898 311.000
29.20892 336.000
29.22887 349.000
29.24882 327.000
29.26877 331.000
29.28871 296.000
29.30866 325.000
29.32861 351.000
29.34855 333.000
29.36850 371.000
29.38845 336.000
29.40839 367.000
29.42834 336.000
29.44829 387.000
29.46823 310.000
29.48818 324.000
29.50813 363.000
29.52808 344.000
29.54802 387.000
29.56797 361.000
29.58792 356.000
29.60786 379.000
29.62781 400.000
29.64776 391.000
29.66770 412.000
29.68765 446.000
29.70760 436.000
29.72755 470.000
29.74749 515.000
29.76744 472.000
29.78739 518.000
29.80733 502.000
29.82728 546.000
29.84723 593.000
29.86717 600.000
29.88712 572.000
29.90707 613.000
29.92701 677.000
29.94696 683.000
29.96691 694.000
29.98686 643.000
30.00680 592.000
30.02675 530.000
30.04670 492.000
30.06664 422.000
30.08659 380.000
30.10654 369.000
30.12648 386.000
30.14643 363.000
30.16638 326.000
30.18633 394.000
30.20627 328.000
30.22622 310.000
30.24617 417.000
30.26611 307.000
30.28606 317.000
30.30601 347.000
30.32595 333.000
30.34590 325.000
30.36585 318.000
30.38579 324.000
30.40574 336.000
30.42569 313.000
30.44564 326.000
30.46558 353.000
30.48553 300.000
30.50548 349.000
30.52542 327.000
30.54537 318.000
30.56532 317.000
30.58526 331.000
30.60521 318.000
30.62516 305.000
30.64511 321.000
30.66505 308.000
30.68500 287.000
30.70495 320.000
30.72489 354.000
30.74484 354.000
30.76479 333.000
30.78473 324.000
30.80468 310.000
30.82463 320.000
30.84458 287.000
30.86452 318.000
30.88447 342.000
30.90442 319.000
30.92436 322.000
30.94431 310.000
30.96426 332.000
30.98420 272.000
31.00415 334.000
31.02410 320.000
31.04404 302.000
31.06399 315.000
31.08394 340.000
31.10389 332.000
31.12383 323.000
31.14378 366.000
31.16373 324.000
31.18367 295.000
31.20362 301.000
31.22357 302.000
31.24351 297.000
31.26346 300.000
31.28341 303.000
31.30336 296.000
31.32330 317.000
31.34325 337.000
31.36320 350.000
31.38314 349.000
31.40309 342.000
31.42304 329.000
31.44298 342.000
31.46293 353.000
31.48288 323.000
31.50282 335.000
31.52277 316.000
31.54272 358.000
31.56267 344.000
31.58261 318.000
31.60256 320.000
31.62251 306.000
31.64245 336.000
31.66240 287.000
31.68235 313.000
31.70229 279.000
31.72224 297.000
31.74219 315.000
31.76214 313.000
31.78208 276.000
31.80203 319.000
31.82198 322.000
31.84192 290.000
31.86187 317.000
31.88182 307.000
31.90176 278.000
31.92171 309.000
31.94166 296.000
31.96160 321.000
31.98155 312.000
32.00150 304.000
32.02145 315.000
32.04139 283.000
32.06134 320.000
32.08129 275.000
32.10123 310.000
32.12118 331.000
32.14113 283.000
32.16107 294.000
32.18102 315.000
32.20097 288.000
32.22092 302.000
32.24086 327.000
32.26081 317.000
32.28076 281.000
32.30070 297.000
32.32065 302.000
32.34060 317.000
32.36054 302.000
32.38049 292.000
32.40044 350.000
32.42039 325.000
32.44033 308.000
32.46028 317.000
32.48023 310.000
32.50017 303.000
32.52012 272.000
32.54007 310.000
32.56001 314.000
32.57996 295.000
32.59991 291.000
32.61985 289.000
32.63980 269.000
32.65975 266.000
32.67970 260.000
32.69964 310.000
32.71959 263.000
32.73954 279.000
32.75948 294.000
32.77943 281.000
32.79938 285.000
32.81932 267.000
32.83927 272.000
32.85922 271.000
32.87917 247.000
32.89911 271.000
32.91906 278.000
32.93901 260.000
32.95895 294.000
32.97890 262.000
32.99885 288.000
33.01879 271.000
33.03874 223.000
33.05869 298.000
33.07863 282.000
33.09858 246.000
33.11853 246.000
33.13848 266.000
33.15842 291.000
33.17837 252.000
33.19832 278.000
33.21826 264.000
33.23821 252.000
33.25816 280.000
33.27810 286.000
33.29805 262.000
33.31800 280.000
33.33795 261.000
33.35789 284.000
33.37784 286.000
33.39779 295.000
33.41773 304.000
33.43768 285.000
33.45763 292.000
33.47757 276.000
33.49752 305.000
33.51747 323.000
33.53741 338.000
33.55736 329.000
33.57731 322.000
33.59726 322.000
33.61720 384.000
33.63715 363.000
33.65710 322.000
33.67704 373.000
33.69699 362.000
33.71694 347.000
33.73688 375.000
33.75683 392.000
33.77678 379.000
33.79673 376.000
33.81667 377.000
33.83662 325.000
33.85657 397.000
33.87651 356.000
33.89646 406.000
33.91641 355.000
33.93635 355.000
33.95630 384.000
33.97625 352.000
33.99620 339.000
34.01614 343.000
34.03609 327.000
34.05604 324.000
34.07598 337.000
34.09593 302.000
34.11588 308.000
34.13582 281.000
34.15577 299.000
34.17572 284.000
34.19566 291.000
34.21561 276.000
34.23556 282.000
34.25551 284.000
34.27545 253.000
34.29540 219.000
34.31535 274.000
34.33529 240.000
34.35524 255.000
34.37519 251.000
34.39513 196.000
34.41508 271.000
34.43503 231.000
34.45498 204.000
34.47492 236.000
34.49487 253.000
34.51482 243.000
34.53476 226.000
34.55471 254.000
34.57466 214.000
34.59460 229.000
34.61455 231.000
34.63450 255.000
34.65444 227.000
34.67439 226.000
34.69434 235.000
34.71429 272.000
34.73423 266.000
34.75418 286.000
34.77413 267.000
34.79407 309.000
34.81402 263.000
34.83397 309.000
34.85391 306.000
34.87386 336.000
34.89381 354.000
34.91376 361.000
34.93370 386.000
34.95365 419.000
34.97360 459.000
34.99354 478.000
35.01349 499.000
35.03344 582.000
35.05338 612.000
35.07333 678.000
35.09328 767.000
35.11322 842.000
35.13317 868.000
35.15312 964.000
35.17307 1055.000
35.19301 1083.000
35.21296 1213.000
35.23291 1155.000
35.25285 1290.000
35.27280 1319.000
35.29275 1377.000
35.31269 1411.000
35.33264 1428.000
35.35259 1401.000
35.37254 1279.000
35.39248 1112.000
35.41243 992.000
35.43238 826.000
35.45232 717.000
35.47227 573.000
35.49222 525.000
35.51216 411.000
35.53211 340.000
35.55206 331.000
35.57201 299.000
35.59195 267.000
35.61190 273.000
35.63185 265.000
35.65179 264.000
35.67174 220.000
35.69169 236.000
35.71163 239.000
35.73158 215.000
35.75153 223.000
35.77147 212.000
35.79142 211.000
35.81137 228.000
35.83132 206.000
35.85126 232.000
35.87121 202.000
35.89116 234.000
35.91110 223.000
35.93105 235.000
35.95100 224.000
35.97094 224.000
35.99089 227.000
36.01084 235.000
36.03079 227.000
36.05073 229.000
36.07068 250.000
36.09063 246.000
36.11057 238.000
36.13052 245.000
36.15047 229.000
36.17041 262.000
36.19036 268.000
36.21031 283.000
36.23025 277.000
36.25020 284.000
36.27015 289.000
36.29010 273.000
36.31004 274.000
36.32999 265.000
36.34994 268.000
36.36988 264.000
36.38983 275.000
36.40978 256.000
36.42972 281.000
36.44967 238.000
36.46962 270.000
36.48957 237.000
36.50951 235.000
36.52946 223.000
36.54941 230.000
36.56935 213.000
36.58930 228.000
36.60925 211.000
36.62919 251.000
36.64914 224.000
36.66909 241.000
36.68903 256.000
36.70898 242.000
36.72893 253.000
36.74888 215.000
36.76882 221.000
36.78877 222.000
36.80872 235.000
36.82866 251.000
36.84861 242.000
36.86856 247.000
36.88850 249.000
36.90845 225.000
36.92840 291.000
36.94835 270.000
36.96829 258.000
36.98824 231.000
37.00819 255.000
37.02813 253.000
37.04808 242.000
37.06803 221.000
37.08797 215.000
37.10792 196.000
37.12787 219.000
37.14781 188.000
37.16776 203.000
37.18771 192.000
37.20766 186.000
37.22760 163.000
37.24755 168.000
37.26750 179.000
37.28744 165.000
37.30739 172.000
37.32734 194.000
37.34728 172.000
37.36723 176.000
37.38718 199.000
37.40713 175.000
37.42707 186.000
37.44702 184.000
37.46697 174.000
37.48691 174.000
37.50686 171.000
37.52681 179.000
37.54675 186.000
37.56670 169.000
37.58665 177.000
37.60660 170.000
37.62654 163.000
37.64649 172.000
37.66644 180.000
37.68638 171.000
37.70633 176.000
37.72628 175.000
37.74622 181.000
37.76617 167.000
37.78612 180.000
37.80606 195.000
37.82601 169.000
37.84596 163.000
37.86591 185.000
37.88585 174.000
37.90580 178.000
37.92575 200.000
37.94569 164.000
37.96564 168.000
37.98559 182.000
38.00553 182.000
38.02548 154.000
38.04543 171.000
38.06538 178.000
38.08532 203.000
38.10527 167.000
38.12522 152.000
38.14516 182.000
38.16511 200.000
38.18506 168.000
38.20500 186.000
38.22495 182.000
38.24490 188.000
38.26484 202.000
38.28479 172.000
38.30474 165.000
38.32469 171.000
38.34463 171.000
38.36458 184.000
38.38453 195.000
38.40447 169.000
38.42442 191.000
38.44437 198.000
38.46431 194.000
38.48426 191.000
38.50421 199.000
38.52416 194.000
38.54410 231.000
38.56405 217.000
38.58400 212.000
38.60394 202.000
38.62389 204.000
38.64384 218.000
38.66378 229.000
38.68373 236.000
38.70368 243.000
38.72362 238.000
38.74357 254.000
38.76352 238.000
38.78347 214.000
38.80341 197.000
38.82336 229.000
38.84331 189.000
38.86325 198.000
38.88320 209.000
38.90315 204.000
38.92309 184.000
38.94304 191.000
38.96299 194.000
38.98294 208.000
39.00288 199.000
39.02283 187.000
39.04278 174.000
39.06272 184.000
39.08267 195.000
39.10262 170.000
39.12256 189.000
39.14251 158.000
39.16246 150.000
39.18241 178.000
39.20235 193.000
39.22230 190.000
39.24225 183.000
39.26219 189.000
39.28214 157.000
39.30209 176.000
39.32203 179.000
39.34198 176.000
39.36193 174.000
39.38187 171.000
39.40182 177.000
39.42177 162.000
39.44172 171.000
39.46166 182.000
39.48161 165.000
39.50156 167.000
39.52150 196.000
39.54145 155.000
39.56140 162.000
39.58134 187.000
39.60129 170.000
39.62124 179.000
39.64119 186.000
39.66113 187.000
39.68108 181.000
39.70103 182.000
39.72097 143.000
39.74092 161.000
39.76087 184.000
39.78081 170.000
39.80076 173.000
39.82071 172.000
39.84065 154.000
39.86060 195.000
39.88055 151.000
39.90050 173.000
39.92044 163.000
39.94039 177.000
39.96034 170.000
39.98028 172.000
40.00023 185.000
40.02018 175.000
40.04012 161.000
40.06007 166.000
40.08002 166.000
40.09997 168.000
40.11991 173.000
40.13986 174.000
40.15981 164.000
40.17975 165.000
40.19970 185.000
40.21965 183.000
40.23959 166.000
40.25954 157.000
40.27949 167.000
40.29943 167.000
40.31938 192.000
40.33933 180.000
40.35928 178.000
40.37922 156.000
40.39917 176.000
40.41912 201.000
40.43906 185.000
40.45901 156.000
40.47896 192.000
40.49890 183.000
40.51885 187.000
40.53880 190.000
40.55875 176.000
40.57869 194.000
40.59864 188.000
40.61859 174.000
40.63853 199.000
40.65848 184.000
40.67843 181.000
40.69837 225.000
40.71832 201.000
40.73827 197.000
40.75822 200.000
40.77816 218.000
40.79811 190.000
40.81806 243.000
40.83800 244.000
40.85795 257.000
40.87790 266.000
40.89784 316.000
40.91779 301.000
40.93774 361.000
40.95768 356.000
40.97763 397.000
40.99758 443.000
41.01753 505.000
41.03747 539.000
41.05742 562.000
41.07737 603.000
41.09731 595.000
41.11726 642.000
41.13721 621.000
41.15715 684.000
41.17710 600.000
41.19705 549.000
41.21700 519.000
41.23694 496.000
41.25689 447.000
41.27684 387.000
41.29678 343.000
41.31673 302.000
41.33668 267.000
41.35662 238.000
41.37657 262.000
41.39652 222.000
41.41646 215.000
41.43641 239.000
41.45636 212.000
41.47631 211.000
41.49625 203.000
41.51620 212.000
41.53615 152.000
41.55609 196.000
41.57604 177.000
41.59599 178.000
41.61593 177.000
41.63588 178.000
41.65583 188.000
41.67578 202.000
41.69572 174.000
41.71567 196.000
41.73562 164.000
41.75556 196.000
41.77551 170.000
41.79546 171.000
41.81540 151.000
41.83535 184.000
41.85530 167.000
41.87524 178.000
41.89519 157.000
41.91514 168.000
41.93509 170.000
41.95503 188.000
41.97498 182.000
41.99493 174.000
42.01487 213.000
42.03482 152.000
42.05477 187.000
42.07471 164.000
42.09466 162.000
42.11461 179.000
42.13456 173.000
42.15450 164.000
42.17445 177.000
42.19440 182.000
42.21434 176.000
42.23429 150.000
42.25424 179.000
42.27418 175.000
42.29413 151.000
42.31408 186.000
42.33403 181.000
42.35397 163.000
42.37392 168.000
42.39387 177.000
42.41381 162.000
42.43376 163.000
42.45371 167.000
42.47365 182.000
42.49360 168.000
42.51355 162.000
42.53349 161.000
42.55344 190.000
42.57339 193.000
42.59334 200.000
42.61328 204.000
42.63323 199.000
42.65318 204.000
42.67312 229.000
42.69307 243.000
42.71302 239.000
42.73296 262.000
42.75291 268.000
42.77286 267.000
42.79281 322.000
42.81275 307.000
42.83270 336.000
42.85265 323.000
42.87259 372.000
42.89254 382.000
42.91249 380.000
42.93243 449.000
42.95238 428.000
42.97233 434.000
42.99227 403.000
43.01222 418.000
43.03217 434.000
43.05212 422.000
43.07206 367.000
43.09201 368.000
43.11196 313.000
43.13190 278.000
43.15185 262.000
43.17180 263.000
43.19174 230.000
43.21169 226.000
43.23164 186.000
43.25159 180.000
43.27153 182.000
43.29148 183.000
43.31143 161.000
43.33137 147.000
43.35132 159.000
43.37127 159.000
43.39121 154.000
43.41116 133.000
43.43111 146.000
43.45105 166.000
43.47100 158.000
43.49095 159.000
43.51090 148.000
43.53084 150.000
43.55079 154.000
43.57074 158.000
43.59068 149.000
43.61063 134.000
43.63058 135.000
43.65052 163.000
43.67047 177.000
43.69042 143.000
43.71037 144.000
43.73031 160.000
43.75026 161.000
43.77021 155.000
43.79015 177.000
43.81010 158.000
43.83005 151.000
43.84999 131.000
43.86994 166.000
43.88989 132.000
43.90984 163.000
43.92978 133.000
43.94973 169.000
43.96968 161.000
43.98962 164.000
44.00957 143.000
44.02952 171.000
44.04946 135.000
44.06941 144.000
44.08936 138.000
44.10930 144.000
44.12925 153.000
44.14920 141.000
44.16915 154.000
44.18909 161.000
44.20904 146.000
44.22899 158.000
44.24893 145.000
44.26888 158.000
44.28883 169.000
44.30877 156.000
44.32872 150.000
44.34867 152.000
44.36862 152.000
44.38856 169.000
44.40851 172.000
44.42846 152.000
44.44840 158.000
44.46835 166.000
44.48830 155.000
44.50824 152.000
44.52819 162.000
44.54814 174.000
44.56808 146.000
44.58803 158.000
44.60798 172.000
44.62793 126.000
44.64787 140.000
44.66782 131.000
44.68777 118.000
44.70771 137.000
44.72766 142.000
44.74761 137.000
44.76755 130.000
44.78750 112.000
44.80745 118.000
44.82740 148.000
44.84734 138.000
44.86729 123.000
44.88724 138.000
44.90718 127.000
44.92713 130.000
44.94708 131.000
44.96702 119.000
44.98697 126.000
45.00692 115.000
45.02686 140.000
45.04681 126.000
45.06676 135.000
45.08671 131.000
45.10665 145.000
45.12660 108.000
45.14655 124.000
45.16649 126.000
45.18644 114.000
45.20639 129.000
45.22633 121.000
45.24628 122.000
45.26623 130.000
45.28618 129.000
45.30612 120.000
45.32607 104.000
45.34602 132.000
45.36596 139.000
45.38591 115.000
45.40586 120.000
45.42580 131.000
45.44575 121.000
45.46570 136.000
45.48565 118.000
45.50559 122.000
45.52554 121.000
45.54549 108.000
45.56543 120.000
45.58538 129.000
45.60533 129.000
45.62527 118.000
45.64522 122.000
45.66517 130.000
45.68511 130.000
45.70506 116.000
45.72501 118.000
45.74496 112.000
45.76490 114.000
45.78485 127.000
45.80480 119.000
45.82474 140.000
45.84469 128.000
45.86464 121.000
45.88458 119.000
45.90453 130.000
45.92448 117.000
45.94443 135.000
45.96437 106.000
45.98432 132.000
46.00427 101.000
46.02421 135.000
46.04416 117.000
46.06411 117.000
46.08405 121.000
46.10400 139.000
46.12395 125.000
46.14389 115.000
46.16384 118.000
46.18379 108.000
46.20374 127.000
46.22368 122.000
46.24363 145.000
46.26358 104.000
46.28352 122.000
46.30347 131.000
46.32342 139.000
46.34336 125.000
46.36331 101.000
46.38326 122.000
46.40321 116.000
46.42315 130.000
46.44310 121.000
46.46305 115.000
46.48299 112.000
46.50294 115.000
46.52289 136.000
46.54283 114.000
46.56278 116.000
46.58273 122.000
46.60267 111.000
46.62262 130.000
46.64257 106.000
46.66252 135.000
46.68246 104.000
46.70241 123.000
46.72236 120.000
46.74230 139.000
46.76225 131.000
46.78220 114.000
46.80214 113.000
46.82209 128.000
46.84204 107.000
46.86199 100.000
46.88193 124.000
46.90188 132.000
46.92183 125.000
46.94177 111.000
46.96172 126.000
46.98167 126.000
47.00161 101.000
47.02156 128.000
47.04151 105.000
47.06146 111.000
47.08140 118.000
47.10135 127.000
47.12130 141.000
47.14124 124.000
47.16119 118.000
47.18114 127.000
47.20108 111.000
47.22103 114.000
47.24098 102.000
47.26092 113.000
47.28087 120.000
47.30082 99.000
47.32077 109.000
47.34071 123.000
47.36066 127.000
47.38061 119.000
47.40055 118.000
47.42050 112.000
47.44045 105.000
47.46039 109.000
47.48034 126.000
47.50029 112.000
47.52024 113.000
47.54018 114.000
47.56013 122.000
47.58008 110.000
47.60002 110.000
47.61997 122.000
47.63992 108.000
47.65986 123.000
47.67981 110.000
47.69976 116.000
47.71970 109.000
47.73965 126.000
47.75960 101.000
47.77955 108.000
47.79949 130.000
47.81944 149.000
47.83939 129.000
47.85933 114.000
47.87928 116.000
47.89923 120.000
47.91917 148.000
47.93912 160.000
47.95907 157.000
47.97902 148.000
47.99896 165.000
48.01891 156.000
48.03886 183.000
48.05880 155.000
48.07875 195.000
48.09870 162.000
48.11864 168.000
48.13859 174.000
48.15854 174.000
48.17848 155.000
48.19843 154.000
48.21838 159.000
48.23833 148.000
48.25827 158.000
48.27822 159.000
48.29817 153.000
48.31811 145.000
48.33806 143.000
48.35801 154.000
48.37795 125.000
48.39790 135.000
48.41785 133.000
48.43780 139.000
48.45774 131.000
48.47769 130.000
48.49764 122.000
48.51758 130.000
48.53753 118.000
48.55748 130.000
48.57742 103.000
48.59737 118.000
48.61732 107.000
48.63726 118.000
48.65721 126.000
48.67716 116.000
48.69711 120.000
48.71705 110.000
48.73700 129.000
48.75695 125.000
48.77689 120.000
48.79684 118.000
48.81679 104.000
48.83673 108.000
48.85668 113.000
48.87663 125.000
48.89658 139.000
48.91652 98.000
48.93647 123.000
48.95642 137.000
48.97636 142.000
48.99631 139.000
49.01626 126.000
49.03620 107.000
49.05615 107.000
49.07610 128.000
49.09605 120.000
49.11599 124.000
49.13594 118.000
49.15589 131.000
49.17583 129.000
49.19578 129.000
49.21573 100.000
49.23567 123.000
49.25562 104.000
49.27557 100.000
49.29551 98.000
49.31546 104.000
49.33541 130.000
49.35536 94.000
49.37530 122.000
49.39525 93.000
49.41520 97.000
49.43514 107.000
49.45509 102.000
49.47504 86.000
49.49498 106.000
49.51493 104.000
49.53488 102.000
49.55483 92.000
49.57477 103.000
49.59472 103.000
49.61467 113.000
49.63461 107.000
49.65456 94.000
49.67451 115.000
49.69445 104.000
49.71440 100.000
49.73435 95.000
49.75429 115.000
49.77424 94.000
49.79419 94.000
49.81414 84.000
49.83408 101.000
49.85403 98.000
49.87398 104.000
49.89392 103.000
49.91387 87.000
49.93382 79.000
49.95376 97.000
49.97371 112.000
49.99366 94.000
50.01361 115.000
50.03355 119.000
50.05350 99.000
50.07345 95.000
50.09339 96.000
50.11334 94.000
50.13329 86.000
50.15323 111.000
50.17318 104.000
50.19313 90.000
50.21307 116.000
50.23302 105.000
50.25297 112.000
50.27292 79.000
50.29286 112.000
50.31281 110.000
50.33276 101.000
50.35270 104.000
50.37265 121.000
50.39260 99.000
50.41254 101.000
50.43249 97.000
50.45244 94.000
50.47239 85.000
50.49233 100.000
50.51228 97.000
50.53223 91.000
50.55217 89.000
50.57212 95.000
50.59207 92.000
50.61201 93.000
50.63196 101.000
50.65191 87.000
50.67186 95.000
50.69180 99.000
50.71175 98.000
50.73170 81.000
50.75164 101.000
50.77159 107.000
50.79154 95.000
50.81148 96.000
50.83143 107.000
50.85138 87.000
50.87132 80.000
50.89127 85.000
50.91122 101.000
50.93117 83.000
50.95111 90.000
50.97106 102.000
50.99101 95.000
51.01095 113.000
51.03090 101.000
51.05085 86.000
51.07079 87.000
51.09074 94.000
51.11069 109.000
51.13064 105.000
51.15058 91.000
51.17053 77.000
51.19048 106.000
51.21042 85.000
51.23037 101.000
51.25032 96.000
51.27026 99.000
51.29021 103.000
51.31016 102.000
51.33010 93.000
51.35005 95.000
51.37000 98.000
51.38995 77.000
51.40989 94.000
51.42984 89.000
51.44979 96.000
51.46973 97.000
51.48968 90.000
51.50963 95.000
51.52957 106.000
51.54952 96.000
51.56947 92.000
51.58942 108.000
51.60936 101.000
51.62931 102.000
51.64926 94.000
51.66920 92.000
51.68915 93.000
51.70910 103.000
51.72904 81.000
51.74899 93.000
51.76894 102.000
51.78888 111.000
51.80883 86.000
51.82878 90.000
51.84873 96.000
51.86867 86.000
51.88862 96.000
51.90857 95.000
51.92851 90.000
51.94846 107.000
51.96841 101.000
51.98835 101.000
52.00830 110.000
52.02825 89.000
52.04820 116.000
52.06814 106.000
52.08809 97.000
52.10804 98.000
52.12798 107.000
52.14793 94.000
52.16788 95.000
52.18782 113.000
52.20777 121.000
52.22772 131.000
52.24767 114.000
52.26761 143.000
52.28756 115.000
52.30751 127.000
52.32745 156.000
52.34740 140.000
52.36735 155.000
52.38729 178.000
52.40724 165.000
52.42719 168.000
52.44713 157.000
52.46708 166.000
52.48703 165.000
52.50698 179.000
52.52692 172.000
52.54687 145.000
52.56682 147.000
52.58676 139.000
52.60671 116.000
52.62666 121.000
52.64660 137.000
52.66655 114.000
52.68650 122.000
52.70645 114.000
52.72639 150.000
52.74634 103.000
52.76629 97.000
52.78623 101.000
52.80618 104.000
52.82613 97.000
52.84607 110.000
52.86602 96.000
52.88597 100.000
52.90591 102.000
52.92586 130.000
52.94581 107.000
52.96576 109.000
52.98570 112.000
53.00565 102.000
53.02560 116.000
53.04554 120.000
53.06549 101.000
53.08544 115.000
53.10538 103.000
53.12533 146.000
53.14528 143.000
53.16523 125.000
53.18517 144.000
53.20512 149.000
53.22507 132.000
53.24501 171.000
53.26496 145.000
53.28491 152.000
53.30485 154.000
53.32480 155.000
53.34475 184.000
53.36469 178.000
53.38464 193.000
53.40459 204.000
53.42454 238.000
53.44448 215.000
53.46443 208.000
53.48438 204.000
53.50432 179.000
53.52427 182.000
53.54422 174.000
53.56416 191.000
53.58411 154.000
53.60406 156.000
53.62401 151.000
53.64395 136.000
53.66390 122.000
53.68385 138.000
53.70379 129.000
53.72374 105.000
53.74369 93.000
53.76363 100.000
53.78358 93.000
53.80353 101.000
53.82348 100.000
53.84342 88.000
53.86337 114.000
53.88332 109.000
53.90326 103.000
53.92321 110.000
53.94316 105.000
53.96310 111.000
53.98305 82.000
54.00300 103.000
54.02294 102.000
54.04289 97.000
54.06284 106.000
54.08279 105.000
54.10273 83.000
54.12268 81.000
54.14263 108.000
54.16257 99.000
54.18252 114.000
54.20247 78.000
54.22241 88.000
54.24236 101.000
54.26231 102.000
54.28226 98.000
54.30220 104.000
54.32215 71.000
54.34210 100.000
54.36204 99.000
54.38199 91.000
54.40194 94.000
54.42188 102.000
54.44183 103.000
54.46178 81.000
54.48172 94.000
54.50167 101.000
54.52162 93.000
54.54157 103.000
54.56151 100.000
54.58146 83.000
54.60141 90.000
54.62135 106.000
54.64130 106.000
54.66125 90.000
54.68119 95.000
54.70114 96.000
54.72109 98.000
54.74104 108.000
54.76098 97.000
54.78093 107.000
54.80088 106.000
54.82082 97.000
54.84077 83.000
54.86072 81.000
54.88066 88.000
54.90061 88.000
54.92056 109.000
54.94050 97.000
54.96045 115.000
54.98040 114.000
55.00035 89.000
55.02029 97.000
55.04024 86.000
55.06019 97.000
55.08013 96.000
55.10008 94.000
55.12003 108.000
55.13997 89.000
55.15992 103.000
55.17987 87.000
55.19982 100.000
55.21976 80.000
55.23971 98.000
55.25966 107.000
55.27960 102.000
55.29955 83.000
55.31950 85.000
55.33944 94.000
55.35939 80.000
55.37934 92.000
55.39929 103.000
55.41923 82.000
55.43918 86.000
55.45913 69.000
55.47907 86.000
55.49902 98.000
55.51897 104.000
55.53891 112.000
55.55886 92.000
55.57881 86.000
55.59875 104.000
55.61870 92.000
55.63865 88.000
55.65860 77.000
55.67854 98.000
55.69849 107.000
55.71844 87.000
55.73838 96.000
55.75833 99.000
55.77828 99.000
55.79822 108.000
55.81817 88.000
55.83812 79.000
55.85807 101.000
55.87801 118.000
55.89796 94.000
55.91791 103.000
55.93785 75.000
55.95780 85.000
55.97775 110.000
55.99769 73.000
56.01764 89.000
56.03759 90.000
56.05753 81.000
56.07748 84.000
56.09743 87.000
56.11738 103.000
56.13732 85.000
56.15727 83.000
56.17722 89.000
56.19716 87.000
56.21711 97.000
56.23706 98.000
56.25700 113.000
56.27695 92.000
56.29690 117.000
56.31685 96.000
56.33679 95.000
56.35674 79.000
56.37669 97.000
56.39663 112.000
56.41658 101.000
56.43653 124.000
56.45647 123.000
56.47642 119.000
56.49637 128.000
56.51631 123.000
56.53626 113.000
56.55621 143.000
56.57616 130.000
56.59610 155.000
56.61605 156.000
56.63600 156.000
56.65594 177.000
56.67589 174.000
56.69584 192.000
56.71578 196.000
56.73573 210.000
56.75568 201.000
56.77563 285.000
56.79557 269.000
56.81552 310.000
56.83547 348.000
56.85541 329.000
56.87536 351.000
56.89531 374.000
56.91525 392.000
56.93520 439.000
56.95515 483.000
56.97510 487.000
56.99504 512.000
57.01499 499.000
57.03494 498.000
57.05488 472.000
57.07483 461.000
57.09478 419.000
57.11472 352.000
57.13467 366.000
57.15462 374.000
57.17456 347.000
57.19451 305.000
57.21446 291.000
57.23441 271.000
57.25435 255.000
57.27430 210.000
57.29425 196.000
57.31419 172.000
57.33414 153.000
57.35409 141.000
57.37403 137.000
57.39398 135.000
57.41393 143.000
57.43388 126.000
57.45382 131.000
57.47377 123.000
57.49372 106.000
57.51366 116.000
57.53361 114.000
57.55356 93.000
57.57350 110.000
57.59345 100.000
57.61340 91.000
57.63334 96.000
57.65329 101.000
57.67324 84.000
57.69319 111.000
57.71313 106.000
57.73308 91.000
57.75303 84.000
57.77297 98.000
57.79292 87.000
57.81287 99.000
57.83281 92.000
57.85276 83.000
57.87271 78.000
57.89266 95.000
57.91260 101.000
57.93255 94.000
57.95250 88.000
57.97244 111.000
57.99239 80.000
58.01234 76.000
58.03228 70.000
58.05223 98.000
58.07218 101.000
58.09212 102.000
58.11207 78.000
58.13202 79.000
58.15197 86.000
58.17191 81.000
58.19186 84.000
58.21181 72.000
58.23175 99.000
58.25170 87.000
58.27165 84.000
58.29159 71.000
58.31154 72.000
58.33149 89.000
58.35144 89.000
58.37138 77.000
58.39133 90.000
58.41128 95.000
58.43122 82.000
58.45117 87.000
58.47112 75.000
58.49106 84.000
58.51101 97.000
58.53096 81.000
58.55090 92.000
58.57085 91.000
58.59080 79.000
58.61075 91.000
58.63069 88.000
58.65064 107.000
58.67059 89.000
58.69053 100.000
58.71048 83.000
58.73043 96.000
58.75037 96.000
58.77032 76.000
58.79027 88.000
58.81022 63.000
58.83016 88.000
58.85011 81.000
58.87006 83.000
58.89000 75.000
58.90995 86.000
58.92990 78.000
58.94984 81.000
58.96979 75.000
58.98974 73.000
59.00969 78.000
59.02963 87.000
59.04958 85.000
59.06953 101.000
59.08947 91.000
59.10942 89.000
59.12937 78.000
59.14931 61.000
59.16926 89.000
59.18921 86.000
59.20915 71.000
59.22910 75.000
59.24905 90.000
59.26900 86.000
59.28894 87.000
59.30889 78.000
59.32884 86.000
59.34878 88.000
59.36873 89.000
59.38868 83.000
59.40862 85.000
59.42857 91.000
59.44852 95.000
59.46847 90.000
59.48841 76.000
59.50836 87.000
59.52831 91.000
59.54825 83.000
59.56820 103.000
59.58815 96.000
59.60809 77.000
59.62804 85.000
59.64799 83.000
59.66793 76.000
59.68788 104.000
59.70783 85.000
59.72778 67.000
59.74772 71.000
59.76767 90.000
59.78762 100.000
59.80756 82.000
59.82751 85.000
59.84746 96.000
59.86740 76.000
59.88735 78.000
59.90730 80.000
59.92725 98.000
59.94719 86.000
59.96714 93.000
59.98709 94.000
60.00703 92.000
60.02698 78.000
60.04693 71.000
60.06687 79.000
60.08682 79.000
60.10677 98.000
60.12671 84.000
60.14666 87.000
60.16661 95.000
60.18656 82.000
60.20650 99.000
60.22645 115.000
60.24640 88.000
60.26634 102.000
60.28629 81.000
60.30624 89.000
60.32618 107.000
60.34613 110.000
60.36608 98.000
60.38603 119.000
60.40597 117.000
60.42592 97.000
60.44587 102.000
60.46581 113.000
60.48576 102.000
60.50571 95.000
60.52565 119.000
60.54560 117.000
60.56555 111.000
60.58550 121.000
60.60544 121.000
60.62539 99.000
60.64534 111.000
60.66528 99.000
60.68523 109.000
60.70518 110.000
60.72512 103.000
60.74507 107.000
60.76502 105.000
60.78496 106.000
60.80491 123.000
60.82486 121.000
60.84481 111.000
60.86475 100.000
60.88470 115.000
60.90465 123.000
60.92459 112.000
60.94454 107.000
60.96449 135.000
60.98443 130.000
61.00438 116.000
61.02433 96.000
61.04428 116.000
61.06422 122.000
61.08417 125.000
61.10412 125.000
61.12406 107.000
61.14401 131.000
61.16396 116.000
61.18390 124.000
61.20385 129.000
61.22380 109.000
61.24374 131.000
61.26369 139.000
61.28364 151.000
61.30359 120.000
61.32353 123.000
61.34348 116.000
61.36343 123.000
61.38337 123.000
61.40332 121.000
61.42327 122.000
61.44321 118.000
61.46316 135.000
61.48311 113.000
61.50306 132.000
61.52300 118.000
61.54295 96.000
61.56290 92.000
61.58284 103.000
61.60279 91.000
61.62274 88.000
61.64268 92.000
61.66263 99.000
61.68258 117.000
61.70252 111.000
61.72247 111.000
61.74242 103.000
61.76237 89.000
61.78231 96.000
61.80226 92.000
61.82221 132.000
61.84215 105.000
61.86210 114.000
61.88205 96.000
61.90199 88.000
61.92194 114.000
61.94189 115.000
61.96184 123.000
61.98178 101.000
62.00173 142.000
62.02168 132.000
62.04162 160.000
62.06157 135.000
62.08152 145.000
62.10146 149.000
62.12141 157.000
62.14136 168.000
62.16131 181.000
62.18125 182.000
62.20120 194.000
62.22115 170.000
62.24109 214.000
62.26104 195.000
62.28099 242.000
62.30093 249.000
62.32088 260.000
62.34083 247.000
62.36077 278.000
62.38072 271.000
62.40067 316.000
62.42062 307.000
62.44056 299.000
62.46051 339.000
62.48046 367.000
62.50040 414.000
62.52035 443.000
62.54030 450.000
62.56024 492.000
62.58019 532.000
62.60014 543.000
62.62009 562.000
62.64003 554.000
62.65998 574.000
62.67993 551.000
62.69987 588.000
62.71982 487.000
62.73977 467.000
62.75971 409.000
62.77966 400.000
62.79961 417.000
62.81955 394.000
62.83950 322.000
62.85945 309.000
62.87940 243.000
62.89934 299.000
62.91929 222.000
62.93924 188.000
62.95918 165.000
62.97913 147.000
62.99908 145.000
63.01902 130.000
63.03897 106.000
63.05892 122.000
63.07887 102.000
63.09881 108.000
63.11876 101.000
63.13871 112.000
63.15865 116.000
63.17860 112.000
63.19855 105.000
63.21849 97.000
63.23844 117.000
63.25839 97.000
63.27833 141.000
63.29828 98.000
63.31823 107.000
63.33818 101.000
63.35812 117.000
63.37807 104.000
63.39802 103.000
63.41796 131.000
63.43791 101.000
63.45786 107.000
63.47780 124.000
63.49775 104.000
63.51770 99.000
63.53765 101.000
63.55759 97.000
63.57754 108.000
63.59749 91.000
63.61743 105.000
63.63738 72.000
63.65733 104.000
63.67727 87.000
63.69722 109.000
63.71717 78.000
63.73712 88.000
63.75706 88.000
63.77701 90.000
63.79696 98.000
63.81690 107.000
63.83685 79.000
63.85680 86.000
63.87674 96.000
63.89669 70.000
63.91664 79.000
63.93658 117.000
63.95653 84.000
63.97648 93.000
63.99643 69.000
64.01637 83.000
64.03632 73.000
64.05627 80.000
64.07621 85.000
64.09616 82.000
64.11611 91.000
64.13605 101.000
64.15600 97.000
64.17595 82.000
64.19590 85.000
64.21584 75.000
64.23579 79.000
64.25574 67.000
64.27568 77.000
64.29563 77.000
64.31558 82.000
64.33552 84.000
64.35547 82.000
64.37542 79.000
64.39536 86.000
64.41531 97.000
64.43526 83.000
64.45521 93.000
64.47515 75.000
64.49510 89.000
64.51505 112.000
64.53499 91.000
64.55494 88.000
64.57489 106.000
64.59483 107.000
64.61478 111.000
64.63473 105.000
64.65468 100.000
64.67462 92.000
64.69457 86.000
64.71452 101.000
64.73446 102.000
64.75441 103.000
64.77436 103.000
64.79430 117.000
64.81425 98.000
64.83420 97.000
64.85414 120.000
64.87409 116.000
64.89404 115.000
64.91399 102.000
64.93393 101.000
64.95388 106.000
64.97383 111.000
64.99377 113.000
65.01372 120.000
65.03367 101.000
65.05361 114.000
65.07356 113.000
65.09351 104.000
65.11346 107.000
65.13340 98.000
65.15335 110.000
65.17330 96.000
65.19324 99.000
65.21319 88.000
65.23314 108.000
65.25308 99.000
65.27303 90.000
65.29298 100.000
65.31293 117.000
65.33287 92.000
65.35282 89.000
65.37277 102.000
65.39271 99.000
65.41266 94.000
65.43261 84.000
65.45255 90.000
65.47250 99.000
65.49245 86.000
65.51239 98.000
65.53234 111.000
65.55229 93.000
65.57224 88.000
65.59218 79.000
65.61213 81.000
65.63208 111.000
65.65202 90.000
65.67197 83.000
65.69192 113.000
65.71186 90.000
65.73181 89.000
65.75176 93.000
65.77171 105.000
65.79165 93.000
65.81160 118.000
65.83155 101.000
65.85149 99.000
65.87144 100.000
65.89139 90.000
65.91133 97.000
65.93128 110.000
65.95123 89.000
65.97117 98.000
65.99112 81.000
66.01107 100.000
66.03102 76.000
66.05096 88.000
66.07091 78.000
66.09086 91.000
66.11080 87.000
66.13075 101.000
66.15070 84.000
66.17064 87.000
66.19059 76.000
66.21054 79.000
66.23049 87.000
66.25043 92.000
66.27038 81.000
66.29033 76.000
66.31027 85.000
66.33022 75.000
66.35017 93.000
66.37011 89.000
66.39006 92.000
66.41001 75.000
66.42995 85.000
66.44990 78.000
66.46985 104.000
66.48980 85.000
66.50974 82.000
66.52969 76.000
66.54964 80.000
66.56958 82.000
66.58953 101.000
66.60948 67.000
66.62942 86.000
66.64937 87.000
66.66932 68.000
66.68927 92.000
66.70921 88.000
66.72916 78.000
66.74911 73.000
66.76905 79.000
66.78900 79.000
66.80895 79.000
66.82889 76.000
66.84884 72.000
66.86879 69.000
66.88874 86.000
66.90868 79.000
66.92863 75.000
66.94858 72.000
66.96852 80.000
66.98847 83.000
67.00842 94.000
67.02836 86.000
67.04831 72.000
67.06826 81.000
67.08820 86.000
67.10815 96.000
67.12810 92.000
67.14805 97.000
67.16799 82.000
67.18794 91.000
67.20789 100.000
67.22783 94.000
67.24778 85.000
67.26773 96.000
67.28767 94.000
67.30762 94.000
67.32757 106.000
67.34752 81.000
67.36746 84.000
67.38741 96.000
67.40736 98.000
67.42730 76.000
67.44725 89.000
67.46720 90.000
67.48714 91.000
67.50709 82.000
67.52704 88.000
67.54698 81.000
67.56693 83.000
67.58688 95.000
67.60683 93.000
67.62677 78.000
67.64672 83.000
67.66667 85.000
67.68661 89.000
67.70656 77.000
67.72651 74.000
67.74645 85.000
67.76640 80.000
67.78635 72.000
67.80630 76.000
67.82624 77.000
67.84619 76.000
67.86614 80.000
67.88608 66.000
67.90603 90.000
67.92598 86.000
67.94592 79.000
67.96587 74.000
67.98582 86.000
68.00576 71.000
68.02571 84.000
68.04566 89.000
68.06561 72.000
68.08555 56.000
68.10550 69.000
68.12545 64.000
68.14539 79.000
68.16534 80.000
68.18529 80.000
68.20523 77.000
68.22518 83.000
68.24513 81.000
68.26508 70.000
68.28502 93.000
68.30497 77.000
68.32492 72.000
68.34486 83.000
68.36481 81.000
68.38476 73.000
68.40470 77.000
68.42465 87.000
68.44460 73.000
68.46455 79.000
68.48449 83.000
68.50444 77.000
68.52439 74.000
68.54433 83.000
68.56428 85.000
68.58423 78.000
68.60417 88.000
68.62412 84.000
68.64407 87.000
68.66401 63.000
68.68396 78.000
68.70391 81.000
68.72386 79.000
68.74380 59.000
68.76375 79.000
68.78370 70.000
68.80364 77.000
68.82359 81.000
68.84354 66.000
68.86348 72.000
68.88343 61.000
68.90338 77.000
68.92333 69.000
68.94327 88.000
68.96322 68.000
68.98317 69.000
69.00311 74.000
69.02306 80.000
69.04301 77.000
69.06295 70.000
69.08290 55.000
69.10285 64.000
69.12279 67.000
69.14274 70.000
69.16269 66.000
69.18264 71.000
69.20258 82.000
69.22253 71.000
69.24248 69.000
69.26242 73.000
69.28237 76.000
69.30232 74.000
69.32226 65.000
69.34221 74.000
69.36216 75.000
69.38211 71.000
69.40205 67.000
69.42200 75.000
69.44195 92.000
69.46189 57.000
69.48184 65.000
69.50179 80.000
69.52173 84.000
69.54168 73.000
69.56163 64.000
69.58157 64.000
69.60152 88.000
69.62147 79.000
69.64142 72.000
69.66136 61.000
69.68131 72.000
69.70126 77.000
69.72120 72.000
69.74115 62.000
69.76110 66.000
69.78104 75.000
69.80099 65.000
69.82094 78.000
69.84089 57.000
69.86083 76.000
69.88078 70.000
69.90073 85.000
69.92067 58.000
69.94062 73.000
69.96057 79.000
69.98051 81.000
70.00046 59.000
70.02041 73.000
70.04035 65.000
70.06030 68.000
70.08025 51.000
70.10020 50.000
70.12014 72.000
70.14009 63.000
70.16004 80.000
70.17998 88.000
70.19993 73.000
70.21988 70.000
70.23982 77.000
70.25977 75.000
70.27972 63.000
70.29967 80.000
70.31961 63.000
70.33956 58.000
70.35951 72.000
70.37945 66.000
70.39940 78.000
70.41935 68.000
70.43929 58.000
70.45924 69.000
70.47919 70.000
70.49914 58.000
70.51908 83.000
70.53903 73.000
70.55898 64.000
70.57892 75.000
70.59887 77.000
70.61882 67.000
70.63876 88.000
70.65871 66.000
70.67866 66.000
70.69860 77.000
70.71855 66.000
70.73850 81.000
70.75845 72.000
70.77839 74.000
70.79834 85.000
70.81829 73.000
70.83823 80.000
70.85818 76.000
70.87813 72.000
70.89807 76.000
70.91802 78.000
70.93797 89.000
70.95792 87.000
70.97786 99.000
70.99781 101.000
71.01776 84.000
71.03770 105.000
71.05765 92.000
71.07760 100.000
71.09754 102.000
71.11749 97.000
71.13744 97.000
71.15738 96.000
71.17733 97.000
71.19728 94.000
71.21723 95.000
71.23717 102.000
71.25712 89.000
71.27707 108.000
71.29701 86.000
71.31696 107.000
71.33691 95.000
71.35685 80.000
71.37680 92.000
71.39675 84.000
71.41670 86.000
71.43664 76.000
71.45659 88.000
71.47654 82.000
71.49648 80.000
71.51643 105.000
71.53638 74.000
71.55632 76.000
71.57627 82.000
71.59622 64.000
71.61616 85.000
71.63611 77.000
71.65606 86.000
71.67601 76.000
71.69595 74.000
71.71590 74.000
71.73585 80.000
71.75579 66.000
71.77574 90.000
71.79569 83.000
71.81563 81.000
71.83558 65.000
71.85553 77.000
71.87548 78.000
71.89542 79.000
71.91537 80.000
71.93532 80.000
71.95526 71.000
71.97521 79.000
71.99516 76.000
72.01510 87.000
72.03505 101.000
72.05500 99.000
72.07495 91.000
72.09489 105.000
72.11484 110.000
72.13479 104.000
72.15473 102.000
72.17468 112.000
72.19463 116.000
72.21457 105.000
72.23452 109.000
72.25447 81.000
72.27441 116.000
72.29436 93.000
72.31431 85.000
72.33426 96.000
72.35420 93.000
72.37415 95.000
72.39410 93.000
72.41404 94.000
72.43399 89.000
72.45394 86.000
72.47388 78.000
72.49383 95.000
72.51378 73.000
72.53373 98.000
72.55367 94.000
72.57362 96.000
72.59357 79.000
72.61351 104.000
72.63346 94.000
72.65341 80.000
72.67335 98.000
72.69330 94.000
72.71325 97.000
72.73319 94.000
72.75314 93.000
72.77309 83.000
72.79304 91.000
72.81298 79.000
72.83293 97.000
72.85288 92.000
72.87282 74.000
72.89277 78.000
72.91272 81.000
72.93266 89.000
72.95261 75.000
72.97256 100.000
72.99251 86.000
73.01245 77.000
73.03240 92.000
73.05235 72.000
73.07229 81.000
73.09224 92.000
73.11219 87.000
73.13213 86.000
73.15208 79.000
73.17203 87.000
73.19197 66.000
73.21192 79.000
73.23187 80.000
73.25182 70.000
73.27176 82.000
73.29171 68.000
73.31166 87.000
73.33160 84.000
73.35155 76.000
73.37150 74.000
73.39144 83.000
73.41139 83.000
73.43134 69.000
73.45129 79.000
73.47123 78.000
73.49118 78.000
73.51113 91.000
73.53107 96.000
73.55102 63.000
73.57097 72.000
73.59091 61.000
73.61086 70.000
73.63081 89.000
73.65076 84.000
73.67070 81.000
73.69065 81.000
73.71060 84.000
73.73054 73.000
73.75049 77.000
73.77044 91.000
73.79038 94.000
73.81033 91.000
73.83028 102.000
73.85022 101.000
73.87017 110.000
73.89012 118.000
73.91007 107.000
73.93001 105.000
73.94996 97.000
73.96991 106.000
73.98985 122.000
74.00980 105.000
74.02975 119.000
74.04969 115.000
74.06964 133.000
74.08959 107.000
74.10954 149.000
74.12948 128.000
74.14943 140.000
74.16938 144.000
74.18932 147.000
74.20927 167.000
74.22922 176.000
74.24916 161.000
74.26911 153.000
74.28906 161.000
74.30900 159.000
74.32895 137.000
74.34890 122.000
74.36885 134.000
74.38879 115.000
74.40874 131.000
74.42869 123.000
74.44863 105.000
74.46858 102.000
74.48853 104.000
74.50847 95.000
74.52842 81.000
74.54837 94.000
74.56832 78.000
74.58826 98.000
74.60821 94.000
74.62816 79.000
74.64810 93.000
74.66805 93.000
74.68800 70.000
74.70794 80.000
74.72789 75.000
74.74784 82.000
74.76778 107.000
74.78773 84.000
74.80768 90.000
74.82763 89.000
74.84757 100.000
74.86752 86.000
74.88747 86.000
74.90741 91.000
74.92736 100.000
74.94731 70.000
74.96725 91.000
74.98720 87.000
75.00715 97.000
75.02710 83.000
75.04704 78.000
75.06699 86.000
75.08694 84.000
75.10688 98.000
75.12683 115.000
75.14678 118.000
75.16672 101.000
75.18667 120.000
75.20662 119.000
75.22657 103.000
75.24651 101.000
75.26646 122.000
75.28641 102.000
75.30635 88.000
75.32630 94.000
75.34625 93.000
75.36619 96.000
75.38614 94.000
75.40609 79.000
75.42603 73.000
75.44598 92.000
75.46593 96.000
75.48588 92.000
75.50582 85.000
75.52577 73.000
75.54572 75.000
75.56566 76.000
75.58561 86.000
75.60556 70.000
75.62550 92.000
75.64545 81.000
75.66540 64.000
75.68535 67.000
75.70529 68.000
75.72524 95.000
75.74519 70.000
75.76513 73.000
75.78508 80.000
75.80503 63.000
75.82497 78.000
75.84492 58.000
75.86487 67.000
75.88481 70.000
75.90476 87.000
75.92471 55.000
75.94466 99.000
75.96460 69.000
75.98455 65.000
76.00450 74.000
76.02444 75.000
76.04439 78.000
76.06434 87.000
76.08428 60.000
76.10423 66.000
76.12418 64.000
76.14413 65.000
76.16407 74.000
76.18402 65.000
76.20397 67.000
76.22391 77.000
76.24386 65.000
76.26381 65.000
76.28375 71.000
76.30370 65.000
76.32365 77.000
76.34359 61.000
76.36354 51.000
76.38349 58.000
76.40344 70.000
76.42338 67.000
76.44333 69.000
76.46328 60.000
76.48322 68.000
76.50317 66.000
76.52312 64.000
76.54306 58.000
76.56301 68.000
76.58296 71.000
76.60291 65.000
76.62285 67.000
76.64280 71.000
76.66275 68.000
76.68269 88.000
76.70264 82.000
76.72259 57.000
76.74253 62.000
76.76248 75.000
76.78243 70.000
76.80238 69.000
76.82232 68.000
76.84227 70.000
76.86222 71.000
76.88216 59.000
76.90211 68.000
76.92206 80.000
76.94200 76.000
76.96195 65.000
76.98190 57.000
77.00184 65.000
77.02179 56.000
77.04174 64.000
77.06169 70.000
77.08163 85.000
77.10158 70.000
77.12153 91.000
77.14147 71.000
77.16142 68.000
77.18137 79.000
77.20131 82.000
77.22126 93.000
77.24121 77.000
77.26116 77.000
77.28110 93.000
77.30105 83.000
77.32100 88.000
77.34094 81.000
77.36089 90.000
77.38084 91.000
77.40078 87.000
77.42073 89.000
77.44068 101.000
77.46062 83.000
77.48057 82.000
77.50052 83.000
77.52047 99.000
77.54041 102.000
77.56036 70.000
77.58031 100.000
77.60025 86.000
77.62020 95.000
77.64015 78.000
77.66009 99.000
77.68004 79.000
77.69999 81.000
77.71994 91.000
77.73988 89.000
77.75983 99.000
77.77978 90.000
77.79972 92.000
77.81967 75.000
77.83962 95.000
77.85956 63.000
77.87951 101.000
77.89946 84.000
77.91940 79.000
77.93935 80.000
77.95930 76.000
77.97925 76.000
77.99919 89.000
78.01914 95.000
78.03909 79.000
78.05903 75.000
78.07898 74.000
78.09893 79.000
78.11887 62.000
78.13882 81.000
78.15877 95.000
78.17872 89.000
78.19866 74.000
78.21861 77.000
78.23856 71.000
78.25850 67.000
78.27845 64.000
78.29840 72.000
78.31834 63.000
78.33829 69.000
78.35824 61.000
78.37819 60.000
78.39813 67.000
78.41808 80.000
78.43803 68.000
78.45797 80.000
78.47792 67.000
78.49787 68.000
78.51781 73.000
78.53776 76.000
78.55771 68.000
78.57765 85.000
78.59760 61.000
78.61755 62.000
78.63750 70.000
78.65744 65.000
78.67739 68.000
78.69734 72.000
78.71728 76.000
78.73723 70.000
78.75718 67.000
78.77712 71.000
78.79707 60.000
78.81702 80.000
78.83697 80.000
78.85691 95.000
78.87686 78.000
78.89681 69.000
78.91675 77.000
78.93670 66.000
78.95665 85.000
78.97659 78.000
78.99654 60.000
79.01649 84.000
79.03643 79.000
79.05638 90.000
79.07633 62.000
79.09628 87.000
79.11622 88.000
79.13617 88.000
79.15612 107.000
79.17606 101.000
79.19601 107.000
79.21596 76.000
79.23590 100.000
79.25585 104.000
79.27580 87.000
79.29575 85.000
79.31569 82.000
79.33564 75.000
79.35559 80.000
79.37553 82.000
79.39548 66.000
79.41543 88.000
79.43537 72.000
79.45532 87.000
79.47527 80.000
79.49521 67.000
79.51516 81.000
79.53511 66.000
79.55506 78.000
79.57500 85.000
79.59495 63.000
79.61490 68.000
79.63484 51.000
79.65479 72.000
79.67474 78.000
79.69468 65.000
79.71463 75.000
79.73458 61.000
79.75453 69.000
79.77447 69.000
79.79442 46.000
79.81437 75.000
79.83431 64.000
79.85426 67.000
79.87421 60.000
79.89415 70.000
79.91410 71.000
79.93405 79.000
79.95399 58.000
79.97394 64.000
79.99389 70.000
80.01384 80.000
80.03378 57.000
80.05373 74.000
80.07368 66.000
80.09362 66.000
80.11357 76.000
80.13352 64.000
80.15346 92.000
80.17341 68.000
80.19336 60.000
80.21331 68.000
80.23325 55.000
80.25320 74.000
80.27315 61.000
80.29309 58.000
80.31304 63.000
80.33299 69.000
80.35293 79.000
80.37288 62.000
80.39283 62.000
80.41278 70.000
80.43272 59.000
80.45267 61.000
80.47262 60.000
80.49256 74.000
80.51251 62.000
80.53246 40.000
80.55240 64.000
80.57235 55.000
80.59230 70.000
80.61224 63.000
80.63219 65.000
80.65214 61.000
80.67209 59.000
80.69203 75.000
80.71198 66.000
80.73193 52.000
80.75187 57.000
80.77182 61.000
80.79177 47.000
80.81171 73.000
80.83166 67.000
80.85161 58.000
80.87156 68.000
80.89150 73.000
80.91145 60.000
80.93140 63.000
80.95134 66.000
80.97129 67.000
80.99124 61.000
81.01118 77.000
81.03113 69.000
81.05108 86.000
81.07102 67.000
81.09097 79.000
81.11092 79.000
81.13087 72.000
81.15081 65.000
81.17076 46.000
81.19071 64.000
81.21065 75.000
81.23060 59.000
81.25055 70.000
81.27049 81.000
81.29044 77.000
81.31039 64.000
81.33034 87.000
81.35028 64.000
81.37023 65.000
81.39018 59.000
81.41012 58.000
81.43007 65.000
81.45002 63.000
81.46996 60.000
81.48991 61.000
81.50986 75.000
81.52980 57.000
81.54975 59.000
81.56970 70.000
81.58965 82.000
81.60959 59.000
81.62954 69.000
81.64949 60.000
81.66943 55.000
81.68938 65.000
81.70933 73.000
81.72927 71.000
81.74922 57.000
81.76917 68.000
81.78912 62.000
81.80906 54.000
81.82901 66.000
81.84896 66.000
81.86890 59.000
81.88885 53.000
81.90880 62.000
81.92874 67.000
81.94869 83.000
81.96864 65.000
81.98859 64.000
82.00853 64.000
82.02848 73.000
82.04843 56.000
82.06837 61.000
82.08832 75.000
82.10827 61.000
82.12821 64.000
82.14816 64.000
82.16811 67.000
82.18805 65.000
82.20800 75.000
82.22795 63.000
82.24790 68.000
82.26784 60.000
82.28779 60.000
82.30774 79.000
82.32768 71.000
82.34763 80.000
82.36758 55.000
82.38752 86.000
82.40747 55.000
82.42742 78.000
82.44737 65.000
82.46731 58.000
82.48726 63.000
82.50721 60.000
82.52715 65.000
82.54710 61.000
82.56705 69.000
82.58699 65.000
82.60694 51.000
82.62689 68.000
82.64683 72.000
82.66678 82.000
82.68673 69.000
82.70668 65.000
82.72662 80.000
82.74657 61.000
82.76652 67.000
82.78646 71.000
82.80641 80.000
82.82636 60.000
82.84630 77.000
82.86625 72.000
82.88620 65.000
82.90615 59.000
82.92609 60.000
82.94604 47.000
82.96599 74.000
82.98593 65.000
83.00588 57.000
83.02583 60.000
83.04577 70.000
83.06572 70.000
83.08567 66.000
83.10561 67.000
83.12556 79.000
83.14551 71.000
83.16546 69.000
83.18540 69.000
83.20535 79.000
83.22530 73.000
83.24524 56.000
83.26519 63.000
83.28514 61.000
83.30508 77.000
83.32503 77.000
83.34498 77.000
83.36493 70.000
83.38487 66.000
83.40482 60.000
83.42477 73.000
83.44471 58.000
83.46466 71.000
83.48461 71.000
83.50455 85.000
83.52450 70.000
83.54445 76.000
83.56440 82.000
83.58434 80.000
83.60429 84.000
83.62424 75.000
83.64418 66.000
83.66413 77.000
83.68408 87.000
83.70402 70.000
83.72397 67.000
83.74392 62.000
83.76386 71.000
83.78381 81.000
83.80376 87.000
83.82371 73.000
83.84365 79.000
83.86360 71.000
83.88355 94.000
83.90349 75.000
83.92344 63.000
83.94339 70.000
83.96333 85.000
83.98328 81.000
84.00323 62.000
84.02318 72.000
84.04312 72.000
84.06307 65.000
84.08302 57.000
84.10296 70.000
84.12291 78.000
84.14286 68.000
84.16280 54.000
84.18275 56.000
84.20270 81.000
84.22264 49.000
84.24259 56.000
84.26254 67.000
84.28249 67.000
84.30243 83.000
84.32238 72.000
84.34233 52.000
84.36227 59.000
84.38222 62.000
84.40217 62.000
84.42211 62.000
84.44206 65.000
84.46201 52.000
84.48196 66.000
84.50190 51.000
84.52185 60.000
84.54180 49.000
84.56174 74.000
84.58169 64.000
84.60164 74.000
84.62158 62.000
84.64153 72.000
84.66148 65.000
84.68142 62.000
84.70137 76.000
84.72132 61.000
84.74127 63.000
84.76121 40.000
84.78116 52.000
84.80111 43.000
84.82105 67.000
84.84100 69.000
84.86095 74.000
84.88089 66.000
84.90084 60.000
84.92079 75.000
84.94074 58.000
84.96068 48.000
84.98063 61.000
85.00058 68.000
85.02052 60.000
85.04047 51.000
85.06042 55.000
85.08036 47.000
85.10031 70.000
85.12026 71.000
85.14021 61.000
85.16015 65.000
85.18010 80.000
85.20005 64.000
85.21999 62.000
85.23994 64.000
85.25989 54.000
85.27983 71.000
85.29978 57.000
85.31973 57.000
85.33967 60.000
85.35962 69.000
85.37957 74.000
85.39952 60.000
85.41946 62.000
85.43941 66.000
85.45936 96.000
85.47930 60.000
85.49925 59.000
85.51920 68.000
85.53914 46.000
85.55909 66.000
85.57904 67.000
85.59899 73.000
85.61893 58.000
85.63888 60.000
85.65883 68.000
85.67877 79.000
85.69872 76.000
85.71867 65.000
85.73861 63.000
85.75856 67.000
85.77851 63.000
85.79845 58.000
85.81840 66.000
85.83835 67.000
85.85830 62.000
85.87824 77.000
85.89819 66.000
85.91814 78.000
85.93808 62.000
85.95803 59.000
85.97798 65.000
85.99792 69.000
86.01787 67.000
86.03782 82.000
86.05777 55.000
86.07771 66.000
86.09766 75.000
86.11761 74.000
86.13755 68.000
86.15750 70.000
86.17745 63.000
86.19739 71.000
86.21734 73.000
86.23729 73.000
86.25723 74.000
86.27718 66.000
86.29713 74.000
86.31708 61.000
86.33702 74.000
86.35697 56.000
86.37692 78.000
86.39686 69.000
86.41681 72.000
86.43676 63.000
86.45670 76.000
86.47665 63.000
86.49660 77.000
86.51655 92.000
86.53649 61.000
86.55644 70.000
86.57639 72.000
86.59633 65.000
86.61628 76.000
86.63623 79.000
86.65617 71.000
86.67612 73.000
86.69607 80.000
86.71602 85.000
86.73596 59.000
86.75591 81.000
86.77586 75.000
86.79580 68.000
86.81575 74.000
86.83570 82.000
86.85564 60.000
86.87559 87.000
86.89554 84.000
86.91548 72.000
86.93543 84.000
86.95538 78.000
86.97533 88.000
86.99527 85.000
87.01522 86.000
87.03517 80.000
87.05511 86.000
87.07506 91.000
87.09501 110.000
87.11495 94.000
87.13490 128.000
87.15485 105.000
87.17480 77.000
87.19474 95.000
87.21469 83.000
87.23464 77.000
87.25458 86.000
87.27453 109.000
87.29448 83.000
87.31442 86.000
87.33437 59.000
87.35432 86.000
87.37426 94.000
87.39421 77.000
87.41416 83.000
87.43411 87.000
87.45405 73.000
87.47400 87.000
87.49395 70.000
87.51389 71.000
87.53384 78.000
87.55379 87.000
87.57373 72.000
87.59368 57.000
87.61363 65.000
87.63358 60.000
87.65352 77.000
87.67347 68.000
87.69342 51.000
87.71336 67.000
87.73331 67.000
87.75326 54.000
87.77320 68.000
87.79315 66.000
87.81310 65.000
87.83304 69.000
87.85299 65.000
87.87294 60.000
87.89289 75.000
87.91283 65.000
87.93278 61.000
87.95273 62.000
87.97267 64.000
87.99262 55.000
88.01257 70.000
88.03251 62.000
88.05246 69.000
88.07241 63.000
88.09236 66.000
88.11230 64.000
88.13225 67.000
88.15220 69.000
88.17214 67.000
88.19209 55.000
88.21204 70.000
88.23198 66.000
88.25193 67.000
88.27188 60.000
88.29183 60.000
88.31177 63.000
88.33172 48.000
88.35167 51.000
88.37161 74.000
88.39156 58.000
88.41151 77.000
88.43145 69.000
88.45140 61.000
88.47135 65.000
88.49129 65.000
88.51124 72.000
88.53119 79.000
88.55114 71.000
88.57108 59.000
88.59103 57.000
88.61098 45.000
88.63092 68.000
88.65087 61.000
88.67082 77.000
88.69076 61.000
88.71071 57.000
88.73066 68.000
88.75061 47.000
88.77055 64.000
88.79050 74.000
88.81045 55.000
88.83039 65.000
88.85034 72.000
88.87029 55.000
88.89023 68.000
88.91018 53.000
88.93013 69.000
88.95007 71.000
88.97002 68.000
88.98997 55.000
89.00992 69.000
89.02986 59.000
89.04981 65.000
89.06976 62.000
89.08970 57.000
89.10965 60.000
89.12960 58.000
89.14954 52.000
89.16949 68.000
89.18944 70.000
89.20939 70.000
89.22933 66.000
89.24928 93.000
89.26923 53.000
89.28917 63.000
89.30912 63.000
89.32907 71.000
89.34901 92.000
89.36896 75.000
89.38891 74.000
89.40885 73.000
89.42880 72.000
89.44875 84.000
89.46870 72.000
89.48864 86.000
89.50859 89.000
89.52854 66.000
89.54848 87.000
89.56843 68.000
89.58838 93.000
89.60832 93.000
89.62827 105.000
89.64822 96.000
89.66817 100.000
89.68811 111.000
89.70806 108.000
89.72801 98.000
89.74795 109.000
89.76790 112.000
89.78785 124.000
89.80779 127.000
89.82774 114.000
89.84769 120.000
89.86764 133.000
89.88758 141.000
89.90753 150.000
89.92748 145.000
89.94742 153.000
89.96737 142.000
89.98732 151.000
90.00726 195.000
