10.00000 69.000
10.01995 81.000
10.03989 80.000
10.05984 90.000
10.07979 87.000
10.09973 98.000
10.11968 63.000
10.13963 71.000
10.15958 79.000
10.17952 94.000
10.19947 85.000
10.21942 83.000
10.23936 82.000
10.25931 92.000
10.27926 78.000
10.29920 79.000
10.31915 82.000
10.33910 87.000
10.35905 81.000
10.37899 71.000
10.39894 70.000
10.41889 100.000
10.43883 75.000
10.45878 82.000
10.47873 82.000
10.49867 86.000
10.51862 81.000
10.53857 87.000
10.55851 67.000
10.57846 92.000
10.59841 59.000
10.61836 102.000
10.63830 72.000
10.65825 73.000
10.67820 84.000
10.69814 90.000
10.71809 80.000
10.73804 75.000
10.75798 80.000
10.77793 82.000
10.79788 74.000
10.81783 70.000
10.83777 72.000
10.85772 82.000
10.87767 84.000
10.89761 77.000
10.91756 68.000
10.93751 73.000
10.95745 79.000
10.97740 76.000
10.99735 64.000
11.01730 81.000
11.03724 73.000
11.05719 86.000
11.07714 74.000
11.09708 95.000
11.11703 80.000
11.13698 77.000
11.15692 103.000
11.17687 78.000
11.19682 81.000
11.21676 87.000
11.23671 91.000
11.25666 86.000
11.27661 75.000
11.29655 78.000
11.31650 81.000
11.33645 80.000
11.35639 84.000
11.37634 72.000
11.39629 88.000
11.41623 73.000
11.43618 95.000
11.45613 73.000
11.47608 99.000
11.49602 73.000
11.51597 83.000
11.53592 76.000
11.55586 88.000
11.57581 81.000
11.59576 81.000
11.61570 79.000
11.63565 100.000
11.65560 88.000
11.67554 72.000
11.69549 94.000
11.71544 65.000
11.73539 77.000
11.75533 80.000
11.77528 67.000
11.79523 82.000
11.81517 80.000
11.83512 91.000
11.85507 81.000
11.87501 74.000
11.89496 77.000
11.91491 90.000
11.93486 87.000
11.95480 70.000
11.97475 75.000
11.99470 85.000
12.01464 83.000
12.03459 82.000
12.05454 80.000
12.07448 76.000
12.09443 83.000
12.11438 81.000
12.13432 93.000
12.15427 87.000
12.17422 68.000
12.19417 75.000
12.21411 68.000
12.23406 71.000
12.25401 89.000
12.27395 77.000
12.29390 82.000
12.31385 75.000
12.33379 81.000
12.35374 99.000
12.37369 81.000
12.39364 83.000
12.41358 68.000
12.43353 76.000
12.45348 73.000
12.47342 71.000
12.49337 66.000
12.51332 65.000
12.53326 76.000
12.55321 77.000
12.57316 86.000
12.59311 64.000
12.61305 70.000
12.63300 92.000
12.65295 94.000
12.67289 82.000
12.69284 86.000
12.71279 86.000
12.73273 88.000
12.75268 79.000
12.77263 72.000
12.79257 71.000
12.81252 77.000
12.83247 89.000
12.85242 89.000
12.87236 93.000
12.89231 84.000
12.91226 80.000
12.93220 93.000
12.95215 79.000
12.97210 82.000
12.99204 76.000
13.01199 76.000
13.03194 82.000
13.05189 80.000
13.07183 58.000
13.09178 80.000
13.11173 70.000
13.13167 84.000
13.15162 80.000
13.17157 74.000
13.19151 85.000
13.21146 95.000
13.23141 79.000
13.25135 70.000
13.27130 83.000
13.29125 60.000
13.31120 84.000
13.33114 96.000
13.35109 61.000
13.37104 62.000
13.39098 86.000
13.41093 81.000
13.43088 69.000
13.45082 82.000
13.47077 79.000
13.49072 83.000
13.51067 93.000
13.53061 82.000
13.55056 76.000
13.57051 81.000
13.59045 63.000
13.61040 79.000
13.63035 72.000
13.65029 79.000
13.67024 71.000
13.69019 75.000
13.71013 105.000
13.73008 89.000
13.75003 85.000
13.76998 75.000
13.78992 92.000
13.80987 89.000
13.82982 76.000
13.84976 93.000
13.86971 67.000
13.88966 77.000
13.90960 91.000
13.92955 76.000
13.94950 66.000
13.96945 85.000
13.98939 78.000
14.00934 93.000
14.02929 78.000
14.04923 79.000
14.06918 75.000
14.08913 68.000
14.10907 89.000
14.12902 90.000
14.14897 77.000
14.16892 73.000
14.18886 88.000
14.20881 79.000
14.22876 77.000
14.24870 88.000
14.26865 80.000
14.28860 83.000
14.30854 73.000
14.32849 78.000
14.34844 90.000
14.36838 106.000
14.38833 73.000
14.40828 91.000
14.42823 83.000
14.44817 95.000
14.46812 91.000
14.48807 82.000
14.50801 91.000
14.52796 85.000
14.54791 84.000
14.56785 83.000
14.58780 95.000
14.60775 72.000
14.62770 90.000
14.64764 93.000
14.66759 91.000
14.68754 89.000
14.70748 86.000
14.72743 92.000
14.74738 85.000
14.76732 100.000
14.78727 86.000
14.80722 91.000
14.82716 77.000
14.84711 75.000
14.86706 109.000
14.88701 80.000
14.90695 79.000
14.92690 82.000
14.94685 98.000
14.96679 81.000
14.98674 84.000
15.00669 77.000
15.02663 103.000
15.04658 93.000
15.06653 70.000
15.08648 70.000
15.10642 86.000
15.12637 69.000
15.14632 105.000
15.16626 88.000
15.18621 88.000
15.20616 102.000
15.22610 89.000
15.24605 87.000
15.26600 85.000
15.28594 83.000
15.30589 100.000
15.32584 91.000
15.34579 107.000
15.36573 97.000
15.38568 92.000
15.40563 89.000
15.42557 78.000
15.44552 87.000
15.46547 97.000
15.48541 104.000
15.50536 94.000
15.52531 81.000
15.54526 84.000
15.56520 89.000
15.58515 107.000
15.60510 105.000
15.62504 95.000
15.64499 91.000
15.66494 107.000
15.68488 81.000
15.70483 95.000
15.72478 95.000
15.74472 87.000
15.76467 98.000
15.78462 99.000
15.80457 89.000
15.82451 90.000
15.84446 90.000
15.86441 104.000
15.88435 86.000
15.90430 93.000
15.92425 92.000
15.94419 107.000
15.96414 118.000
15.98409 92.000
16.00404 96.000
16.02398 97.000
16.04393 98.000
16.06388 108.000
16.08382 102.000
16.10377 124.000
16.12372 109.000
16.14366 109.000
16.16361 108.000
16.18356 93.000
16.20351 107.000
16.22345 113.000
16.24340 103.000
16.26335 122.000
16.28329 108.000
16.30324 99.000
16.32319 113.000
16.34313 98.000
16.36308 87.000
16.38303 94.000
16.40297 89.000
16.42292 120.000
16.44287 98.000
16.46282 126.000
16.48276 98.000
16.50271 102.000
16.52266 112.000
16.54260 116.000
16.56255 121.000
16.58250 96.000
16.60244 115.000
16.62239 110.000
16.64234 110.000
16.66229 132.000
16.68223 121.000
16.70218 102.000
16.72213 131.000
16.74207 123.000
16.76202 99.000
16.78197 110.000
16.80191 121.000
16.82186 109.000
16.84181 118.000
16.86175 117.000
16.88170 100.000
16.90165 97.000
16.92160 129.000
16.94154 117.000
16.96149 117.000
16.98144 120.000
17.00138 128.000
17.02133 126.000
17.04128 106.000
17.06122 122.000
17.08117 124.000
17.10112 113.000
17.12107 120.000
17.14101 139.000
17.16096 125.000
17.18091 129.000
17.20085 121.000
17.22080 121.000
17.24075 117.000
17.26069 146.000
17.28064 130.000
17.30059 136.000
17.32053 137.000
17.34048 125.000
17.36043 126.000
17.38038 127.000
17.40032 131.000
17.42027 148.000
17.44022 131.000
17.46016 128.000
17.48011 115.000
17.50006 124.000
17.52000 145.000
17.53995 113.000
17.55990 139.000
17.57985 150.000
17.59979 128.000
17.61974 138.000
17.63969 120.000
17.65963 109.000
17.67958 138.000
17.69953 126.000
17.71947 120.000
17.73942 150.000
17.75937 135.000
17.77932 146.000
17.79926 124.000
17.81921 155.000
17.83916 134.000
17.85910 136.000
17.87905 150.000
17.89900 148.000
17.91894 149.000
17.93889 138.000
17.95884 148.000
17.97878 139.000
17.99873 149.000
18.01868 144.000
18.03863 132.000
18.05857 164.000
18.07852 152.000
18.09847 160.000
18.11841 138.000
18.13836 135.000
18.15831 117.000
18.17825 131.000
18.19820 167.000
18.21815 143.000
18.23810 155.000
18.25804 158.000
18.27799 127.000
18.29794 146.000
18.31788 141.000
18.33783 159.000
18.35778 156.000
18.37772 170.000
18.39767 154.000
18.41762 149.000
18.43756 144.000
18.45751 141.000
18.47746 135.000
18.49741 165.000
18.51735 155.000
18.53730 150.000
18.55725 132.000
18.57719 163.000
18.59714 169.000
18.61709 160.000
18.63703 151.000
18.65698 146.000
18.67693 162.000
18.69688 149.000
18.71682 171.000
18.73677 186.000
18.75672 168.000
18.77666 167.000
18.79661 164.000
18.81656 162.000
18.83650 162.000
18.85645 166.000
18.87640 183.000
18.89634 161.000
18.91629 162.000
18.93624 176.000
18.95619 156.000
18.97613 170.000
18.99608 177.000
19.01603 157.000
19.03597 178.000
19.05592 189.000
19.07587 146.000
19.09581 185.000
19.11576 187.000
19.13571 160.000
19.15566 169.000
19.17560 154.000
19.19555 188.000
19.21550 143.000
19.23544 168.000
19.25539 160.000
19.27534 157.000
19.29528 177.000
19.31523 183.000
19.33518 173.000
19.35513 148.000
19.37507 186.000
19.39502 162.000
19.41497 179.000
19.43491 174.000
19.45486 175.000
19.47481 188.000
19.49475 174.000
19.51470 185.000
19.53465 197.000
19.55459 175.000
19.57454 220.000
19.59449 188.000
19.61444 163.000
19.63438 176.000
19.65433 209.000
19.67428 168.000
19.69422 175.000
19.71417 202.000
19.73412 187.000
19.75406 212.000
19.77401 174.000
19.79396 199.000
19.81391 198.000
19.83385 183.000
19.85380 202.000
19.87375 191.000
19.89369 214.000
19.91364 191.000
19.93359 221.000
19.95353 219.000
19.97348 226.000
19.99343 254.000
20.01337 252.000
20.03332 266.000
20.05327 251.000
20.07322 317.000
20.09316 283.000
20.11311 289.000
20.13306 324.000
20.15300 309.000
20.17295 328.000
20.19290 399.000
20.21284 384.000
20.23279 414.000
20.25274 394.000
20.27269 404.000
20.29263 430.000
20.31258 442.000
20.33253 466.000
20.35247 384.000
20.37242 359.000
20.39237 334.000
20.41231 364.000
20.43226 352.000
20.45221 365.000
20.47215 373.000
20.49210 368.000
20.51205 315.000
20.53200 304.000
20.55194 279.000
20.57189 264.000
20.59184 257.000
20.61178 283.000
20.63173 253.000
20.65168 275.000
20.67162 230.000
20.69157 244.000
20.71152 226.000
20.73147 217.000
20.75141 241.000
20.77136 215.000
20.79131 195.000
20.81125 224.000
20.83120 213.000
20.85115 191.000
20.87109 207.000
20.89104 215.000
20.91099 190.000
20.93094 198.000
20.95088 202.000
20.97083 230.000
20.99078 211.000
21.01072 180.000
21.03067 236.000
21.05062 212.000
21.07056 200.000
21.09051 181.000
21.11046 216.000
21.13040 221.000
21.15035 193.000
21.17030 209.000
21.19025 216.000
21.21019 193.000
21.23014 213.000
21.25009 175.000
21.27003 207.000
21.28998 201.000
21.30993 197.000
21.32987 224.000
21.34982 207.000
21.36977 218.000
21.38972 220.000
21.40966 214.000
21.42961 200.000
21.44956 225.000
21.46950 218.000
21.48945 219.000
21.50940 209.000
21.52934 225.000
21.54929 224.000
21.56924 197.000
21.58918 188.000
21.60913 203.000
21.62908 183.000
21.64903 196.000
21.66897 203.000
21.68892 207.000
21.70887 202.000
21.72881 187.000
21.74876 196.000
21.76871 225.000
21.78865 215.000
21.80860 209.000
21.82855 240.000
21.84850 234.000
21.86844 207.000
21.88839 209.000
21.90834 226.000
21.92828 205.000
21.94823 190.000
21.96818 203.000
21.98812 197.000
22.00807 203.000
22.02802 205.000
22.04796 200.000
22.06791 244.000
22.08786 229.000
22.10781 205.000
22.12775 217.000
22.14770 236.000
22.16765 242.000
22.18759 226.000
22.20754 237.000
22.22749 247.000
22.24743 201.000
22.26738 225.000
22.28733 228.000
22.30728 227.000
22.32722 202.000
22.34717 215.000
22.36712 228.000
22.38706 207.000
22.40701 218.000
22.42696 202.000
22.44690 230.000
22.46685 233.000
22.48680 236.000
22.50675 224.000
22.52669 220.000
22.54664 250.000
22.56659 237.000
22.58653 257.000
22.60648 217.000
22.62643 222.000
22.64637 256.000
22.66632 222.000
22.68627 219.000
22.70621 216.000
22.72616 247.000
22.74611 218.000
22.76606 236.000
22.78600 228.000
22.80595 223.000
22.82590 237.000
22.84584 228.000
22.86579 249.000
22.88574 246.000
22.90568 260.000
22.92563 235.000
22.94558 267.000
22.96553 221.000
22.98547 220.000
23.00542 247.000
23.02537 223.000
23.04531 235.000
23.06526 221.000
23.08521 256.000
23.10515 230.000
23.12510 216.000
23.14505 217.000
23.16499 250.000
23.18494 238.000
23.20489 240.000
23.22484 229.000
23.24478 250.000
23.26473 225.000
23.28468 230.000
23.30462 251.000
23.32457 253.000
23.34452 252.000
23.36446 236.000
23.38441 256.000
23.40436 278.000
23.42431 245.000
23.44425 241.000
23.46420 237.000
23.48415 256.000
23.50409 247.000
23.52404 235.000
23.54399 238.000
23.56393 277.000
23.58388 269.000
23.60383 274.000
23.62377 266.000
23.64372 307.000
23.66367 322.000
23.68362 292.000
23.70356 286.000
23.72351 333.000
23.74346 341.000
23.76340 338.000
23.78335 352.000
23.80330 382.000
23.82324 379.000
23.84319 375.000
23.86314 381.000
23.88309 336.000
23.90303 355.000
23.92298 310.000
23.94293 306.000
23.96287 253.000
23.98282 232.000
24.00277 267.000
24.02271 277.000
24.04266 236.000
24.06261 238.000
24.08256 273.000
24.10250 263.000
24.12245 229.000
24.14240 261.000
24.16234 276.000
24.18229 258.000
24.20224 212.000
24.22218 253.000
24.24213 254.000
24.26208 255.000
24.28202 260.000
24.30197 259.000
24.32192 253.000
24.34187 229.000
24.36181 279.000
24.38176 250.000
24.40171 253.000
24.42165 253.000
24.44160 259.000
24.46155 255.000
24.48149 261.000
24.50144 255.000
24.52139 271.000
24.54134 270.000
24.56128 239.000
24.58123 249.000
24.60118 253.000
24.62112 255.000
24.64107 268.000
24.66102 258.000
24.68096 285.000
24.70091 282.000
24.72086 288.000
24.74080 288.000
24.76075 287.000
24.78070 273.000
24.80065 262.000
24.82059 276.000
24.84054 280.000
24.86049 264.000
24.88043 283.000
24.90038 257.000
24.92033 250.000
24.94027 242.000
24.96022 288.000
24.98017 278.000
25.00012 225.000
25.02006 259.000
25.04001 276.000
25.05996 270.000
25.07990 269.000
25.09985 262.000
25.11980 276.000
25.13974 287.000
25.15969 283.000
25.17964 265.000
25.19958 294.000
25.21953 296.000
25.23948 304.000
25.25943 271.000
25.27937 308.000
25.29932 297.000
25.31927 296.000
25.33921 312.000
25.35916 287.000
25.37911 295.000
25.39905 300.000
25.41900 295.000
25.43895 286.000
25.45890 278.000
25.47884 305.000
25.49879 335.000
25.51874 287.000
25.53868 307.000
25.55863 271.000
25.57858 310.000
25.59852 308.000
25.61847 307.000
25.63842 307.000
25.65837 307.000
25.67831 337.000
25.69826 322.000
25.71821 321.000
25.73815 354.000
25.75810 307.000
25.77805 295.000
25.79799 304.000
25.81794 343.000
25.83789 319.000
25.85783 319.000
25.87778 302.000
25.89773 304.000
25.91768 307.000
25.93762 336.000
25.95757 340.000
25.97752 284.000
25.99746 301.000
26.01741 331.000
26.03736 324.000
26.05730 309.000
26.07725 341.000
26.09720 321.000
26.11715 299.000
26.13709 315.000
26.15704 325.000
26.17699 320.000
26.19693 313.000
26.21688 334.000
26.23683 353.000
26.25677 316.000
26.27672 344.000
26.29667 340.000
26.31661 340.000
26.33656 320.000
26.35651 327.000
26.37646 348.000
26.39640 349.000
26.41635 338.000
26.43630 350.000
26.45624 321.000
26.47619 329.000
26.49614 346.000
26.51608 326.000
26.53603 336.000
26.55598 341.000
26.57593 333.000
26.59587 356.000
26.61582 339.000
26.63577 333.000
26.65571 342.000
26.67566 361.000
26.69561 288.000
26.71555 345.000
26.73550 357.000
26.75545 352.000
26.77539 345.000
26.79534 371.000
26.81529 339.000
26.83524 361.000
26.85518 350.000
26.87513 336.000
26.89508 388.000
26.91502 330.000
26.93497 351.000
26.95492 365.000
26.97486 376.000
26.99481 339.000
27.01476 373.000
27.03471 362.000
27.05465 356.000
27.07460 342.000
27.09455 330.000
27.11449 348.000
27.13444 369.000
27.15439 389.000
27.17433 364.000
27.19428 359.000
27.21423 349.000
27.23417 339.000
27.25412 384.000
27.27407 374.000
27.29402 351.000
27.31396 363.000
27.33391 383.000
27.35386 350.000
27.37380 334.000
27.39375 335.000
27.41370 361.000
27.43364 371.000
27.45359 367.000
27.47354 375.000
27.49349 391.000
27.51343 349.000
27.53338 363.000
27.55333 370.000
27.57327 393.000
27.59322 348.000
27.61317 341.000
27.63311 378.000
27.65306 348.000
27.67301 371.000
27.69296 425.000
27.71290 332.000
27.73285 363.000
27.75280 383.000
27.77274 383.000
27.79269 410.000
27.81264 370.000
27.83258 387.000
27.85253 394.000
27.87248 376.000
27.89242 379.000
27.91237 385.000
27.93232 379.000
27.95227 375.000
27.97221 413.000
27.99216 375.000
28.01211 378.000
28.03205 412.000
28.05200 397.000
28.07195 381.000
28.09189 333.000
28.11184 414.000
28.13179 387.000
28.15174 362.000
28.17168 408.000
28.19163 380.000
28.21158 416.000
28.23152 394.000
28.25147 361.000
28.27142 366.000
28.29136 434.000
28.31131 415.000
28.33126 403.000
28.35120 367.000
28.37115 389.000
28.39110 418.000
28.41105 390.000
28.43099 372.000
28.45094 352.000
28.47089 429.000
28.49083 397.000
28.51078 360.000
28.53073 409.000
28.55067 403.000
28.57062 385.000
28.59057 401.000
28.61052 410.000
28.63046 400.000
28.65041 423.000
28.67036 346.000
28.69030 386.000
28.71025 399.000
28.73020 416.000
28.75014 381.000
28.77009 416.000
28.79004 409.000
28.80998 416.000
28.82993 394.000
28.84988 369.000
28.86983 406.000
28.88977 379.000
28.90972 431.000
28.92967 418.000
28.94961 418.000
28.96956 447.000
28.98951 419.000
29.00945 458.000
29.02940 417.000
29.04935 408.000
29.06930 431.000
29.08924 432.000
29.10919 406.000
29.12914 414.000
29.14908 429.000
29.16903 398.000
29.18898 418.000
29.20892 394.000
29.22887 437.000
29.24882 416.000
29.26877 376.000
29.28871 377.000
29.30866 436.000
29.32861 395.000
29.34855 438.000
29.36850 358.000
29.38845 410.000
29.40839 399.000
29.42834 371.000
29.44829 391.000
29.46823 447.000
29.48818 429.000
29.50813 387.000
29.52808 375.000
29.54802 386.000
29.56797 362.000
29.58792 368.000
29.60786 412.000
29.62781 427.000
29.64776 386.000
29.66770 383.000
29.68765 383.000
29.70760 359.000
29.72755 425.000
29.74749 391.000
29.76744 395.000
29.78739 387.000
29.80733 412.000
29.82728 383.000
29.84723 392.000
29.86717 385.000
29.88712 358.000
29.90707 425.000
29.92701 403.000
29.94696 410.000
29.96691 390.000
29.98686 422.000
30.00680 385.000
30.02675 377.000
30.04670 401.000
30.06664 396.000
30.08659 404.000
30.10654 382.000
30.12648 387.000
30.14643 427.000
30.16638 405.000
30.18633 438.000
30.20627 372.000
30.22622 367.000
30.24617 417.000
30.26611 396.000
30.28606 371.000
30.30601 380.000
30.32595 358.000
30.34590 395.000
30.36585 354.000
30.38579 358.000
30.40574 376.000
30.42569 369.000
30.44564 382.000
30.46558 364.000
30.48553 380.000
30.50548 348.000
30.52542 370.000
30.54537 388.000
30.56532 377.000
30.58526 404.000
30.60521 392.000
30.62516 371.000
30.64511 369.000
30.66505 381.000
30.68500 375.000
30.70495 398.000
30.72489 324.000
30.74484 370.000
30.76479 401.000
30.78473 375.000
30.80468 402.000
30.82463 370.000
30.84458 398.000
30.86452 394.000
30.88447 369.000
30.90442 355.000
30.92436 386.000
30.94431 393.000
30.96426 390.000
30.98420 365.000
31.00415 357.000
31.02410 395.000
31.04404 369.000
31.06399 366.000
31.08394 339.000
31.10389 351.000
31.12383 368.000
31.14378 395.000
31.16373 352.000
31.18367 368.000
31.20362 380.000
31.22357 357.000
31.24351 370.000
31.26346 374.000
31.28341 386.000
31.30336 365.000
31.32330 373.000
31.34325 363.000
31.36320 358.000
31.38314 341.000
31.40309 369.000
31.42304 398.000
31.44298 346.000
31.46293 349.000
31.48288 333.000
31.50282 373.000
31.52277 384.000
31.54272 400.000
31.56267 357.000
31.58261 363.000
31.60256 349.000
31.62251 332.000
31.64245 356.000
31.66240 334.000
31.68235 375.000
31.70229 353.000
31.72224 355.000
31.74219 347.000
31.76214 363.000
31.78208 352.000
31.80203 354.000
31.82198 331.000
31.84192 353.000
31.86187 363.000
31.88182 317.000
31.90176 326.000
31.92171 334.000
31.94166 355.000
31.96160 345.000
31.98155 339.000
32.00150 366.000
32.02145 350.000
32.04139 312.000
32.06134 307.000
32.08129 334.000
32.10123 296.000
32.12118 323.000
32.14113 387.000
32.16107 308.000
32.18102 346.000
32.20097 351.000
32.22092 325.000
32.24086 332.000
32.26081 361.000
32.28076 352.000
32.30070 330.000
32.32065 342.000
32.34060 361.000
32.36054 326.000
32.38049 354.000
32.40044 332.000
32.42039 368.000
32.44033 382.000
32.46028 321.000
32.48023 367.000
32.50017 378.000
32.52012 367.000
32.54007 388.000
32.56001 394.000
32.57996 432.000
32.59991 453.000
32.61985 494.000
32.63980 600.000
32.65975 595.000
32.67970 637.000
32.69964 739.000
32.71959 784.000
32.73954 799.000
32.75948 806.000
32.77943 872.000
32.79938 874.000
32.81932 959.000
32.83927 935.000
32.85922 911.000
32.87917 787.000
32.89911 703.000
32.91906 622.000
32.93901 627.000
32.95895 524.000
32.97890 441.000
32.99885 415.000
33.01879 377.000
33.03874 348.000
33.05869 368.000
33.07863 347.000
33.09858 343.000
33.11853 328.000
33.13848 359.000
33.15842 362.000
33.17837 349.000
33.19832 380.000
33.21826 376.000
33.23821 370.000
33.25816 403.000
33.27810 409.000
33.29805 434.000
33.31800 453.000
33.33795 465.000
33.35789 469.000
33.37784 491.000
33.39779 503.000
33.41773 528.000
33.43768 533.000
33.45763 543.000
33.47757 512.000
33.49752 539.000
33.51747 583.000
33.53741 585.000
33.55736 581.000
33.57731 603.000
33.59726 605.000
33.61720 585.000
33.63715 626.000
33.65710 618.000
33.67704 610.000
33.69699 583.000
33.71694 642.000
33.73688 596.000
33.75683 562.000
33.77678 621.000
33.79673 598.000
33.81667 619.000
33.83662 608.000
33.85657 563.000
33.87651 592.000
33.89646 561.000
33.91641 569.000
33.93635 556.000
33.95630 556.000
33.97625 521.000
33.99620 488.000
34.01614 488.000
34.03609 461.000
34.05604 424.000
34.07598 423.000
34.09593 404.000
34.11588 372.000
34.13582 316.000
34.15577 360.000
34.17572 342.000
34.19566 353.000
34.21561 353.000
34.23556 330.000
34.25551 316.000
34.27545 288.000
34.29540 324.000
34.31535 284.000
34.33529 301.000
34.35524 300.000
34.37519 311.000
34.39513 302.000
34.41508 304.000
34.43503 329.000
34.45498 306.000
34.47492 297.000
34.49487 296.000
34.51482 278.000
34.53476 318.000
34.55471 260.000
34.57466 275.000
34.59460 298.000
34.61455 272.000
34.63450 262.000
34.65444 263.000
34.67439 271.000
34.69434 279.000
34.71429 281.000
34.73423 274.000
34.75418 288.000
34.77413 296.000
34.79407 292.000
34.81402 274.000
34.83397 314.000
34.85391 252.000
34.87386 308.000
34.89381 292.000
34.91376 329.000
34.93370 312.000
34.95365 278.000
34.97360 322.000
34.99354 297.000
35.01349 309.000
35.03344 343.000
35.05338 315.000
35.07333 353.000
35.09328 416.000
35.11322 433.000
35.13317 441.000
35.15312 511.000
35.17307 507.000
35.19301 576.000
35.21296 654.000
35.23291 706.000
35.25285 713.000
35.27280 696.000
35.29275 741.000
35.31269 740.000
35.33264 766.000
35.35259 651.000
35.37254 631.000
35.39248 550.000
35.41243 518.000
35.43238 446.000
35.45232 455.000
35.47227 375.000
35.49222 364.000
35.51216 358.000
35.53211 316.000
35.55206 284.000
35.57201 286.000
35.59195 291.000
35.61190 257.000
35.63185 271.000
35.65179 264.000
35.67174 256.000
35.69169 245.000
35.71163 247.000
35.73158 255.000
35.75153 223.000
35.77147 226.000
35.79142 277.000
35.81137 263.000
35.83132 239.000
35.85126 218.000
35.87121 216.000
35.89116 236.000
35.91110 218.000
35.93105 217.000
35.95100 254.000
35.97094 211.000
35.99089 221.000
36.01084 258.000
36.03079 245.000
36.05073 238.000
36.07068 232.000
36.09063 223.000
36.11057 210.000
36.13052 221.000
36.15047 234.000
36.17041 252.000
36.19036 229.000
36.21031 217.000
36.23025 236.000
36.25020 227.000
36.27015 212.000
36.29010 226.000
36.31004 233.000
36.32999 231.000
36.34994 218.000
36.36988 222.000
36.38983 264.000
36.40978 224.000
36.42972 210.000
36.44967 234.000
36.46962 243.000
36.48957 217.000
36.50951 219.000
36.52946 206.000
36.54941 234.000
36.56935 207.000
36.58930 220.000
36.60925 205.000
36.62919 211.000
36.64914 208.000
36.66909 213.000
36.68903 224.000
36.70898 224.000
36.72893 232.000
36.74888 228.000
36.76882 195.000
36.78877 236.000
36.80872 225.000
36.82866 197.000
36.84861 203.000
36.86856 210.000
36.88850 193.000
36.90845 187.000
36.92840 203.000
36.94835 240.000
36.96829 192.000
36.98824 201.000
37.00819 219.000
37.02813 200.000
37.04808 224.000
37.06803 220.000
37.08797 204.000
37.10792 194.000
37.12787 183.000
37.14781 210.000
37.16776 215.000
37.18771 198.000
37.20766 185.000
37.22760 210.000
37.24755 214.000
37.26750 213.000
37.28744 194.000
37.30739 200.000
37.32734 233.000
37.34728 222.000
37.36723 210.000
37.38718 219.000
37.40713 239.000
37.42707 215.000
37.44702 221.000
37.46697 205.000
37.48691 212.000
37.50686 197.000
37.52681 236.000
37.54675 219.000
37.56670 202.000
37.58665 221.000
37.60660 250.000
37.62654 214.000
37.64649 194.000
37.66644 223.000
37.68638 213.000
37.70633 190.000
37.72628 199.000
37.74622 204.000
37.76617 208.000
37.78612 222.000
37.80606 213.000
37.82601 210.000
37.84596 217.000
37.86591 208.000
37.88585 229.000
37.90580 192.000
37.92575 214.000
37.94569 211.000
37.96564 225.000
37.98559 229.000
38.00553 202.000
38.02548 215.000
38.04543 196.000
38.06538 214.000
38.08532 207.000
38.10527 224.000
38.12522 220.000
38.14516 237.000
38.16511 195.000
38.18506 228.000
38.20500 213.000
38.22495 210.000
38.24490 200.000
38.26484 203.000
38.28479 193.000
38.30474 201.000
38.32469 199.000
38.34463 206.000
38.36458 242.000
38.38453 217.000
38.40447 194.000
38.42442 208.000
38.44437 178.000
38.46431 218.000
38.48426 210.000
38.50421 203.000
38.52416 210.000
38.54410 196.000
38.56405 215.000
38.58400 212.000
38.60394 221.000
38.62389 212.000
38.64384 192.000
38.66378 215.000
38.68373 186.000
38.70368 211.000
38.72362 225.000
38.74357 225.000
38.76352 205.000
38.78347 186.000
38.80341 205.000
38.82336 199.000
38.84331 226.000
38.86325 234.000
38.88320 206.000
38.90315 193.000
38.92309 203.000
38.94304 219.000
38.96299 225.000
38.98294 222.000
39.00288 194.000
39.02283 186.000
39.04278 184.000
39.06272 204.000
39.08267 224.000
39.10262 218.000
39.12256 196.000
39.14251 235.000
39.16246 230.000
39.18241 193.000
39.20235 200.000
39.22230 222.000
39.24225 243.000
39.26219 236.000
39.28214 187.000
39.30209 225.000
39.32203 222.000
39.34198 195.000
39.36193 205.000
39.38187 211.000
39.40182 167.000
39.42177 178.000
39.44172 190.000
39.46166 227.000
39.48161 181.000
39.50156 198.000
39.52150 220.000
39.54145 214.000
39.56140 191.000
39.58134 215.000
39.60129 207.000
39.62124 205.000
39.64119 224.000
39.66113 185.000
39.68108 236.000
39.70103 205.000
39.72097 243.000
39.74092 241.000
39.76087 219.000
39.78081 216.000
39.80076 214.000
39.82071 223.000
39.84065 188.000
39.86060 210.000
39.88055 220.000
39.90050 212.000
39.92044 221.000
39.94039 226.000
39.96034 223.000
39.98028 207.000
40.00023 233.000
40.02018 225.000
40.04012 219.000
40.06007 218.000
40.08002 219.000
40.09997 218.000
40.11991 204.000
40.13986 223.000
40.15981 235.000
40.17975 199.000
40.19970 222.000
40.21965 204.000
40.23959 232.000
40.25954 226.000
40.27949 228.000
40.29943 220.000
40.31938 255.000
40.33933 261.000
40.35928 269.000
40.37922 256.000
40.39917 289.000
40.41912 274.000
40.43906 293.000
40.45901 320.000
40.47896 351.000
40.49890 368.000
40.51885 329.000
40.53880 366.000
40.55875 374.000
40.57869 344.000
40.59864 319.000
40.61859 292.000
40.63853 274.000
40.65848 275.000
40.67843 240.000
40.69837 232.000
40.71832 213.000
40.73827 204.000
40.75822 222.000
40.77816 226.000
40.79811 201.000
40.81806 217.000
40.83800 197.000
40.85795 217.000
40.87790 210.000
40.89784 227.000
40.91779 195.000
40.93774 210.000
40.95768 206.000
40.97763 208.000
40.99758 218.000
41.01753 199.000
41.03747 195.000
41.05742 195.000
41.07737 207.000
41.09731 208.000
41.11726 191.000
41.13721 207.000
41.15715 222.000
41.17710 195.000
41.19705 199.000
41.21700 212.000
41.23694 194.000
41.25689 178.000
41.27684 200.000
41.29678 190.000
41.31673 200.000
41.33668 203.000
41.35662 212.000
41.37657 208.000
41.39652 200.000
41.41646 209.000
41.43641 214.000
41.45636 197.000
41.47631 206.000
41.49625 212.000
41.51620 214.000
41.53615 201.000
41.55609 211.000
41.57604 189.000
41.59599 193.000
41.61593 220.000
41.63588 196.000
41.65583 207.000
41.67578 198.000
41.69572 205.000
41.71567 263.000
41.73562 192.000
41.75556 214.000
41.77551 198.000
41.79546 225.000
41.81540 196.000
41.83535 206.000
41.85530 188.000
41.87524 198.000
41.89519 197.000
41.91514 200.000
41.93509 170.000
41.95503 218.000
41.97498 173.000
41.99493 172.000
42.01487 216.000
42.03482 214.000
42.05477 189.000
42.07471 204.000
42.09466 224.000
42.11461 204.000
42.13456 210.000
42.15450 192.000
42.17445 214.000
42.19440 200.000
42.21434 202.000
42.23429 177.000
42.25424 216.000
42.27418 192.000
42.29413 203.000
42.31408 193.000
42.33403 177.000
42.35397 184.000
42.37392 239.000
42.39387 219.000
42.41381 190.000
42.43376 199.000
42.45371 185.000
42.47365 196.000
42.49360 191.000
42.51355 188.000
42.53349 208.000
42.55344 170.000
42.57339 206.000
42.59334 193.000
42.61328 216.000
42.63323 198.000
42.65318 197.000
42.67312 200.000
42.69307 205.000
42.71302 201.000
42.73296 172.000
42.75291 181.000
42.77286 194.000
42.79281 191.000
42.81275 216.000
42.83270 198.000
42.85265 188.000
42.87259 199.000
42.89254 179.000
42.91249 193.000
42.93243 180.000
42.95238 178.000
42.97233 209.000
42.99227 163.000
43.01222 225.000
43.03217 211.000
43.05212 192.000
43.07206 196.000
43.09201 188.000
43.11196 225.000
43.13190 218.000
43.15185 197.000
43.17180 201.000
43.19174 204.000
43.21169 199.000
43.23164 194.000
43.25159 168.000
43.27153 199.000
43.29148 180.000
43.31143 198.000
43.33137 196.000
43.35132 184.000
43.37127 191.000
43.39121 161.000
43.41116 186.000
43.43111 178.000
43.45105 183.000
43.47100 185.000
43.49095 174.000
43.51090 213.000
43.53084 170.000
43.55079 152.000
43.57074 183.000
43.59068 200.000
43.61063 171.000
43.63058 162.000
43.65052 193.000
43.67047 167.000
43.69042 172.000
43.71037 166.000
43.73031 179.000
43.75026 167.000
43.77021 176.000
43.79015 171.000
43.81010 160.000
43.83005 161.000
43.84999 156.000
43.86994 194.000
43.88989 169.000
43.90984 166.000
43.92978 169.000
43.94973 172.000
43.96968 169.000
43.98962 153.000
44.00957 154.000
44.02952 155.000
44.04946 182.000
44.06941 164.000
44.08936 151.000
44.10930 184.000
44.12925 162.000
44.14920 159.000
44.16915 167.000
44.18909 153.000
44.20904 191.000
44.22899 172.000
44.24893 174.000
44.26888 165.000
44.28883 197.000
44.30877 184.000
44.32872 169.000
44.34867 164.000
44.36862 171.000
44.38856 191.000
44.40851 178.000
44.42846 152.000
44.44840 159.000
44.46835 143.000
44.48830 172.000
44.50824 165.000
44.52819 179.000
44.54814 145.000
44.56808 164.000
44.58803 171.000
44.60798 190.000
44.62793 156.000
44.64787 121.000
44.66782 167.000
44.68777 175.000
44.70771 177.000
44.72766 161.000
44.74761 153.000
44.76755 138.000
44.78750 165.000
44.80745 176.000
44.82740 149.000
44.84734 179.000
44.86729 152.000
44.88724 160.000
44.90718 169.000
44.92713 162.000
44.94708 152.000
44.96702 172.000
44.98697 152.000
45.00692 171.000
45.02686 165.000
45.04681 149.000
45.06676 147.000
45.08671 132.000
45.10665 166.000
45.12660 154.000
45.14655 146.000
45.16649 160.000
45.18644 163.000
45.20639 128.000
45.22633 143.000
45.24628 157.000
45.26623 157.000
45.28618 134.000
45.30612 168.000
45.32607 139.000
45.34602 139.000
45.36596 151.000
45.38591 155.000
45.40586 136.000
45.42580 164.000
45.44575 147.000
45.46570 174.000
45.48565 135.000
45.50559 145.000
45.52554 144.000
45.54549 153.000
45.56543 149.000
45.58538 153.000
45.60533 121.000
45.62527 146.000
45.64522 136.000
45.66517 154.000
45.68511 125.000
45.70506 148.000
45.72501 141.000
45.74496 126.000
45.76490 154.000
45.78485 144.000
45.80480 132.000
45.82474 140.000
45.84469 153.000
45.86464 135.000
45.88458 152.000
45.90453 133.000
45.92448 160.000
45.94443 143.000
45.96437 142.000
45.98432 151.000
46.00427 129.000
46.02421 133.000
46.04416 150.000
46.06411 156.000
46.08405 141.000
46.10400 147.000
46.12395 132.000
46.14389 144.000
46.16384 140.000
46.18379 145.000
46.20374 136.000
46.22368 132.000
46.24363 159.000
46.26358 122.000
46.28352 130.000
46.30347 152.000
46.32342 124.000
46.34336 148.000
46.36331 143.000
46.38326 137.000
46.40321 148.000
46.42315 141.000
46.44310 153.000
46.46305 144.000
46.48299 152.000
46.50294 146.000
46.52289 145.000
46.54283 115.000
46.56278 142.000
46.58273 138.000
46.60267 132.000
46.62262 129.000
46.64257 144.000
46.66252 127.000
46.68246 143.000
46.70241 133.000
46.72236 134.000
46.74230 125.000
46.76225 124.000
46.78220 150.000
46.80214 122.000
46.82209 130.000
46.84204 132.000
46.86199 138.000
46.88193 137.000
46.90188 125.000
46.92183 137.000
46.94177 125.000
46.96172 137.000
46.98167 141.000
47.00161 124.000
47.02156 130.000
47.04151 137.000
47.06146 123.000
47.08140 132.000
47.10135 126.000
47.12130 127.000
47.14124 122.000
47.16119 142.000
47.18114 127.000
47.20108 124.000
47.22103 131.000
47.24098 129.000
47.26092 115.000
47.28087 135.000
47.30082 150.000
47.32077 136.000
47.34071 118.000
47.36066 136.000
47.38061 123.000
47.40055 134.000
47.42050 129.000
47.44045 116.000
47.46039 128.000
47.48034 130.000
47.50029 114.000
47.52024 143.000
47.54018 125.000
47.56013 145.000
47.58008 134.000
47.60002 140.000
47.61997 131.000
47.63992 117.000
47.65986 123.000
47.67981 110.000
47.69976 129.000
47.71970 134.000
47.73965 144.000
47.75960 151.000
47.77955 134.000
47.79949 139.000
47.81944 128.000
47.83939 130.000
47.85933 146.000
47.87928 144.000
47.89923 128.000
47.91917 123.000
47.93912 163.000
47.95907 136.000
47.97902 115.000
47.99896 109.000
48.01891 140.000
48.03886 123.000
48.05880 140.000
48.07875 147.000
48.09870 134.000
48.11864 149.000
48.13859 121.000
48.15854 145.000
48.17848 127.000
48.19843 141.000
48.21838 123.000
48.23833 140.000
48.25827 150.000
48.27822 142.000
48.29817 145.000
48.31811 144.000
48.33806 130.000
48.35801 146.000
48.37795 154.000
48.39790 153.000
48.41785 144.000
48.43780 140.000
48.45774 139.000
48.47769 142.000
48.49764 143.000
48.51758 145.000
48.53753 171.000
48.55748 149.000
48.57742 171.000
48.59737 158.000
48.61732 180.000
48.63726 176.000
48.65721 162.000
48.67716 167.000
48.69711 172.000
48.71705 173.000
48.73700 182.000
48.75695 163.000
48.77689 195.000
48.79684 169.000
48.81679 161.000
48.83673 176.000
48.85668 155.000
48.87663 196.000
48.89658 175.000
48.91652 205.000
48.93647 203.000
48.95642 208.000
48.97636 240.000
48.99631 251.000
49.01626 244.000
49.03620 309.000
49.05615 308.000
49.07610 365.000
49.09605 342.000
49.11599 353.000
49.13594 365.000
49.15589 364.000
49.17583 372.000
49.19578 327.000
49.21573 322.000
49.23567 256.000
49.25562 268.000
49.27557 238.000
49.29551 231.000
49.31546 214.000
49.33541 202.000
49.35536 169.000
49.37530 167.000
49.39525 141.000
49.41520 128.000
49.43514 129.000
49.45509 126.000
49.47504 137.000
49.49498 116.000
49.51493 132.000
49.53488 120.000
49.55483 115.000
49.57477 106.000
49.59472 114.000
49.61467 144.000
49.63461 110.000
49.65456 108.000
49.67451 121.000
49.69445 131.000
49.71440 122.000
49.73435 122.000
49.75429 128.000
49.77424 121.000
49.79419 131.000
49.81414 110.000
49.83408 123.000
49.85403 128.000
49.87398 100.000
49.89392 134.000
49.91387 143.000
49.93382 106.000
49.95376 121.000
49.97371 113.000
49.99366 137.000
50.01361 117.000
50.03355 102.000
50.05350 113.000
50.07345 114.000
50.09339 102.000
50.11334 99.000
50.13329 111.000
50.15323 138.000
50.17318 120.000
50.19313 112.000
50.21307 128.000
50.23302 114.000
50.25297 127.000
50.27292 110.000
50.29286 125.000
50.31281 110.000
50.33276 118.000
50.35270 122.000
50.37265 123.000
50.39260 112.000
50.41254 116.000
50.43249 115.000
50.45244 119.000
50.47239 122.000
50.49233 112.000
50.51228 107.000
50.53223 138.000
50.55217 100.000
50.57212 97.000
50.59207 111.000
50.61201 96.000
50.63196 104.000
50.65191 122.000
50.67186 130.000
50.69180 126.000
50.71175 122.000
50.73170 119.000
50.75164 115.000
50.77159 118.000
50.79154 134.000
50.81148 84.000
50.83143 118.000
50.85138 132.000
50.87132 103.000
50.89127 100.000
50.91122 99.000
50.93117 100.000
50.95111 112.000
50.97106 101.000
50.99101 103.000
51.01095 100.000
51.03090 112.000
51.05085 108.000
51.07079 105.000
51.09074 115.000
51.11069 112.000
51.13064 107.000
51.15058 109.000
51.17053 105.000
51.19048 108.000
51.21042 114.000
51.23037 109.000
51.25032 96.000
51.27026 127.000
51.29021 122.000
51.31016 97.000
51.33010 103.000
51.35005 132.000
51.37000 105.000
51.38995 103.000
51.40989 101.000
51.42984 99.000
51.44979 105.000
51.46973 93.000
51.48968 109.000
51.50963 121.000
51.52957 108.000
51.54952 109.000
51.56947 100.000
51.58942 116.000
51.60936 117.000
51.62931 99.000
51.64926 106.000
51.66920 129.000
51.68915 85.000
51.70910 132.000
51.72904 101.000
51.74899 110.000
51.76894 107.000
51.78888 98.000
51.80883 116.000
51.82878 108.000
51.84873 105.000
51.86867 104.000
51.88862 109.000
51.90857 99.000
51.92851 115.000
51.94846 106.000
51.96841 100.000
51.98835 105.000
52.00830 98.000
52.02825 100.000
52.04820 107.000
52.06814 114.000
52.08809 106.000
52.10804 102.000
52.12798 106.000
52.14793 105.000
52.16788 84.000
52.18782 103.000
52.20777 112.000
52.22772 100.000
52.24767 110.000
52.26761 105.000
52.28756 118.000
52.30751 92.000
52.32745 105.000
52.34740 98.000
52.36735 112.000
52.38729 132.000
52.40724 99.000
52.42719 129.000
52.44713 100.000
52.46708 91.000
52.48703 109.000
52.50698 123.000
52.52692 117.000
52.54687 110.000
52.56682 110.000
52.58676 98.000
52.60671 111.000
52.62666 122.000
52.64660 132.000
52.66655 115.000
52.68650 114.000
52.70645 116.000
52.72639 112.000
52.74634 124.000
52.76629 107.000
52.78623 113.000
52.80618 130.000
52.82613 122.000
52.84607 116.000
52.86602 126.000
52.88597 134.000
52.90591 119.000
52.92586 141.000
52.94581 138.000
52.96576 115.000
52.98570 122.000
53.00565 125.000
53.02560 110.000
53.04554 109.000
53.06549 113.000
53.08544 122.000
53.10538 106.000
53.12533 127.000
53.14528 120.000
53.16523 131.000
53.18517 113.000
53.20512 113.000
53.22507 137.000
53.24501 143.000
53.26496 132.000
53.28491 163.000
53.30485 124.000
53.32480 122.000
53.34475 117.000
53.36469 134.000
53.38464 133.000
53.40459 138.000
53.42454 129.000
53.44448 141.000
53.46443 141.000
53.48438 161.000
53.50432 155.000
53.52427 165.000
53.54422 168.000
53.56416 210.000
53.58411 188.000
53.60406 219.000
53.62401 258.000
53.64395 302.000
53.66390 290.000
53.68385 349.000
53.70379 394.000
53.72374 392.000
53.74369 429.000
53.76363 415.000
53.78358 445.000
53.80353 375.000
53.82348 325.000
53.84342 304.000
53.86337 315.000
53.88332 293.000
53.90326 255.000
53.92321 274.000
53.94316 206.000
53.96310 175.000
53.98305 153.000
54.00300 121.000
54.02294 156.000
54.04289 118.000
54.06284 128.000
54.08279 94.000
54.10273 111.000
54.12268 144.000
54.14263 106.000
54.16257 93.000
54.18252 96.000
54.20247 95.000
54.22241 95.000
54.24236 113.000
54.26231 111.000
54.28226 112.000
54.30220 118.000
54.32215 107.000
54.34210 96.000
54.36204 110.000
54.38199 102.000
54.40194 107.000
54.42188 94.000
54.44183 108.000
54.46178 111.000
54.48172 90.000
54.50167 106.000
54.52162 92.000
54.54157 119.000
54.56151 110.000
54.58146 109.000
54.60141 110.000
54.62135 115.000
54.64130 89.000
54.66125 100.000
54.68119 118.000
54.70114 116.000
54.72109 101.000
54.74104 116.000
54.76098 113.000
54.78093 91.000
54.80088 96.000
54.82082 93.000
54.84077 102.000
54.86072 98.000
54.88066 98.000
54.90061 113.000
54.92056 100.000
54.94050 93.000
54.96045 113.000
54.98040 97.000
55.00035 105.000
55.02029 105.000
55.04024 96.000
55.06019 102.000
55.08013 105.000
55.10008 92.000
55.12003 100.000
55.13997 100.000
55.15992 100.000
55.17987 105.000
55.19982 98.000
55.21976 117.000
55.23971 94.000
55.25966 93.000
55.27960 102.000
55.29955 108.000
55.31950 121.000
55.33944 95.000
55.35939 96.000
55.37934 120.000
55.39929 97.000
55.41923 110.000
55.43918 101.000
55.45913 91.000
55.47907 113.000
55.49902 95.000
55.51897 114.000
55.53891 98.000
55.55886 100.000
55.57881 96.000
55.59875 103.000
55.61870 118.000
55.63865 82.000
55.65860 88.000
55.67854 100.000
55.69849 113.000
55.71844 105.000
55.73838 111.000
55.75833 107.000
55.77828 105.000
55.79822 109.000
55.81817 105.000
55.83812 109.000
55.85807 103.000
55.87801 117.000
55.89796 96.000
55.91791 112.000
55.93785 102.000
55.95780 91.000
55.97775 117.000
55.99769 98.000
56.01764 74.000
56.03759 91.000
56.05753 100.000
56.07748 117.000
56.09743 106.000
56.11738 98.000
56.13732 91.000
56.15727 96.000
56.17722 115.000
56.19716 87.000
56.21711 114.000
56.23706 89.000
56.25700 99.000
56.27695 96.000
56.29690 116.000
56.31685 108.000
56.33679 94.000
56.35674 99.000
56.37669 86.000
56.39663 98.000
56.41658 97.000
56.43653 97.000
56.45647 99.000
56.47642 100.000
56.49637 107.000
56.51631 116.000
56.53626 105.000
56.55621 96.000
56.57616 98.000
56.59610 90.000
56.61605 105.000
56.63600 94.000
56.65594 93.000
56.67589 97.000
56.69584 102.000
56.71578 96.000
56.73573 82.000
56.75568 93.000
56.77563 99.000
56.79557 123.000
56.81552 90.000
56.83547 96.000
56.85541 91.000
56.87536 95.000
56.89531 115.000
56.91525 97.000
56.93520 128.000
56.95515 98.000
56.97510 110.000
56.99504 97.000
57.01499 113.000
57.03494 123.000
57.05488 116.000
57.07483 110.000
57.09478 146.000
57.11472 113.000
57.13467 130.000
57.15462 145.000
57.17456 130.000
57.19451 174.000
57.21446 151.000
57.23441 161.000
57.25435 166.000
57.27430 150.000
57.29425 178.000
57.31419 144.000
57.33414 167.000
57.35409 140.000
57.37403 147.000
57.39398 133.000
57.41393 147.000
57.43388 104.000
57.45382 111.000
57.47377 109.000
57.49372 116.000
57.51366 102.000
57.53361 109.000
57.55356 124.000
57.57350 109.000
57.59345 109.000
57.61340 82.000
57.63334 99.000
57.65329 103.000
57.67324 76.000
57.69319 91.000
57.71313 104.000
57.73308 103.000
57.75303 95.000
57.77297 82.000
57.79292 95.000
57.81287 82.000
57.83281 95.000
57.85276 94.000
57.87271 105.000
57.89266 96.000
57.91260 93.000
57.93255 104.000
57.95250 93.000
57.97244 94.000
57.99239 106.000
58.01234 90.000
58.03228 98.000
58.05223 93.000
58.07218 101.000
58.09212 101.000
58.11207 95.000
58.13202 87.000
58.15197 90.000
58.17191 88.000
58.19186 92.000
58.21181 108.000
58.23175 97.000
58.25170 98.000
58.27165 86.000
58.29159 112.000
58.31154 96.000
58.33149 98.000
58.35144 92.000
58.37138 60.000
58.39133 73.000
58.41128 88.000
58.43122 101.000
58.45117 97.000
58.47112 94.000
58.49106 117.000
58.51101 96.000
58.53096 72.000
58.55090 96.000
58.57085 82.000
58.59080 87.000
58.61075 88.000
58.63069 93.000
58.65064 91.000
58.67059 103.000
58.69053 107.000
58.71048 92.000
58.73043 96.000
58.75037 92.000
58.77032 107.000
58.79027 100.000
58.81022 85.000
58.83016 107.000
58.85011 111.000
58.87006 90.000
58.89000 80.000
58.90995 83.000
58.92990 90.000
58.94984 102.000
58.96979 91.000
58.98974 87.000
59.00969 96.000
59.02963 96.000
59.04958 83.000
59.06953 89.000
59.08947 100.000
59.10942 89.000
59.12937 79.000
59.14931 78.000
59.16926 111.000
59.18921 124.000
59.20915 81.000
59.22910 88.000
59.24905 102.000
59.26900 94.000
59.28894 82.000
59.30889 95.000
59.32884 107.000
59.34878 97.000
59.36873 103.000
59.38868 101.000
59.40862 83.000
59.42857 106.000
59.44852 83.000
59.46847 96.000
59.48841 97.000
59.50836 115.000
59.52831 87.000
59.54825 83.000
59.56820 100.000
59.58815 81.000
59.60809 109.000
59.62804 106.000
59.64799 111.000
59.66793 100.000
59.68788 104.000
59.70783 99.000
59.72778 107.000
59.74772 106.000
59.76767 102.000
59.78762 108.000
59.80756 110.000
59.82751 109.000
59.84746 102.000
59.86740 108.000
59.88735 122.000
59.90730 115.000
59.92725 109.000
59.94719 122.000
59.96714 102.000
59.98709 103.000
60.00703 121.000
60.02698 110.000
60.04693 112.000
60.06687 128.000
60.08682 129.000
60.10677 118.000
60.12671 132.000
60.14666 122.000
60.16661 128.000
60.18656 118.000
60.20650 138.000
60.22645 135.000
60.24640 134.000
60.26634 157.000
60.28629 133.000
60.30624 155.000
60.32618 135.000
60.34613 149.000
60.36608 155.000
60.38603 176.000
60.40597 142.000
60.42592 173.000
60.44587 168.000
60.46581 146.000
60.48576 169.000
60.50571 172.000
60.52565 180.000
60.54560 157.000
60.56555 182.000
60.58550 192.000
60.60544 183.000
60.62539 152.000
60.64534 145.000
60.66528 172.000
60.68523 137.000
60.70518 181.000
60.72512 163.000
60.74507 161.000
60.76502 156.000
60.78496 153.000
60.80491 154.000
60.82486 170.000
60.84481 152.000
60.86475 125.000
60.88470 134.000
60.90465 139.000
60.92459 122.000
60.94454 168.000
60.96449 163.000
60.98443 158.000
61.00438 179.000
61.02433 155.000
61.04428 141.000
61.06422 129.000
61.08417 152.000
61.10412 163.000
61.12406 147.000
61.14401 150.000
61.16396 164.000
61.18390 163.000
61.20385 153.000
61.22380 147.000
61.24374 165.000
61.26369 139.000
61.28364 134.000
61.30359 118.000
61.32353 123.000
61.34348 123.000
61.36343 133.000
61.38337 120.000
61.40332 124.000
61.42327 110.000
61.44321 126.000
61.46316 120.000
61.48311 103.000
61.50306 106.000
61.52300 97.000
61.54295 113.000
61.56290 90.000
61.58284 103.000
61.60279 94.000
61.62274 105.000
61.64268 105.000
61.66263 102.000
61.68258 97.000
61.70252 97.000
61.72247 86.000
61.74242 85.000
61.76237 91.000
61.78231 87.000
61.80226 105.000
61.82221 103.000
61.84215 130.000
61.86210 120.000
61.88205 147.000
61.90199 113.000
61.92194 113.000
61.94189 122.000
61.96184 118.000
61.98178 160.000
62.00173 152.000
62.02168 170.000
62.04162 190.000
62.06157 236.000
62.08152 220.000
62.10146 273.000
62.12141 291.000
62.14136 300.000
62.16131 311.000
62.18125 242.000
62.20120 229.000
62.22115 236.000
62.24109 234.000
62.26104 209.000
62.28099 180.000
62.30093 194.000
62.32088 196.000
62.34083 192.000
62.36077 148.000
62.38072 142.000
62.40067 127.000
62.42062 138.000
62.44056 128.000
62.46051 112.000
62.48046 116.000
62.50040 108.000
62.52035 101.000
62.54030 102.000
62.56024 102.000
62.58019 111.000
62.60014 92.000
62.62009 112.000
62.64003 97.000
62.65998 80.000
62.67993 101.000
62.69987 101.000
62.71982 101.000
62.73977 96.000
62.75971 86.000
62.77966 92.000
62.79961 90.000
62.81955 83.000
62.83950 81.000
62.85945 94.000
62.87940 73.000
62.89934 88.000
62.91929 83.000
62.93924 84.000
62.95918 111.000
62.97913 82.000
62.99908 75.000
63.01902 79.000
63.03897 78.000
63.05892 84.000
63.07887 75.000
63.09881 90.000
63.11876 81.000
63.13871 84.000
63.15865 92.000
63.17860 98.000
63.19855 109.000
63.21849 90.000
63.23844 113.000
63.25839 79.000
63.27833 97.000
63.29828 88.000
63.31823 91.000
63.33818 113.000
63.35812 87.000
63.37807 94.000
63.39802 100.000
63.41796 118.000
63.43791 116.000
63.45786 101.000
63.47780 104.000
63.49775 131.000
63.51770 126.000
63.53765 130.000
63.55759 146.000
63.57754 163.000
63.59749 173.000
63.61743 200.000
63.63738 228.000
63.65733 211.000
63.67727 264.000
63.69722 274.000
63.71717 293.000
63.73712 281.000
63.75706 260.000
63.77701 252.000
63.79696 225.000
63.81690 225.000
63.83685 226.000
63.85680 185.000
63.87674 183.000
63.89669 186.000
63.91664 181.000
63.93658 191.000
63.95653 139.000
63.97648 127.000
63.99643 126.000
64.01637 105.000
64.03632 85.000
64.05627 103.000
64.07621 91.000
64.09616 97.000
64.11611 86.000
64.13605 85.000
64.15600 104.000
64.17595 88.000
64.19590 102.000
64.21584 105.000
64.23579 99.000
64.25574 102.000
64.27568 101.000
64.29563 87.000
64.31558 97.000
64.33552 82.000
64.35547 82.000
64.37542 103.000
64.39536 107.000
64.41531 109.000
64.43526 98.000
64.45521 73.000
64.47515 89.000
64.49510 75.000
64.51505 96.000
64.53499 81.000
64.55494 92.000
64.57489 89.000
64.59483 113.000
64.61478 91.000
64.63473 97.000
64.65468 86.000
64.67462 89.000
64.69457 91.000
64.71452 74.000
64.73446 83.000
64.75441 96.000
64.77436 83.000
64.79430 97.000
64.81425 98.000
64.83420 107.000
64.85414 74.000
64.87409 87.000
64.89404 92.000
64.91399 91.000
64.93393 97.000
64.95388 84.000
64.97383 105.000
64.99377 92.000
65.01372 102.000
65.03367 96.000
65.05361 95.000
65.07356 120.000
65.09351 89.000
65.11346 87.000
65.13340 78.000
65.15335 84.000
65.17330 97.000
65.19324 91.000
65.21319 69.000
65.23314 87.000
65.25308 80.000
65.27303 90.000
65.29298 95.000
65.31293 97.000
65.33287 95.000
65.35282 82.000
65.37277 69.000
65.39271 79.000
65.41266 93.000
65.43261 89.000
65.45255 96.000
65.47250 77.000
65.49245 84.000
65.51239 70.000
65.53234 86.000
65.55229 83.000
65.57224 75.000
65.59218 99.000
65.61213 70.000
65.63208 89.000
65.65202 94.000
65.67197 74.000
65.69192 70.000
65.71186 86.000
65.73181 88.000
65.75176 81.000
65.77171 69.000
65.79165 88.000
65.81160 62.000
65.83155 84.000
65.85149 85.000
65.87144 82.000
65.89139 83.000
65.91133 85.000
65.93128 83.000
65.95123 73.000
65.97117 78.000
65.99112 77.000
66.01107 69.000
66.03102 72.000
66.05096 84.000
66.07091 78.000
66.09086 76.000
66.11080 74.000
66.13075 82.000
66.15070 77.000
66.17064 77.000
66.19059 80.000
66.21054 68.000
66.23049 70.000
66.25043 75.000
66.27038 71.000
66.29033 56.000
66.31027 80.000
66.33022 65.000
66.35017 69.000
66.37011 64.000
66.39006 75.000
66.41001 70.000
66.42995 67.000
66.44990 81.000
66.46985 55.000
66.48980 78.000
66.50974 88.000
66.52969 67.000
66.54964 68.000
66.56958 68.000
66.58953 72.000
66.60948 75.000
66.62942 91.000
66.64937 74.000
66.66932 75.000
66.68927 77.000
66.70921 71.000
66.72916 76.000
66.74911 72.000
66.76905 70.000
66.78900 86.000
66.80895 73.000
66.82889 74.000
66.84884 90.000
66.86879 75.000
66.88874 56.000
66.90868 65.000
66.92863 74.000
66.94858 72.000
66.96852 70.000
66.98847 72.000
67.00842 94.000
67.02836 60.000
67.04831 95.000
67.06826 71.000
67.08820 61.000
67.10815 85.000
67.12810 68.000
67.14805 81.000
67.16799 83.000
67.18794 68.000
67.20789 89.000
67.22783 76.000
67.24778 80.000
67.26773 83.000
67.28767 84.000
67.30762 60.000
67.32757 79.000
67.34752 73.000
67.36746 53.000
67.38741 63.000
67.40736 75.000
67.42730 79.000
67.44725 74.000
67.46720 76.000
67.48714 71.000
67.50709 62.000
67.52704 79.000
67.54698 81.000
67.56693 88.000
67.58688 52.000
67.60683 63.000
67.62677 72.000
67.64672 79.000
67.66667 68.000
67.68661 76.000
67.70656 74.000
67.72651 58.000
67.74645 66.000
67.76640 81.000
67.78635 61.000
67.80630 67.000
67.82624 65.000
67.84619 76.000
67.86614 79.000
67.88608 73.000
67.90603 57.000
67.92598 67.000
67.94592 79.000
67.96587 59.000
67.98582 68.000
68.00576 71.000
68.02571 66.000
68.04566 58.000
68.06561 62.000
68.08555 77.000
68.10550 64.000
68.12545 66.000
68.14539 60.000
68.16534 68.000
68.18529 83.000
68.20523 65.000
68.22518 80.000
68.24513 89.000
68.26508 70.000
68.28502 68.000
68.30497 68.000
68.32492 81.000
68.34486 75.000
68.36481 80.000
68.38476 90.000
68.40470 69.000
68.42465 71.000
68.44460 56.000
68.46455 69.000
68.48449 63.000
68.50444 72.000
68.52439 62.000
68.54433 72.000
68.56428 70.000
68.58423 70.000
68.60417 67.000
68.62412 55.000
68.64407 72.000
68.66401 62.000
68.68396 72.000
68.70391 69.000
68.72386 66.000
68.74380 60.000
68.76375 72.000
68.78370 60.000
68.80364 64.000
68.82359 64.000
68.84354 67.000
68.86348 68.000
68.88343 61.000
68.90338 73.000
68.92333 58.000
68.94327 62.000
68.96322 74.000
68.98317 63.000
69.00311 61.000
69.02306 93.000
69.04301 74.000
69.06295 61.000
69.08290 62.000
69.10285 84.000
69.12279 79.000
69.14274 65.000
69.16269 72.000
69.18264 78.000
69.20258 77.000
69.22253 87.000
69.24248 78.000
69.26242 92.000
69.28237 99.000
69.30232 87.000
69.32226 80.000
69.34221 92.000
69.36216 80.000
69.38211 78.000
69.40205 74.000
69.42200 66.000
69.44195 72.000
69.46189 82.000
69.48184 91.000
69.50179 82.000
69.52173 71.000
69.54168 70.000
69.56163 55.000
69.58157 69.000
69.60152 73.000
69.62147 75.000
69.64142 70.000
69.66136 61.000
69.68131 73.000
69.70126 76.000
69.72120 73.000
69.74115 57.000
69.76110 60.000
69.78104 73.000
69.80099 66.000
69.82094 88.000
69.84089 68.000
69.86083 63.000
69.88078 66.000
69.90073 66.000
69.92067 59.000
69.94062 67.000
69.96057 58.000
69.98051 61.000
70.00046 59.000
70.02041 63.000
70.04035 68.000
70.06030 53.000
70.08025 74.000
70.10020 74.000
70.12014 67.000
70.14009 64.000
70.16004 73.000
70.17998 64.000
70.19993 60.000
70.21988 86.000
70.23982 66.000
70.25977 76.000
70.27972 76.000
70.29967 68.000
70.31961 71.000
70.33956 67.000
70.35951 61.000
70.37945 62.000
70.39940 72.000
70.41935 50.000
70.43929 61.000
70.45924 63.000
70.47919 63.000
70.49914 75.000
70.51908 67.000
70.53903 76.000
70.55898 77.000
70.57892 69.000
70.59887 61.000
70.61882 69.000
70.63876 85.000
70.65871 84.000
70.67866 83.000
70.69860 66.000
70.71855 75.000
70.73850 67.000
70.75845 83.000
70.77839 72.000
70.79834 80.000
70.81829 74.000
70.83823 75.000
70.85818 73.000
70.87813 63.000
70.89807 62.000
70.91802 67.000
70.93797 66.000
70.95792 81.000
70.97786 84.000
70.99781 61.000
71.01776 68.000
71.03770 78.000
71.05765 84.000
71.07760 92.000
71.09754 81.000
71.11749 73.000
71.13744 85.000
71.15738 69.000
71.17733 78.000
71.19728 65.000
71.21723 83.000
71.23717 84.000
71.25712 81.000
71.27707 93.000
71.29701 83.000
71.31696 97.000
71.33691 75.000
71.35685 83.000
71.37680 84.000
71.39675 111.000
71.41670 84.000
71.43664 93.000
71.45659 93.000
71.47654 97.000
71.49648 97.000
71.51643 92.000
71.53638 109.000
71.55632 127.000
71.57627 119.000
71.59622 124.000
71.61616 145.000
71.63611 143.000
71.65606 127.000
71.67601 152.000
71.69595 146.000
71.71590 107.000
71.73585 96.000
71.75579 106.000
71.77574 113.000
71.79569 116.000
71.81563 128.000
71.83558 119.000
71.85553 124.000
71.87548 105.000
71.89542 107.000
71.91537 95.000
71.93532 109.000
71.95526 108.000
71.97521 80.000
71.99516 108.000
72.01510 88.000
72.03505 94.000
72.05500 103.000
72.07495 88.000
72.09489 90.000
72.11484 89.000
72.13479 98.000
72.15473 65.000
72.17468 85.000
72.19463 73.000
72.21457 83.000
72.23452 73.000
72.25447 82.000
72.27441 71.000
72.29436 76.000
72.31431 75.000
72.33426 72.000
72.35420 66.000
72.37415 66.000
72.39410 73.000
72.41404 94.000
72.43399 77.000
72.45394 69.000
72.47388 72.000
72.49383 64.000
72.51378 61.000
72.53373 74.000
72.55367 64.000
72.57362 49.000
72.59357 60.000
72.61351 71.000
72.63346 69.000
72.65341 67.000
72.67335 64.000
72.69330 76.000
72.71325 69.000
72.73319 69.000
72.75314 71.000
72.77309 68.000
72.79304 89.000
72.81298 61.000
72.83293 79.000
72.85288 62.000
72.87282 57.000
72.89277 78.000
72.91272 62.000
72.93266 61.000
72.95261 67.000
72.97256 58.000
72.99251 51.000
73.01245 63.000
73.03240 54.000
73.05235 74.000
73.07229 62.000
73.09224 59.000
73.11219 63.000
73.13213 58.000
73.15208 65.000
73.17203 68.000
73.19197 71.000
73.21192 68.000
73.23187 70.000
73.25182 77.000
73.27176 65.000
73.29171 82.000
73.31166 65.000
73.33160 64.000
73.35155 70.000
73.37150 74.000
73.39144 78.000
73.41139 64.000
73.43134 69.000
73.45129 53.000
73.47123 71.000
73.49118 61.000
73.51113 81.000
73.53107 84.000
73.55102 66.000
73.57097 57.000
73.59091 67.000
73.61086 61.000
73.63081 67.000
73.65076 56.000
73.67070 87.000
73.69065 58.000
73.71060 71.000
73.73054 67.000
73.75049 54.000
73.77044 78.000
73.79038 65.000
73.81033 64.000
73.83028 62.000
73.85022 60.000
73.87017 59.000
73.89012 55.000
73.91007 69.000
73.93001 74.000
73.94996 65.000
73.96991 57.000
73.98985 68.000
74.00980 69.000
74.02975 82.000
74.04969 62.000
74.06964 69.000
74.08959 59.000
74.10954 85.000
74.12948 63.000
74.14943 65.000
74.16938 76.000
74.18932 74.000
74.20927 92.000
74.22922 55.000
74.24916 57.000
74.26911 60.000
74.28906 65.000
74.30900 92.000
74.32895 68.000
74.34890 77.000
74.36885 70.000
74.38879 63.000
74.40874 73.000
74.42869 71.000
74.44863 61.000
74.46858 93.000
74.48853 72.000
74.50847 61.000
74.52842 78.000
74.54837 50.000
74.56832 76.000
74.58826 61.000
74.60821 61.000
74.62816 52.000
74.64810 73.000
74.66805 88.000
74.68800 76.000
74.70794 68.000
74.72789 64.000
74.74784 67.000
74.76778 57.000
74.78773 80.000
74.80768 66.000
74.82763 76.000
74.84757 74.000
74.86752 74.000
74.88747 71.000
74.90741 67.000
74.92736 64.000
74.94731 73.000
74.96725 67.000
74.98720 62.000
75.00715 68.000
75.02710 64.000
75.04704 83.000
75.06699 87.000
75.08694 100.000
75.10688 96.000
75.12683 101.000
75.14678 95.000
75.16672 116.000
75.18667 101.000
75.20662 124.000
75.22657 121.000
75.24651 91.000
75.26646 103.000
75.28641 97.000
75.30635 94.000
75.32630 86.000
75.34625 100.000
75.36619 102.000
75.38614 90.000
75.40609 109.000
75.42603 74.000
75.44598 87.000
75.46593 89.000
75.48588 86.000
75.50582 82.000
75.52577 90.000
75.54572 62.000
75.56566 65.000
75.58561 64.000
75.60556 76.000
75.62550 51.000
75.64545 69.000
75.66540 64.000
75.68535 77.000
75.70529 79.000
75.72524 65.000
75.74519 75.000
75.76513 81.000
75.78508 75.000
75.80503 68.000
75.82497 65.000
75.84492 69.000
75.86487 77.000
75.88481 58.000
75.90476 62.000
75.92471 89.000
75.94466 78.000
75.96460 50.000
75.98455 65.000
76.00450 61.000
76.02444 62.000
76.04439 68.000
76.06434 67.000
76.08428 68.000
76.10423 70.000
76.12418 71.000
76.14413 65.000
76.16407 56.000
76.18402 58.000
76.20397 62.000
76.22391 60.000
76.24386 60.000
76.26381 68.000
76.28375 61.000
76.30370 60.000
76.32365 58.000
76.34359 66.000
76.36354 63.000
76.38349 76.000
76.40344 58.000
76.42338 58.000
76.44333 70.000
76.46328 65.000
76.48322 56.000
76.50317 65.000
76.52312 69.000
76.54306 76.000
76.56301 75.000
76.58296 67.000
76.60291 65.000
76.62285 57.000
76.64280 63.000
76.66275 48.000
76.68269 70.000
76.70264 62.000
76.72259 67.000
76.74253 64.000
76.76248 60.000
76.78243 72.000
76.80238 46.000
76.82232 67.000
76.84227 59.000
76.86222 69.000
76.88216 61.000
76.90211 71.000
76.92206 59.000
76.94200 62.000
76.96195 63.000
76.98190 73.000
77.00184 51.000
77.02179 53.000
77.04174 68.000
77.06169 61.000
77.08163 59.000
77.10158 61.000
77.12153 72.000
77.14147 60.000
77.16142 45.000
77.18137 56.000
77.20131 56.000
77.22126 71.000
77.24121 69.000
77.26116 66.000
77.28110 66.000
77.30105 73.000
77.32100 70.000
77.34094 56.000
77.36089 79.000
77.38084 96.000
77.40078 55.000
77.42073 92.000
77.44068 78.000
77.46062 76.000
77.48057 80.000
77.50052 77.000
77.52047 78.000
77.54041 77.000
77.56036 78.000
77.58031 53.000
77.60025 64.000
77.62020 70.000
77.64015 65.000
77.66009 83.000
77.68004 69.000
77.69999 69.000
77.71994 51.000
77.73988 84.000
77.75983 63.000
77.77978 67.000
77.79972 60.000
77.81967 63.000
77.83962 60.000
77.85956 52.000
77.87951 51.000
77.89946 69.000
77.91940 60.000
77.93935 52.000
77.95930 52.000
77.97925 72.000
77.99919 65.000
78.01914 81.000
78.03909 53.000
78.05903 58.000
78.07898 50.000
78.09893 58.000
78.11887 62.000
78.13882 60.000
78.15877 65.000
78.17872 47.000
78.19866 47.000
78.21861 56.000
78.23856 65.000
78.25850 55.000
78.27845 59.000
78.29840 44.000
78.31834 69.000
78.33829 69.000
78.35824 74.000
78.37819 72.000
78.39813 58.000
78.41808 59.000
78.43803 72.000
78.45797 51.000
78.47792 65.000
78.49787 70.000
78.51781 72.000
78.53776 75.000
78.55771 75.000
78.57765 68.000
78.59760 68.000
78.61755 67.000
78.63750 81.000
78.65744 54.000
78.67739 51.000
78.69734 59.000
78.71728 73.000
78.73723 57.000
78.75718 68.000
78.77712 57.000
78.79707 54.000
78.81702 57.000
78.83697 74.000
78.85691 60.000
78.87686 58.000
78.89681 67.000
78.91675 62.000
78.93670 59.000
78.95665 52.000
78.97659 61.000
78.99654 57.000
79.01649 66.000
79.03643 59.000
79.05638 60.000
79.07633 64.000
79.09628 61.000
79.11622 56.000
79.13617 62.000
79.15612 58.000
79.17606 62.000
79.19601 51.000
79.21596 55.000
79.23590 61.000
79.25585 54.000
79.27580 56.000
79.29575 59.000
79.31569 61.000
79.33564 71.000
79.35559 57.000
79.37553 55.000
79.39548 71.000
79.41543 55.000
79.43537 59.000
79.45532 61.000
79.47527 59.000
79.49521 71.000
79.51516 45.000
79.53511 65.000
79.55506 67.000
79.57500 74.000
79.59495 65.000
79.61490 57.000
79.63484 61.000
79.65479 54.000
79.67474 62.000
79.69468 66.000
79.71463 67.000
79.73458 59.000
79.75453 45.000
79.77447 69.000
79.79442 64.000
79.81437 54.000
79.83431 59.000
79.85426 60.000
79.87421 63.000
79.89415 61.000
79.91410 47.000
79.93405 57.000
79.95399 60.000
79.97394 67.000
79.99389 64.000
80.01384 54.000
80.03378 76.000
80.05373 80.000
80.07368 64.000
80.09362 66.000
80.11357 69.000
80.13352 71.000
80.15346 67.000
80.17341 58.000
80.19336 66.000
80.21331 59.000
80.23325 70.000
80.25320 74.000
80.27315 63.000
80.29309 79.000
80.31304 80.000
80.33299 79.000
80.35293 92.000
80.37288 82.000
80.39283 86.000
80.41278 84.000
80.43272 96.000
80.45267 105.000
80.47262 97.000
80.49256 86.000
80.51251 75.000
80.53246 82.000
80.55240 88.000
80.57235 69.000
80.59230 76.000
80.61224 83.000
80.63219 64.000
80.65214 89.000
80.67209 73.000
80.69203 70.000
80.71198 78.000
80.73193 92.000
80.75187 74.000
80.77182 80.000
80.79177 77.000
80.81171 67.000
80.83166 68.000
80.85161 67.000
80.87156 74.000
80.89150 69.000
80.91145 83.000
80.93140 69.000
80.95134 63.000
80.97129 66.000
80.99124 72.000
81.01118 71.000
81.03113 64.000
81.05108 64.000
81.07102 52.000
81.09097 76.000
81.11092 66.000
81.13087 55.000
81.15081 67.000
81.17076 62.000
81.19071 66.000
81.21065 52.000
81.23060 69.000
81.25055 64.000
81.27049 70.000
81.29044 64.000
81.31039 60.000
81.33034 81.000
81.35028 58.000
81.37023 58.000
81.39018 80.000
81.41012 60.000
81.43007 67.000
81.45002 61.000
81.46996 69.000
81.48991 68.000
81.50986 81.000
81.52980 59.000
81.54975 74.000
81.56970 66.000
81.58965 68.000
81.60959 62.000
81.62954 68.000
81.64949 87.000
81.66943 71.000
81.68938 72.000
81.70933 78.000
81.72927 65.000
81.74922 86.000
81.76917 75.000
81.78912 77.000
81.80906 72.000
81.82901 66.000
81.84896 60.000
81.86890 62.000
81.88885 72.000
81.90880 60.000
81.92874 57.000
81.94869 72.000
81.96864 71.000
81.98859 67.000
82.00853 67.000
82.02848 70.000
82.04843 59.000
82.06837 72.000
82.08832 60.000
82.10827 72.000
82.12821 72.000
82.14816 65.000
82.16811 73.000
82.18805 63.000
82.20800 53.000
82.22795 69.000
82.24790 72.000
82.26784 59.000
82.28779 69.000
82.30774 68.000
82.32768 76.000
82.34763 62.000
82.36758 74.000
82.38752 72.000
82.40747 77.000
82.42742 87.000
82.44737 58.000
82.46731 68.000
82.48726 64.000
82.50721 75.000
82.52715 74.000
82.54710 77.000
82.56705 79.000
82.58699 82.000
82.60694 80.000
82.62689 100.000
82.64683 84.000
82.66678 122.000
82.68673 106.000
82.70668 89.000
82.72662 89.000
82.74657 79.000
82.76652 81.000
82.78646 70.000
82.80641 70.000
82.82636 87.000
82.84630 84.000
82.86625 70.000
82.88620 71.000
82.90615 67.000
82.92609 94.000
82.94604 69.000
82.96599 79.000
82.98593 63.000
83.00588 56.000
83.02583 58.000
83.04577 62.000
83.06572 62.000
83.08567 49.000
83.10561 64.000
83.12556 66.000
83.14551 64.000
83.16546 60.000
83.18540 62.000
83.20535 60.000
83.22530 60.000
83.24524 54.000
83.26519 64.000
83.28514 61.000
83.30508 65.000
83.32503 70.000
83.34498 59.000
83.36493 43.000
83.38487 64.000
83.40482 46.000
83.42477 63.000
83.44471 52.000
83.46466 59.000
83.48461 68.000
83.50455 64.000
83.52450 49.000
83.54445 58.000
83.56440 47.000
83.58434 60.000
83.60429 50.000
83.62424 61.000
83.64418 52.000
83.66413 61.000
83.68408 48.000
83.70402 60.000
83.72397 58.000
83.74392 72.000
83.76386 51.000
83.78381 75.000
83.80376 56.000
83.82371 58.000
83.84365 54.000
83.86360 69.000
83.88355 68.000
83.90349 71.000
83.92344 51.000
83.94339 52.000
83.96333 58.000
83.98328 46.000
84.00323 70.000
84.02318 69.000
84.04312 42.000
84.06307 81.000
84.08302 45.000
84.10296 58.000
84.12291 47.000
84.14286 56.000
84.16280 67.000
84.18275 55.000
84.20270 57.000
84.22264 62.000
84.24259 64.000
84.26254 64.000
84.28249 67.000
84.30243 79.000
84.32238 57.000
84.34233 64.000
84.36227 83.000
84.38222 53.000
84.40217 55.000
84.42211 72.000
84.44206 61.000
84.46201 73.000
84.48196 75.000
84.50190 71.000
84.52185 73.000
84.54180 79.000
84.56174 80.000
84.58169 101.000
84.60164 93.000
84.62158 91.000
84.64153 104.000
84.66148 94.000
84.68142 99.000
84.70137 111.000
84.72132 124.000
84.74127 105.000
84.76121 105.000
84.78116 98.000
84.80111 79.000
84.82105 89.000
84.84100 106.000
84.86095 91.000
84.88089 84.000
84.90084 81.000
84.92079 80.000
84.94074 93.000
84.96068 78.000
84.98063 68.000
85.00058 69.000
85.02052 71.000
85.04047 75.000
85.06042 75.000
85.08036 61.000
85.10031 71.000
85.12026 66.000
85.14021 56.000
85.16015 81.000
85.18010 63.000
85.20005 44.000
85.21999 58.000
85.23994 55.000
85.25989 60.000
85.27983 63.000
85.29978 54.000
85.31973 48.000
85.33967 65.000
85.35962 55.000
85.37957 70.000
85.39952 65.000
85.41946 59.000
85.43941 51.000
85.45936 57.000
85.47930 58.000
85.49925 53.000
85.51920 58.000
85.53914 70.000
85.55909 63.000
85.57904 45.000
85.59899 54.000
85.61893 62.000
85.63888 56.000
85.65883 59.000
85.67877 42.000
85.69872 59.000
85.71867 64.000
85.73861 67.000
85.75856 51.000
85.77851 51.000
85.79845 56.000
85.81840 63.000
85.83835 55.000
85.85830 48.000
85.87824 67.000
85.89819 51.000
85.91814 49.000
85.93808 50.000
85.95803 53.000
85.97798 62.000
85.99792 51.000
86.01787 56.000
86.03782 60.000
86.05777 59.000
86.07771 48.000
86.09766 54.000
86.11761 38.000
86.13755 70.000
86.15750 56.000
86.17745 47.000
86.19739 65.000
86.21734 52.000
86.23729 50.000
86.25723 66.000
86.27718 55.000
86.29713 59.000
86.31708 57.000
86.33702 50.000
86.35697 61.000
86.37692 56.000
86.39686 59.000
86.41681 67.000
86.43676 44.000
86.45670 64.000
86.47665 62.000
86.49660 60.000
86.51655 50.000
86.53649 61.000
86.55644 54.000
86.57639 60.000
86.59633 74.000
86.61628 54.000
86.63623 51.000
86.65617 45.000
86.67612 44.000
86.69607 64.000
86.71602 67.000
86.73596 57.000
86.75591 52.000
86.77586 44.000
86.79580 54.000
86.81575 48.000
86.83570 64.000
86.85564 56.000
86.87559 61.000
86.89554 49.000
86.91548 47.000
86.93543 55.000
86.95538 49.000
86.97533 44.000
86.99527 52.000
87.01522 56.000
87.03517 45.000
87.05511 53.000
87.07506 53.000
87.09501 65.000
87.11495 57.000
87.13490 42.000
87.15485 60.000
87.17480 59.000
87.19474 54.000
87.21469 57.000
87.23464 73.000
87.25458 57.000
87.27453 55.000
87.29448 48.000
87.31442 56.000
87.33437 67.000
87.35432 62.000
87.37426 66.000
87.39421 46.000
87.41416 62.000
87.43411 60.000
87.45405 49.000
87.47400 62.000
87.49395 56.000
87.51389 60.000
87.53384 75.000
87.55379 56.000
87.57373 58.000
87.59368 62.000
87.61363 54.000
87.63358 45.000
87.65352 56.000
87.67347 63.000
87.69342 58.000
87.71336 57.000
87.73331 51.000
87.75326 69.000
87.77320 65.000
87.79315 65.000
87.81310 62.000
87.83304 55.000
87.85299 57.000
87.87294 61.000
87.89289 70.000
87.91283 63.000
87.93278 56.000
87.95273 62.000
87.97267 60.000
87.99262 49.000
88.01257 69.000
88.03251 55.000
88.05246 64.000
88.07241 61.000
88.09236 78.000
88.11230 79.000
88.13225 67.000
88.15220 77.000
88.17214 84.000
88.19209 84.000
88.21204 72.000
88.23198 93.000
88.25193 75.000
88.27188 83.000
88.29183 85.000
88.31177 108.000
88.33172 96.000
88.35167 88.000
88.37161 93.000
88.39156 93.000
88.41151 93.000
88.43145 72.000
88.45140 88.000
88.47135 84.000
88.49129 76.000
88.51124 78.000
88.53119 73.000
88.55114 78.000
88.57108 85.000
88.59103 67.000
88.61098 78.000
88.63092 73.000
88.65087 62.000
88.67082 77.000
88.69076 64.000
88.71071 55.000
88.73066 64.000
88.75061 58.000
88.77055 63.000
88.79050 68.000
88.81045 66.000
88.83039 51.000
88.85034 46.000
88.87029 65.000
88.89023 60.000
88.91018 60.000
88.93013 46.000
88.95007 51.000
88.97002 65.000
88.98997 64.000
89.00992 55.000
89.02986 55.000
89.04981 59.000
89.06976 53.000
89.08970 53.000
89.10965 47.000
89.12960 40.000
89.14954 51.000
89.16949 49.000
89.18944 59.000
89.20939 61.000
89.22933 61.000
89.24928 64.000
89.26923 59.000
89.28917 57.000
89.30912 52.000
89.32907 60.000
89.34901 57.000
89.36896 48.000
89.38891 59.000
89.40885 46.000
89.42880 45.000
89.44875 47.000
89.46870 45.000
89.48864 55.000
89.50859 63.000
89.52854 49.000
89.54848 50.000
89.56843 49.000
89.58838 54.000
89.60832 44.000
89.62827 61.000
89.64822 47.000
89.66817 53.000
89.68811 64.000
89.70806 49.000
89.72801 50.000
89.74795 62.000
89.76790 57.000
89.78785 57.000
89.80779 57.000
89.82774 43.000
89.84769 57.000
89.86764 51.000
89.88758 58.000
89.90753 56.000
89.92748 57.000
89.94742 56.000
89.96737 55.000
89.98732 71.000
90.00726 43.000
