10.00000 261.000
10.01995 239.000
10.03989 200.000
10.05984 257.000
10.07979 242.000
10.09973 234.000
10.11968 230.000
10.13963 243.000
10.15958 236.000
10.17952 226.000
10.19947 243.000
10.21942 233.000
10.23936 235.000
10.25931 225.000
10.27926 221.000
10.29920 222.000
10.31915 242.000
10.33910 237.000
10.35905 241.000
10.37899 221.000
10.39894 241.000
10.41889 225.000
10.43883 232.000
10.45878 259.000
10.47873 226.000
10.49867 234.000
10.51862 246.000
10.53857 249.000
10.55851 231.000
10.57846 260.000
10.59841 222.000
10.61836 218.000
10.63830 222.000
10.65825 255.000
10.67820 240.000
10.69814 228.000
10.71809 242.000
10.73804 246.000
10.75798 224.000
10.77793 242.000
10.79788 240.000
10.81783 251.000
10.83777 240.000
10.85772 229.000
10.87767 212.000
10.89761 233.000
10.91756 232.000
10.93751 229.000
10.95745 249.000
10.97740 232.000
10.99735 221.000
11.01730 256.000
11.03724 218.000
11.05719 235.000
11.07714 217.000
11.09708 231.000
11.11703 244.000
11.13698 217.000
11.15692 226.000
11.17687 237.000
11.19682 232.000
11.21676 246.000
11.23671 223.000
11.25666 208.000
11.27661 233.000
11.29655 247.000
11.31650 227.000
11.33645 243.000
11.35639 187.000
11.37634 234.000
11.39629 188.000
11.41623 233.000
11.43618 205.000
11.45613 254.000
11.47608 236.000
11.49602 255.000
11.51597 232.000
11.53592 227.000
11.55586 250.000
11.57581 222.000
11.59576 222.000
11.61570 228.000
11.63565 231.000
11.65560 257.000
11.67554 237.000
11.69549 254.000
11.71544 229.000
11.73539 206.000
11.75533 227.000
11.77528 204.000
11.79523 249.000
11.81517 214.000
11.83512 233.000
11.85507 243.000
11.87501 235.000
11.89496 248.000
11.91491 239.000
11.93486 224.000
11.95480 218.000
11.97475 244.000
11.99470 245.000
12.01464 243.000
12.03459 237.000
12.05454 214.000
12.07448 210.000
12.09443 219.000
12.11438 240.000
12.13432 250.000
12.15427 243.000
12.17422 223.000
12.19417 216.000
12.21411 245.000
12.23406 245.000
12.25401 249.000
12.27395 239.000
12.29390 229.000
12.31385 249.000
12.33379 256.000
12.35374 231.000
12.37369 238.000
12.39364 218.000
12.41358 221.000
12.43353 237.000
12.45348 270.000
12.47342 254.000
12.49337 222.000
12.51332 238.000
12.53326 222.000
12.55321 236.000
12.57316 214.000
12.59311 213.000
12.61305 233.000
12.63300 223.000
12.65295 232.000
12.67289 239.000
12.69284 228.000
12.71279 223.000
12.73273 221.000
12.75268 249.000
12.77263 246.000
12.79257 211.000
12.81252 243.000
12.83247 254.000
12.85242 239.000
12.87236 283.000
12.89231 220.000
12.91226 253.000
12.93220 260.000
12.95215 230.000
12.97210 246.000
12.99204 231.000
13.01199 243.000
13.03194 223.000
13.05189 231.000
13.07183 236.000
13.09178 228.000
13.11173 242.000
13.13167 224.000
13.15162 245.000
13.17157 213.000
13.19151 222.000
13.21146 218.000
13.23141 232.000
13.25135 241.000
13.27130 226.000
13.29125 217.000
13.31120 244.000
13.33114 228.000
13.35109 240.000
13.37104 203.000
13.39098 243.000
13.41093 216.000
13.43088 229.000
13.45082 254.000
13.47077 250.000
13.49072 228.000
13.51067 229.000
13.53061 252.000
13.55056 239.000
13.57051 246.000
13.59045 214.000
13.61040 249.000
13.63035 232.000
13.65029 231.000
13.67024 223.000
13.69019 234.000
13.71013 243.000
13.73008 234.000
13.75003 230.000
13.76998 233.000
13.78992 239.000
13.80987 223.000
13.82982 241.000
13.84976 231.000
13.86971 234.000
13.88966 216.000
13.90960 248.000
13.92955 224.000
13.94950 224.000
13.96945 222.000
13.98939 233.000
14.00934 231.000
14.02929 206.000
14.04923 216.000
14.06918 219.000
14.08913 252.000
14.10907 258.000
14.12902 240.000
14.14897 230.000
14.16892 223.000
14.18886 275.000
14.20881 251.000
14.22876 226.000
14.24870 258.000
14.26865 223.000
14.28860 260.000
14.30854 275.000
14.32849 238.000
14.34844 219.000
14.36838 240.000
14.38833 224.000
14.40828 233.000
14.42823 231.000
14.44817 237.000
14.46812 216.000
14.48807 242.000
14.50801 252.000
14.52796 216.000
14.54791 258.000
14.56785 259.000
14.58780 227.000
14.60775 251.000
14.62770 259.000
14.64764 197.000
14.66759 230.000
14.68754 242.000
14.70748 206.000
14.72743 260.000
14.74738 243.000
14.76732 233.000
14.78727 222.000
14.80722 198.000
14.82716 214.000
14.84711 277.000
14.86706 214.000
14.88701 225.000
14.90695 212.000
14.92690 224.000
14.94685 229.000
14.96679 228.000
14.98674 250.000
15.00669 227.000
15.02663 224.000
15.04658 214.000
15.06653 236.000
15.08648 245.000
15.10642 265.000
15.12637 255.000
15.14632 244.000
15.16626 233.000
15.18621 233.000
15.20616 258.000
15.22610 251.000
15.24605 223.000
15.26600 282.000
15.28594 218.000
15.30589 251.000
15.32584 272.000
15.34579 231.000
15.36573 225.000
15.38568 256.000
15.40563 231.000
15.42557 243.000
15.44552 242.000
15.46547 243.000
15.48541 267.000
15.50536 264.000
15.52531 274.000
15.54526 254.000
15.56520 255.000
15.58515 275.000
15.60510 278.000
15.62504 292.000
15.64499 336.000
15.66494 318.000
15.68488 399.000
15.70483 409.000
15.72478 515.000
15.74472 696.000
15.76467 1070.000
15.78462 1398.000
15.80457 1772.000
15.82451 1984.000
15.84446 1909.000
15.86441 1655.000
15.88435 1280.000
15.90430 930.000
15.92425 668.000
15.94419 555.000
15.96414 506.000
15.98409 528.000
16.00404 561.000
16.02398 665.000
16.04393 690.000
16.06388 823.000
16.08382 812.000
16.10377 795.000
16.12372 958.000
16.14366 965.000
16.16361 958.000
16.18356 999.000
16.20351 785.000
16.22345 735.000
16.24340 659.000
16.26335 637.000
16.28329 613.000
16.30324 600.000
16.32319 567.000
16.34313 574.000
16.36308 509.000
16.38303 455.000
16.40297 428.000
16.42292 433.000
16.44287 406.000
16.46282 335.000
16.48276 331.000
16.50271 301.000
16.52266 279.000
16.54260 276.000
16.56255 241.000
16.58250 251.000
16.60244 275.000
16.62239 261.000
16.64234 253.000
16.66229 257.000
16.68223 242.000
16.70218 249.000
16.72213 231.000
16.74207 249.000
16.76202 216.000
16.78197 262.000
16.80191 246.000
16.82186 248.000
16.84181 276.000
16.86175 255.000
16.88170 215.000
16.90165 268.000
16.92160 229.000
16.94154 235.000
16.96149 248.000
16.98144 256.000
17.00138 224.000
17.02133 243.000
17.04128 224.000
17.06122 259.000
17.08117 252.000
17.10112 228.000
17.12107 229.000
17.14101 227.000
17.16096 223.000
17.18091 207.000
17.20085 203.000
17.22080 255.000
17.24075 227.000
17.26069 188.000
17.28064 232.000
17.30059 239.000
17.32053 238.000
17.34048 240.000
17.36043 246.000
17.38038 233.000
17.40032 228.000
17.42027 244.000
17.44022 204.000
17.46016 236.000
17.48011 206.000
17.50006 228.000
17.52000 240.000
17.53995 237.000
17.55990 203.000
17.57985 259.000
17.59979 210.000
17.61974 241.000
17.63969 222.000
17.65963 224.000
17.67958 216.000
17.69953 233.000
17.71947 243.000
17.73942 234.000
17.75937 223.000
17.77932 231.000
17.79926 273.000
17.81921 242.000
17.83916 237.000
17.85910 244.000
17.87905 243.000
17.89900 254.000
17.91894 223.000
17.93889 229.000
17.95884 236.000
17.97878 212.000
17.99873 241.000
18.01868 258.000
18.03863 214.000
18.05857 222.000
18.07852 236.000
18.09847 257.000
18.11841 236.000
18.13836 214.000
18.15831 224.000
18.17825 248.000
18.19820 234.000
18.21815 235.000
18.23810 233.000
18.25804 258.000
18.27799 269.000
18.29794 341.000
18.31788 384.000
18.33783 374.000
18.35778 534.000
18.37772 529.000
18.39767 484.000
18.41762 389.000
18.43756 317.000
18.45751 274.000
18.47746 266.000
18.49741 233.000
18.51735 236.000
18.53730 210.000
18.55725 244.000
18.57719 234.000
18.59714 256.000
18.61709 264.000
18.63703 253.000
18.65698 222.000
18.67693 248.000
18.69688 219.000
18.71682 233.000
18.73677 199.000
18.75672 261.000
18.77666 200.000
18.79661 248.000
18.81656 260.000
18.83650 222.000
18.85645 236.000
18.87640 228.000
18.89634 240.000
18.91629 222.000
18.93624 257.000
18.95619 246.000
18.97613 253.000
18.99608 226.000
19.01603 234.000
19.03597 222.000
19.05592 205.000
19.07587 217.000
19.09581 232.000
19.11576 247.000
19.13571 224.000
19.15566 224.000
19.17560 249.000
19.19555 234.000
19.21550 247.000
19.23544 226.000
19.25539 228.000
19.27534 223.000
19.29528 235.000
19.31523 224.000
19.33518 248.000
19.35513 232.000
19.37507 269.000
19.39502 223.000
19.41497 231.000
19.43491 233.000
19.45486 244.000
19.47481 221.000
19.49475 227.000
19.51470 218.000
19.53465 238.000
19.55459 250.000
19.57454 235.000
19.59449 244.000
19.61444 236.000
19.63438 258.000
19.65433 241.000
19.67428 243.000
19.69422 240.000
19.71417 238.000
19.73412 200.000
19.75406 249.000
19.77401 226.000
19.79396 252.000
19.81391 258.000
19.83385 213.000
19.85380 239.000
19.87375 230.000
19.89369 243.000
19.91364 223.000
19.93359 215.000
19.95353 247.000
19.97348 224.000
19.99343 234.000
20.01337 250.000
20.03332 223.000
20.05327 211.000
20.07322 226.000
20.09316 240.000
20.11311 256.000
20.13306 208.000
20.15300 225.000
20.17295 208.000
20.19290 237.000
20.21284 251.000
20.23279 246.000
20.25274 240.000
20.27269 235.000
20.29263 221.000
20.31258 241.000
20.33253 258.000
20.35247 245.000
20.37242 263.000
20.39237 255.000
20.41231 225.000
20.43226 233.000
20.45221 256.000
20.47215 286.000
20.49210 257.000
20.51205 288.000
20.53200 302.000
20.55194 267.000
20.57189 275.000
20.59184 308.000
20.61178 281.000
20.63173 258.000
20.65168 303.000
20.67162 330.000
20.69157 341.000
20.71152 431.000
20.73147 470.000
20.75141 557.000
20.77136 621.000
20.79131 807.000
20.81125 837.000
20.83120 855.000
20.85115 916.000
20.87109 868.000
20.89104 787.000
20.91099 732.000
20.93094 680.000
20.95088 565.000
20.97083 515.000
20.99078 513.000
21.01072 491.000
21.03067 411.000
21.05062 401.000
21.07056 346.000
21.09051 290.000
21.11046 290.000
21.13040 287.000
21.15035 281.000
21.17030 265.000
21.19025 246.000
21.21019 258.000
21.23014 264.000
21.25009 254.000
21.27003 263.000
21.28998 255.000
21.30993 247.000
21.32987 238.000
21.34982 245.000
21.36977 283.000
21.38972 239.000
21.40966 240.000
21.42961 246.000
21.44956 239.000
21.46950 236.000
21.48945 241.000
21.50940 233.000
21.52934 248.000
21.54929 259.000
21.56924 242.000
21.58918 251.000
21.60913 235.000
21.62908 233.000
21.64903 240.000
21.66897 252.000
21.68892 213.000
21.70887 235.000
21.72881 220.000
21.74876 253.000
21.76871 249.000
21.78865 246.000
21.80860 238.000
21.82855 231.000
21.84850 229.000
21.86844 218.000
21.88839 231.000
21.90834 234.000
21.92828 268.000
21.94823 241.000
21.96818 232.000
21.98812 237.000
22.00807 251.000
22.02802 231.000
22.04796 240.000
22.06791 243.000
22.08786 258.000
22.10781 251.000
22.12775 230.000
22.14770 233.000
22.16765 230.000
22.18759 249.000
22.20754 250.000
22.22749 230.000
22.24743 220.000
22.26738 214.000
22.28733 237.000
22.30728 233.000
22.32722 213.000
22.34717 235.000
22.36712 233.000
22.38706 230.000
22.40701 266.000
22.42696 213.000
22.44690 235.000
22.46685 238.000
22.48680 214.000
22.50675 236.000
22.52669 247.000
22.54664 219.000
22.56659 251.000
22.58653 200.000
22.60648 234.000
22.62643 212.000
22.64637 240.000
22.66632 246.000
22.68627 234.000
22.70621 240.000
22.72616 240.000
22.74611 257.000
22.76606 232.000
22.78600 237.000
22.80595 266.000
22.82590 243.000
22.84584 201.000
22.86579 224.000
22.88574 226.000
22.90568 238.000
22.92563 223.000
22.94558 248.000
22.96553 210.000
22.98547 273.000
23.00542 231.000
23.02537 223.000
23.04531 241.000
23.06526 243.000
23.08521 223.000
23.10515 247.000
23.12510 255.000
23.14505 248.000
23.16499 242.000
23.18494 252.000
23.20489 211.000
23.22484 235.000
23.24478 237.000
23.26473 227.000
23.28468 240.000
23.30462 224.000
23.32457 235.000
23.34452 244.000
23.36446 242.000
23.38441 236.000
23.40436 237.000
23.42431 235.000
23.44425 231.000
23.46420 247.000
23.48415 244.000
23.50409 241.000
23.52404 231.000
23.54399 217.000
23.56393 240.000
23.58388 246.000
23.60383 224.000
23.62377 265.000
23.64372 235.000
23.66367 247.000
23.68362 228.000
23.70356 214.000
23.72351 275.000
23.74346 268.000
23.76340 230.000
23.78335 225.000
23.80330 227.000
23.82324 256.000
23.84319 234.000
23.86314 231.000
23.88309 228.000
23.90303 215.000
23.92298 241.000
23.94293 257.000
23.96287 229.000
23.98282 251.000
24.00277 251.000
24.02271 230.000
24.04266 255.000
24.06261 252.000
24.08256 228.000
24.10250 253.000
24.12245 260.000
24.14240 224.000
24.16234 259.000
24.18229 243.000
24.20224 269.000
24.22218 232.000
24.24213 249.000
24.26208 253.000
24.28202 234.000
24.30197 263.000
24.32192 255.000
24.34187 224.000
24.36181 223.000
24.38176 246.000
24.40171 235.000
24.42165 218.000
24.44160 222.000
24.46155 232.000
24.48149 239.000
24.50144 249.000
24.52139 258.000
24.54134 245.000
24.56128 231.000
24.58123 245.000
24.60118 253.000
24.62112 227.000
24.64107 289.000
24.66102 227.000
24.68096 245.000
24.70091 224.000
24.72086 262.000
24.74080 259.000
24.76075 238.000
24.78070 239.000
24.80065 234.000
24.82059 247.000
24.84054 256.000
24.86049 241.000
24.88043 236.000
24.90038 243.000
24.92033 278.000
24.94027 272.000
24.96022 227.000
24.98017 268.000
25.00012 249.000
25.02006 300.000
25.04001 247.000
25.05996 236.000
25.07990 261.000
25.09985 250.000
25.11980 238.000
25.13974 253.000
25.15969 256.000
25.17964 246.000
25.19958 240.000
25.21953 223.000
25.23948 238.000
25.25943 251.000
25.27937 243.000
25.29932 242.000
25.31927 244.000
25.33921 262.000
25.35916 243.000
25.37911 244.000
25.39905 244.000
25.41900 219.000
25.43895 247.000
25.45890 235.000
25.47884 237.000
25.49879 230.000
25.51874 265.000
25.53868 249.000
25.55863 278.000
25.57858 235.000
25.59852 267.000
25.61847 250.000
25.63842 261.000
25.65837 265.000
25.67831 227.000
25.69826 253.000
25.71821 236.000
25.73815 245.000
25.75810 299.000
25.77805 256.000
25.79799 246.000
25.81794 199.000
25.83789 245.000
25.85783 245.000
25.87778 239.000
25.89773 239.000
25.91768 277.000
25.93762 239.000
25.95757 241.000
25.97752 244.000
25.99746 241.000
26.01741 236.000
26.03736 266.000
26.05730 236.000
26.07725 257.000
26.09720 263.000
26.11715 256.000
26.13709 237.000
26.15704 253.000
26.17699 229.000
26.19693 265.000
26.21688 261.000
26.23683 292.000
26.25677 264.000
26.27672 219.000
26.29667 235.000
26.31661 279.000
26.33656 267.000
26.35651 283.000
26.37646 270.000
26.39640 247.000
26.41635 253.000
26.43630 251.000
26.45624 257.000
26.47619 246.000
26.49614 245.000
26.51608 247.000
26.53603 284.000
26.55598 258.000
26.57593 268.000
26.59587 264.000
26.61582 233.000
26.63577 225.000
26.65571 253.000
26.67566 254.000
26.69561 242.000
26.71555 249.000
26.73550 255.000
26.75545 247.000
26.77539 258.000
26.79534 274.000
26.81529 259.000
26.83524 241.000
26.85518 251.000
26.87513 248.000
26.89508 256.000
26.91502 242.000
26.93497 249.000
26.95492 239.000
26.97486 273.000
26.99481 257.000
27.01476 274.000
27.03471 277.000
27.05465 269.000
27.07460 257.000
27.09455 259.000
27.11449 267.000
27.13444 262.000
27.15439 243.000
27.17433 235.000
27.19428 252.000
27.21423 260.000
27.23417 285.000
27.25412 247.000
27.27407 245.000
27.29402 252.000
27.31396 261.000
27.33391 266.000
27.35386 245.000
27.37380 235.000
27.39375 270.000
27.41370 258.000
27.43364 263.000
27.45359 260.000
27.47354 272.000
27.49349 243.000
27.51343 280.000
27.53338 263.000
27.55333 257.000
27.57327 236.000
27.59322 262.000
27.61317 274.000
27.63311 252.000
27.65306 240.000
27.67301 260.000
27.69296 243.000
27.71290 237.000
27.73285 250.000
27.75280 243.000
27.77274 239.000
27.79269 248.000
27.81264 264.000
27.83258 266.000
27.85253 265.000
27.87248 270.000
27.89242 262.000
27.91237 231.000
27.93232 227.000
27.95227 281.000
27.97221 263.000
27.99216 250.000
28.01211 243.000
28.03205 277.000
28.05200 297.000
28.07195 250.000
28.09189 250.000
28.11184 266.000
28.13179 253.000
28.15174 224.000
28.17168 273.000
28.19163 225.000
28.21158 238.000
28.23152 263.000
28.25147 275.000
28.27142 273.000
28.29136 267.000
28.31131 270.000
28.33126 287.000
28.35120 243.000
28.37115 253.000
28.39110 245.000
28.41105 277.000
28.43099 285.000
28.45094 252.000
28.47089 273.000
28.49083 251.000
28.51078 280.000
28.53073 237.000
28.55067 250.000
28.57062 250.000
28.59057 258.000
28.61052 264.000
28.63046 288.000
28.65041 248.000
28.67036 264.000
28.69030 248.000
28.71025 265.000
28.73020 260.000
28.75014 256.000
28.77009 239.000
28.79004 214.000
28.80998 235.000
28.82993 268.000
28.84988 276.000
28.86983 267.000
28.88977 251.000
28.90972 253.000
28.92967 287.000
28.94961 237.000
28.96956 268.000
28.98951 268.000
29.00945 247.000
29.02940 252.000
29.04935 230.000
29.06930 278.000
29.08924 247.000
29.10919 258.000
29.12914 258.000
29.14908 278.000
29.16903 298.000
29.18898 275.000
29.20892 260.000
29.22887 256.000
29.24882 256.000
29.26877 254.000
29.28871 277.000
29.30866 289.000
29.32861 270.000
29.34855 267.000
29.36850 270.000
29.38845 277.000
29.40839 252.000
29.42834 289.000
29.44829 286.000
29.46823 311.000
29.48818 268.000
29.50813 305.000
29.52808 252.000
29.54802 264.000
29.56797 244.000
29.58792 275.000
29.60786 263.000
29.62781 267.000
29.64776 265.000
29.66770 264.000
29.68765 248.000
29.70760 256.000
29.72755 295.000
29.74749 291.000
29.76744 271.000
29.78739 282.000
29.80733 251.000
29.82728 270.000
29.84723 271.000
29.86717 232.000
29.88712 275.000
29.90707 282.000
29.92701 312.000
29.94696 301.000
29.96691 274.000
29.98686 278.000
30.00680 307.000
30.02675 330.000
30.04670 296.000
30.06664 348.000
30.08659 358.000
30.10654 417.000
30.12648 434.000
30.14643 477.000
30.16638 559.000
30.18633 694.000
30.20627 821.000
30.22622 1044.000
30.24617 920.000
30.26611 727.000
30.28606 638.000
30.30601 640.000
30.32595 521.000
30.34590 374.000
30.36585 335.000
30.38579 288.000
30.40574 255.000
30.42569 278.000
30.44564 266.000
30.46558 289.000
30.48553 279.000
30.50548 292.000
30.52542 266.000
30.54537 281.000
30.56532 260.000
30.58526 273.000
30.60521 284.000
30.62516 262.000
30.64511 281.000
30.66505 282.000
30.68500 307.000
30.70495 263.000
30.72489 276.000
30.74484 273.000
30.76479 259.000
30.78473 264.000
30.80468 235.000
30.82463 261.000
30.84458 291.000
30.86452 288.000
30.88447 269.000
30.90442 279.000
30.92436 294.000
30.94431 258.000
30.96426 259.000
30.98420 254.000
31.00415 253.000
31.02410 250.000
31.04404 259.000
31.06399 262.000
31.08394 265.000
31.10389 295.000
31.12383 261.000
31.14378 267.000
31.16373 254.000
31.18367 275.000
31.20362 273.000
31.22357 280.000
31.24351 271.000
31.26346 227.000
31.28341 257.000
31.30336 287.000
31.32330 257.000
31.34325 291.000
31.36320 284.000
31.38314 286.000
31.40309 247.000
31.42304 261.000
31.44298 251.000
31.46293 281.000
31.48288 266.000
31.50282 281.000
31.52277 289.000
31.54272 290.000
31.56267 236.000
31.58261 292.000
31.60256 268.000
31.62251 241.000
31.64245 262.000
31.66240 259.000
31.68235 285.000
31.70229 271.000
31.72224 282.000
31.74219 300.000
31.76214 268.000
31.78208 275.000
31.80203 273.000
31.82198 315.000
31.84192 268.000
31.86187 356.000
31.88182 307.000
31.90176 379.000
31.92171 361.000
31.94166 374.000
31.96160 377.000
31.98155 423.000
32.00150 403.000
32.02145 414.000
32.04139 377.000
32.06134 364.000
32.08129 369.000
32.10123 355.000
32.12118 328.000
32.14113 318.000
32.16107 312.000
32.18102 305.000
32.20097 290.000
32.22092 302.000
32.24086 300.000
32.26081 291.000
32.28076 294.000
32.30070 302.000
32.32065 292.000
32.34060 303.000
32.36054 289.000
32.38049 332.000
32.40044 383.000
32.42039 392.000
32.44033 384.000
32.46028 472.000
32.48023 481.000
32.50017 531.000
32.52012 499.000
32.54007 445.000
32.56001 454.000
32.57996 437.000
32.59991 437.000
32.61985 402.000
32.63980 350.000
32.65975 329.000
32.67970 332.000
32.69964 336.000
32.71959 341.000
32.73954 320.000
32.75948 335.000
32.77943 315.000
32.79938 326.000
32.81932 347.000
32.83927 313.000
32.85922 282.000
32.87917 323.000
32.89911 267.000
32.91906 297.000
32.93901 319.000
32.95895 299.000
32.97890 310.000
32.99885 287.000
33.01879 314.000
33.03874 292.000
33.05869 316.000
33.07863 319.000
33.09858 299.000
33.11853 291.000
33.13848 283.000
33.15842 291.000
33.17837 318.000
33.19832 327.000
33.21826 279.000
33.23821 297.000
33.25816 289.000
33.27810 323.000
33.29805 304.000
33.31800 276.000
33.33795 294.000
33.35789 289.000
33.37784 275.000
33.39779 265.000
33.41773 286.000
33.43768 315.000
33.45763 267.000
33.47757 311.000
33.49752 290.000
33.51747 288.000
33.53741 289.000
33.55736 326.000
33.57731 279.000
33.59726 301.000
33.61720 281.000
33.63715 288.000
33.65710 330.000
33.67704 308.000
33.69699 303.000
33.71694 293.000
33.73688 266.000
33.75683 272.000
33.77678 297.000
33.79673 307.000
33.81667 313.000
33.83662 300.000
33.85657 287.000
33.87651 302.000
33.89646 304.000
33.91641 330.000
33.93635 302.000
33.95630 341.000
33.97625 346.000
33.99620 323.000
34.01614 302.000
34.03609 333.000
34.05604 331.000
34.07598 334.000
34.09593 384.000
34.11588 388.000
34.13582 409.000
34.15577 425.000
34.17572 468.000
34.19566 500.000
34.21561 541.000
34.23556 676.000
34.25551 680.000
34.27545 718.000
34.29540 763.000
34.31535 845.000
34.33529 827.000
34.35524 859.000
34.37519 894.000
34.39513 943.000
34.41508 881.000
34.43503 852.000
34.45498 797.000
34.47492 783.000
34.49487 725.000
34.51482 643.000
34.53476 635.000
34.55471 585.000
34.57466 538.000
34.59460 497.000
34.61455 440.000
34.63450 479.000
34.65444 465.000
34.67439 411.000
34.69434 420.000
34.71429 351.000
34.73423 425.000
34.75418 376.000
34.77413 371.000
34.79407 345.000
34.81402 332.000
34.83397 367.000
34.85391 345.000
34.87386 322.000
34.89381 339.000
34.91376 351.000
34.93370 354.000
34.95365 340.000
34.97360 341.000
34.99354 352.000
35.01349 347.000
35.03344 345.000
35.05338 370.000
35.07333 370.000
35.09328 347.000
35.11322 395.000
35.13317 401.000
35.15312 425.000
35.17307 407.000
35.19301 381.000
35.21296 442.000
35.23291 429.000
35.25285 464.000
35.27280 529.000
35.29275 517.000
35.31269 563.000
35.33264 673.000
35.35259 745.000
35.37254 940.000
35.39248 1141.000
35.41243 1496.000
35.43238 1770.000
35.45232 1735.000
35.47227 1921.000
35.49222 2291.000
35.51216 2717.000
35.53211 2998.000
35.55206 2862.000
35.57201 2907.000
35.59195 3303.000
35.61190 3292.000
35.63185 2776.000
35.65179 2093.000
35.67174 1763.000
35.69169 1707.000
35.71163 1346.000
35.73158 1013.000
35.75153 718.000
35.77147 655.000
35.79142 508.000
35.81137 475.000
35.83132 414.000
35.85126 402.000
35.87121 395.000
35.89116 397.000
35.91110 414.000
35.93105 393.000
35.95100 379.000
35.97094 367.000
35.99089 385.000
36.01084 362.000
36.03079 380.000
36.05073 388.000
36.07068 384.000
36.09063 321.000
36.11057 367.000
36.13052 363.000
36.15047 326.000
36.17041 354.000
36.19036 326.000
36.21031 344.000
36.23025 294.000
36.25020 292.000
36.27015 314.000
36.29010 306.000
36.31004 346.000
36.32999 347.000
36.34994 287.000
36.36988 359.000
36.38983 348.000
36.40978 323.000
36.42972 357.000
36.44967 330.000
36.46962 380.000
36.48957 367.000
36.50951 356.000
36.52946 314.000
36.54941 347.000
36.56935 377.000
36.58930 351.000
36.60925 362.000
36.62919 359.000
36.64914 376.000
36.66909 341.000
36.68903 400.000
36.70898 395.000
36.72893 360.000
36.74888 385.000
36.76882 370.000
36.78877 391.000
36.80872 364.000
36.82866 361.000
36.84861 365.000
36.86856 336.000
36.88850 363.000
36.90845 298.000
36.92840 303.000
36.94835 297.000
36.96829 352.000
36.98824 318.000
37.00819 316.000
37.02813 319.000
37.04808 352.000
37.06803 363.000
37.08797 371.000
37.10792 388.000
37.12787 386.000
37.14781 433.000
37.16776 447.000
37.18771 452.000
37.20766 499.000
37.22760 466.000
37.24755 485.000
37.26750 502.000
37.28744 428.000
37.30739 384.000
37.32734 393.000
37.34728 406.000
37.36723 341.000
37.38718 318.000
37.40713 316.000
37.42707 289.000
37.44702 266.000
37.46697 290.000
37.48691 259.000
37.50686 294.000
37.52681 248.000
37.54675 307.000
37.56670 285.000
37.58665 292.000
37.60660 297.000
37.62654 270.000
37.64649 253.000
37.66644 297.000
37.68638 274.000
37.70633 309.000
37.72628 294.000
37.74622 285.000
37.76617 253.000
37.78612 288.000
37.80606 282.000
37.82601 294.000
37.84596 275.000
37.86591 275.000
37.88585 303.000
37.90580 289.000
37.92575 307.000
37.94569 285.000
37.96564 318.000
37.98559 306.000
38.00553 303.000
38.02548 313.000
38.04543 283.000
38.06538 300.000
38.08532 281.000
38.10527 319.000
38.12522 329.000
38.14516 320.000
38.16511 313.000
38.18506 331.000
38.20500 323.000
38.22495 311.000
38.24490 339.000
38.26484 294.000
38.28479 341.000
38.30474 341.000
38.32469 370.000
38.34463 352.000
38.36458 388.000
38.38453 403.000
38.40447 402.000
38.42442 397.000
38.44437 424.000
38.46431 440.000
38.48426 507.000
38.50421 503.000
38.52416 530.000
38.54410 591.000
38.56405 652.000
38.58400 784.000
38.60394 915.000
38.62389 1152.000
38.64384 1295.000
38.66378 1584.000
38.68373 1765.000
38.70368 1753.000
38.72362 1707.000
38.74357 1506.000
38.76352 1433.000
38.78347 1405.000
38.80341 1217.000
38.82336 1096.000
38.84331 966.000
38.86325 795.000
38.88320 795.000
38.90315 756.000
38.92309 793.000
38.94304 781.000
38.96299 759.000
38.98294 697.000
39.00288 676.000
39.02283 671.000
39.04278 617.000
39.06272 603.000
39.08267 571.000
39.10262 532.000
39.12256 518.000
39.14251 455.000
39.16246 500.000
39.18241 433.000
39.20235 458.000
39.22230 436.000
39.24225 415.000
39.26219 414.000
39.28214 371.000
39.30209 382.000
39.32203 357.000
39.34198 351.000
39.36193 342.000
39.38187 344.000
39.40182 338.000
39.42177 287.000
39.44172 286.000
39.46166 291.000
39.48161 269.000
39.50156 313.000
39.52150 306.000
39.54145 310.000
39.56140 275.000
39.58134 293.000
39.60129 288.000
39.62124 254.000
39.64119 282.000
39.66113 284.000
39.68108 317.000
39.70103 284.000
39.72097 300.000
39.74092 266.000
39.76087 299.000
39.78081 272.000
39.80076 260.000
39.82071 306.000
39.84065 306.000
39.86060 279.000
39.88055 282.000
39.90050 281.000
39.92044 279.000
39.94039 283.000
39.96034 256.000
39.98028 302.000
40.00023 278.000
40.02018 263.000
40.04012 254.000
40.06007 256.000
40.08002 271.000
40.09997 281.000
40.11991 258.000
40.13986 287.000
40.15981 281.000
40.17975 242.000
40.19970 269.000
40.21965 285.000
40.23959 259.000
40.25954 234.000
40.27949 271.000
40.29943 250.000
40.31938 264.000
40.33933 260.000
40.35928 299.000
40.37922 267.000
40.39917 279.000
40.41912 292.000
40.43906 297.000
40.45901 249.000
40.47896 282.000
40.49890 270.000
40.51885 278.000
40.53880 247.000
40.55875 270.000
40.57869 289.000
40.59864 296.000
40.61859 291.000
40.63853 288.000
40.65848 277.000
40.67843 258.000
40.69837 252.000
40.71832 248.000
40.73827 269.000
40.75822 264.000
40.77816 267.000
40.79811 304.000
40.81806 259.000
40.83800 295.000
40.85795 303.000
40.87790 295.000
40.89784 269.000
40.91779 268.000
40.93774 291.000
40.95768 265.000
40.97763 271.000
40.99758 281.000
41.01753 293.000
41.03747 262.000
41.05742 271.000
41.07737 255.000
41.09731 273.000
41.11726 286.000
41.13721 298.000
41.15715 306.000
41.17710 314.000
41.19705 318.000
41.21700 278.000
41.23694 312.000
41.25689 348.000
41.27684 374.000
41.29678 405.000
41.31673 468.000
41.33668 487.000
41.35662 570.000
41.37657 601.000
41.39652 636.000
41.41646 680.000
41.43641 714.000
41.45636 749.000
41.47631 766.000
41.49625 811.000
41.51620 773.000
41.53615 749.000
41.55609 683.000
41.57604 658.000
41.59599 635.000
41.61593 596.000
41.63588 585.000
41.65583 526.000
41.67578 431.000
41.69572 432.000
41.71567 417.000
41.73562 364.000
41.75556 348.000
41.77551 326.000
41.79546 296.000
41.81540 322.000
41.83535 318.000
41.85530 303.000
41.87524 293.000
41.89519 276.000
41.91514 291.000
41.93509 296.000
41.95503 281.000
41.97498 274.000
41.99493 288.000
42.01487 282.000
42.03482 251.000
42.05477 274.000
42.07471 300.000
42.09466 267.000
42.11461 285.000
42.13456 271.000
42.15450 268.000
42.17445 262.000
42.19440 268.000
42.21434 281.000
42.23429 262.000
42.25424 293.000
42.27418 274.000
42.29413 298.000
42.31408 306.000
42.33403 271.000
42.35397 250.000
42.37392 273.000
42.39387 283.000
42.41381 297.000
42.43376 309.000
42.45371 281.000
42.47365 263.000
42.49360 271.000
42.51355 312.000
42.53349 288.000
42.55344 292.000
42.57339 244.000
42.59334 300.000
42.61328 257.000
42.63323 268.000
42.65318 342.000
42.67312 300.000
42.69307 274.000
42.71302 269.000
42.73296 272.000
42.75291 267.000
42.77286 291.000
42.79281 266.000
42.81275 264.000
42.83270 307.000
42.85265 291.000
42.87259 324.000
42.89254 296.000
42.91249 315.000
42.93243 352.000
42.95238 292.000
42.97233 311.000
42.99227 348.000
43.01222 376.000
43.03217 360.000
43.05212 399.000
43.07206 409.000
43.09201 438.000
43.11196 424.000
43.13190 438.000
43.15185 477.000
43.17180 484.000
43.19174 529.000
43.21169 600.000
43.23164 625.000
43.25159 688.000
43.27153 743.000
43.29148 771.000
43.31143 693.000
43.33137 592.000
43.35132 518.000
43.37127 531.000
43.39121 628.000
43.41116 512.000
43.43111 442.000
43.45105 387.000
43.47100 366.000
43.49095 359.000
43.51090 351.000
43.53084 270.000
43.55079 270.000
43.57074 296.000
43.59068 297.000
43.61063 290.000
43.63058 267.000
43.65052 285.000
43.67047 257.000
43.69042 282.000
43.71037 282.000
43.73031 246.000
43.75026 272.000
43.77021 273.000
43.79015 304.000
43.81010 241.000
43.83005 274.000
43.84999 282.000
43.86994 281.000
43.88989 240.000
43.90984 288.000
43.92978 294.000
43.94973 270.000
43.96968 270.000
43.98962 249.000
44.00957 317.000
44.02952 277.000
44.04946 237.000
44.06941 272.000
44.08936 256.000
44.10930 250.000
44.12925 253.000
44.14920 270.000
44.16915 259.000
44.18909 255.000
44.20904 264.000
44.22899 257.000
44.24893 269.000
44.26888 268.000
44.28883 252.000
44.30877 268.000
44.32872 266.000
44.34867 267.000
44.36862 280.000
44.38856 245.000
44.40851 297.000
44.42846 271.000
44.44840 238.000
44.46835 229.000
44.48830 284.000
44.50824 271.000
44.52819 267.000
44.54814 256.000
44.56808 268.000
44.58803 234.000
44.60798 277.000
44.62793 245.000
44.64787 263.000
44.66782 261.000
44.68777 268.000
44.70771 286.000
44.72766 282.000
44.74761 254.000
44.76755 305.000
44.78750 297.000
44.80745 298.000
44.82740 274.000
44.84734 271.000
44.86729 264.000
44.88724 269.000
44.90718 257.000
44.92713 260.000
44.94708 270.000
44.96702 262.000
44.98697 287.000
45.00692 280.000
45.02686 232.000
45.04681 270.000
45.06676 292.000
45.08671 238.000
45.10665 263.000
45.12660 262.000
45.14655 268.000
45.16649 271.000
45.18644 238.000
45.20639 252.000
45.22633 235.000
45.24628 262.000
45.26623 263.000
45.28618 271.000
45.30612 276.000
45.32607 268.000
45.34602 260.000
45.36596 258.000
45.38591 247.000
45.40586 230.000
45.42580 251.000
45.44575 256.000
45.46570 228.000
45.48565 245.000
45.50559 276.000
45.52554 255.000
45.54549 220.000
45.56543 259.000
45.58538 261.000
45.60533 239.000
45.62527 289.000
45.64522 252.000
45.66517 271.000
45.68511 266.000
45.70506 230.000
45.72501 233.000
45.74496 260.000
45.76490 261.000
45.78485 275.000
45.80480 250.000
45.82474 255.000
45.84469 273.000
45.86464 256.000
45.88458 226.000
45.90453 283.000
45.92448 255.000
45.94443 257.000
45.96437 261.000
45.98432 260.000
46.00427 227.000
46.02421 278.000
46.04416 283.000
46.06411 234.000
46.08405 246.000
46.10400 259.000
46.12395 278.000
46.14389 256.000
46.16384 285.000
46.18379 259.000
46.20374 306.000
46.22368 269.000
46.24363 317.000
46.26358 274.000
46.28352 268.000
46.30347 275.000
46.32342 276.000
46.34336 282.000
46.36331 264.000
46.38326 309.000
46.40321 300.000
46.42315 258.000
46.44310 298.000
46.46305 277.000
46.48299 265.000
46.50294 250.000
46.52289 248.000
46.54283 270.000
46.56278 283.000
46.58273 277.000
46.60267 285.000
46.62262 275.000
46.64257 254.000
46.66252 224.000
46.68246 277.000
46.70241 247.000
46.72236 240.000
46.74230 247.000
46.76225 238.000
46.78220 248.000
46.80214 251.000
46.82209 271.000
46.84204 288.000
46.86199 247.000
46.88193 232.000
46.90188 249.000
46.92183 243.000
46.94177 245.000
46.96172 254.000
46.98167 251.000
47.00161 295.000
47.02156 267.000
47.04151 270.000
47.06146 275.000
47.08140 278.000
47.10135 257.000
47.12130 283.000
47.14124 220.000
47.16119 234.000
47.18114 241.000
47.20108 266.000
47.22103 259.000
47.24098 241.000
47.26092 256.000
47.28087 289.000
47.30082 245.000
47.32077 287.000
47.34071 239.000
47.36066 284.000
47.38061 266.000
47.40055 295.000
47.42050 274.000
47.44045 259.000
47.46039 262.000
47.48034 250.000
47.50029 272.000
47.52024 247.000
47.54018 265.000
47.56013 281.000
47.58008 258.000
47.60002 239.000
47.61997 258.000
47.63992 270.000
47.65986 288.000
47.67981 253.000
47.69976 263.000
47.71970 255.000
47.73965 261.000
47.75960 280.000
47.77955 231.000
47.79949 252.000
47.81944 248.000
47.83939 254.000
47.85933 223.000
47.87928 270.000
47.89923 297.000
47.91917 260.000
47.93912 266.000
47.95907 234.000
47.97902 261.000
47.99896 280.000
48.01891 260.000
48.03886 260.000
48.05880 272.000
48.07875 270.000
48.09870 276.000
48.11864 262.000
48.13859 274.000
48.15854 251.000
48.17848 263.000
48.19843 258.000
48.21838 241.000
48.23833 306.000
48.25827 278.000
48.27822 278.000
48.29817 266.000
48.31811 289.000
48.33806 282.000
48.35801 285.000
48.37795 288.000
48.39790 318.000
48.41785 315.000
48.43780 323.000
48.45774 321.000
48.47769 386.000
48.49764 357.000
48.51758 346.000
48.53753 392.000
48.55748 422.000
48.57742 430.000
48.59737 415.000
48.61732 465.000
48.63726 497.000
48.65721 470.000
48.67716 509.000
48.69711 596.000
48.71705 649.000
48.73700 652.000
48.75695 716.000
48.77689 724.000
48.79684 705.000
48.81679 666.000
48.83673 608.000
48.85668 590.000
48.87663 589.000
48.89658 503.000
48.91652 502.000
48.93647 479.000
48.95642 420.000
48.97636 404.000
48.99631 403.000
49.01626 343.000
49.03620 320.000
49.05615 339.000
49.07610 301.000
49.09605 328.000
49.11599 299.000
49.13594 299.000
49.15589 327.000
49.17583 311.000
49.19578 308.000
49.21573 300.000
49.23567 330.000
49.25562 318.000
49.27557 291.000
49.29551 357.000
49.31546 334.000
49.33541 321.000
49.35536 345.000
49.37530 330.000
49.39525 345.000
49.41520 349.000
49.43514 333.000
49.45509 331.000
49.47504 340.000
49.49498 336.000
49.51493 342.000
49.53488 342.000
49.55483 296.000
49.57477 325.000
49.59472 292.000
49.61467 339.000
49.63461 311.000
49.65456 330.000
49.67451 301.000
49.69445 305.000
49.71440 302.000
49.73435 298.000
49.75429 272.000
49.77424 258.000
49.79419 267.000
49.81414 276.000
49.83408 295.000
49.85403 283.000
49.87398 278.000
49.89392 245.000
49.91387 289.000
49.93382 300.000
49.95376 270.000
49.97371 262.000
49.99366 254.000
50.01361 300.000
50.03355 268.000
50.05350 246.000
50.07345 256.000
50.09339 254.000
50.11334 243.000
50.13329 280.000
50.15323 260.000
50.17318 280.000
50.19313 280.000
50.21307 270.000
50.23302 270.000
50.25297 264.000
50.27292 258.000
50.29286 241.000
50.31281 278.000
50.33276 252.000
50.35270 275.000
50.37265 255.000
50.39260 258.000
50.41254 252.000
50.43249 251.000
50.45244 268.000
50.47239 274.000
50.49233 267.000
50.51228 254.000
50.53223 270.000
50.55217 243.000
50.57212 283.000
50.59207 237.000
50.61201 242.000
50.63196 234.000
50.65191 268.000
50.67186 266.000
50.69180 247.000
50.71175 272.000
50.73170 227.000
50.75164 241.000
50.77159 261.000
50.79154 243.000
50.81148 287.000
50.83143 256.000
50.85138 269.000
50.87132 256.000
50.89127 269.000
50.91122 256.000
50.93117 272.000
50.95111 226.000
50.97106 297.000
50.99101 234.000
51.01095 271.000
51.03090 269.000
51.05085 272.000
51.07079 272.000
51.09074 266.000
51.11069 260.000
51.13064 259.000
51.15058 275.000
51.17053 260.000
51.19048 269.000
51.21042 259.000
51.23037 266.000
51.25032 229.000
51.27026 237.000
51.29021 284.000
51.31016 291.000
51.33010 268.000
51.35005 271.000
51.37000 284.000
51.38995 263.000
51.40989 273.000
51.42984 298.000
51.44979 270.000
51.46973 264.000
51.48968 286.000
51.50963 238.000
51.52957 266.000
51.54952 291.000
51.56947 250.000
51.58942 262.000
51.60936 292.000
51.62931 205.000
51.64926 240.000
51.66920 263.000
51.68915 287.000
51.70910 273.000
51.72904 254.000
51.74899 287.000
51.76894 231.000
51.78888 257.000
51.80883 287.000
51.82878 264.000
51.84873 272.000
51.86867 294.000
51.88862 270.000
51.90857 276.000
51.92851 259.000
51.94846 236.000
51.96841 237.000
51.98835 271.000
52.00830 273.000
52.02825 240.000
52.04820 237.000
52.06814 255.000
52.08809 232.000
52.10804 241.000
52.12798 278.000
52.14793 273.000
52.16788 261.000
52.18782 276.000
52.20777 273.000
52.22772 280.000
52.24767 264.000
52.26761 275.000
52.28756 262.000
52.30751 249.000
52.32745 265.000
52.34740 244.000
52.36735 293.000
52.38729 257.000
52.40724 274.000
52.42719 253.000
52.44713 240.000
52.46708 277.000
52.48703 277.000
52.50698 247.000
52.52692 257.000
52.54687 272.000
52.56682 235.000
52.58676 263.000
52.60671 273.000
52.62666 252.000
52.64660 290.000
52.66655 282.000
52.68650 272.000
52.70645 282.000
52.72639 303.000
52.74634 324.000
52.76629 296.000
52.78623 319.000
52.80618 329.000
52.82613 333.000
52.84607 341.000
52.86602 305.000
52.88597 319.000
52.90591 309.000
52.92586 329.000
52.94581 305.000
52.96576 298.000
52.98570 355.000
53.00565 304.000
53.02560 319.000
53.04554 327.000
53.06549 289.000
53.08544 289.000
53.10538 299.000
53.12533 303.000
53.14528 293.000
53.16523 317.000
53.18517 329.000
53.20512 326.000
53.22507 317.000
53.24501 280.000
53.26496 299.000
53.28491 300.000
53.30485 344.000
53.32480 352.000
53.34475 346.000
53.36469 358.000
53.38464 361.000
53.40459 366.000
53.42454 359.000
53.44448 375.000
53.46443 354.000
53.48438 365.000
53.50432 323.000
53.52427 363.000
53.54422 329.000
53.56416 327.000
53.58411 373.000
53.60406 339.000
53.62401 371.000
53.64395 401.000
53.66390 369.000
53.68385 405.000
53.70379 410.000
53.72374 431.000
53.74369 366.000
53.76363 365.000
53.78358 325.000
53.80353 321.000
53.82348 314.000
53.84342 366.000
53.86337 327.000
53.88332 312.000
53.90326 306.000
53.92321 302.000
53.94316 251.000
53.96310 273.000
53.98305 290.000
54.00300 275.000
54.02294 294.000
54.04289 265.000
54.06284 260.000
54.08279 295.000
54.10273 279.000
54.12268 246.000
54.14263 285.000
54.16257 273.000
54.18252 309.000
54.20247 301.000
54.22241 297.000
54.24236 267.000
54.26231 261.000
54.28226 272.000
54.30220 270.000
54.32215 292.000
54.34210 240.000
54.36204 253.000
54.38199 236.000
54.40194 266.000
54.42188 273.000
54.44183 233.000
54.46178 275.000
54.48172 250.000
54.50167 252.000
54.52162 278.000
54.54157 264.000
54.56151 250.000
54.58146 257.000
54.60141 278.000
54.62135 249.000
54.64130 257.000
54.66125 246.000
54.68119 281.000
54.70114 264.000
54.72109 256.000
54.74104 253.000
54.76098 282.000
54.78093 299.000
54.80088 262.000
54.82082 266.000
54.84077 232.000
54.86072 222.000
54.88066 230.000
54.90061 234.000
54.92056 243.000
54.94050 261.000
54.96045 239.000
54.98040 260.000
55.00035 232.000
55.02029 278.000
55.04024 241.000
55.06019 271.000
55.08013 283.000
55.10008 244.000
55.12003 246.000
55.13997 251.000
55.15992 250.000
55.17987 251.000
55.19982 220.000
55.21976 273.000
55.23971 264.000
55.25966 261.000
55.27960 239.000
55.29955 255.000
55.31950 251.000
55.33944 243.000
55.35939 236.000
55.37934 258.000
55.39929 242.000
55.41923 231.000
55.43918 243.000
55.45913 253.000
55.47907 263.000
55.49902 232.000
55.51897 244.000
55.53891 268.000
55.55886 290.000
55.57881 297.000
55.59875 247.000
55.61870 242.000
55.63865 298.000
55.65860 267.000
55.67854 259.000
55.69849 272.000
55.71844 295.000
55.73838 279.000
55.75833 259.000
55.77828 274.000
55.79822 269.000
55.81817 261.000
55.83812 242.000
55.85807 273.000
55.87801 231.000
55.89796 270.000
55.91791 298.000
55.93785 261.000
55.95780 267.000
55.97775 265.000
55.99769 247.000
56.01764 270.000
56.03759 285.000
56.05753 253.000
56.07748 233.000
56.09743 261.000
56.11738 275.000
56.13732 251.000
56.15727 279.000
56.17722 228.000
56.19716 237.000
56.21711 274.000
56.23706 253.000
56.25700 244.000
56.27695 275.000
56.29690 243.000
56.31685 261.000
56.33679 279.000
56.35674 230.000
56.37669 263.000
56.39663 247.000
56.41658 285.000
56.43653 271.000
56.45647 279.000
56.47642 242.000
56.49637 235.000
56.51631 277.000
56.53626 269.000
56.55621 274.000
56.57616 255.000
56.59610 269.000
56.61605 283.000
56.63600 252.000
56.65594 246.000
56.67589 264.000
56.69584 285.000
56.71578 292.000
56.73573 294.000
56.75568 261.000
56.77563 303.000
56.79557 294.000
56.81552 273.000
56.83547 281.000
56.85541 270.000
56.87536 297.000
56.89531 300.000
56.91525 307.000
56.93520 309.000
56.95515 315.000
56.97510 313.000
56.99504 300.000
57.01499 329.000
57.03494 347.000
57.05488 346.000
57.07483 395.000
57.09478 375.000
57.11472 433.000
57.13467 414.000
57.15462 468.000
57.17456 517.000
57.19451 600.000
57.21446 710.000
57.23441 711.000
57.25435 793.000
57.27430 723.000
57.29425 596.000
57.31419 534.000
57.33414 487.000
57.35409 474.000
57.37403 492.000
57.39398 561.000
57.41393 572.000
57.43388 506.000
57.45382 446.000
57.47377 357.000
57.49372 375.000
57.51366 352.000
57.53361 385.000
57.55356 383.000
57.57350 317.000
57.59345 306.000
57.61340 351.000
57.63334 353.000
57.65329 356.000
57.67324 325.000
57.69319 319.000
57.71313 334.000
57.73308 359.000
57.75303 328.000
57.77297 333.000
57.79292 332.000
57.81287 319.000
57.83281 331.000
57.85276 299.000
57.87271 334.000
57.89266 314.000
57.91260 301.000
57.93255 309.000
57.95250 273.000
57.97244 329.000
57.99239 272.000
58.01234 289.000
58.03228 300.000
58.05223 301.000
58.07218 311.000
58.09212 326.000
58.11207 302.000
58.13202 300.000
58.15197 310.000
58.17191 299.000
58.19186 366.000
58.21181 349.000
58.23175 408.000
58.25170 407.000
58.27165 401.000
58.29159 385.000
58.31154 393.000
58.33149 384.000
58.35144 346.000
58.37138 355.000
58.39133 377.000
58.41128 337.000
58.43122 343.000
58.45117 340.000
58.47112 317.000
58.49106 305.000
58.51101 339.000
58.53096 301.000
58.55090 298.000
58.57085 281.000
58.59080 253.000
58.61075 277.000
58.63069 293.000
58.65064 268.000
58.67059 253.000
58.69053 272.000
58.71048 277.000
58.73043 264.000
58.75037 279.000
58.77032 249.000
58.79027 268.000
58.81022 260.000
58.83016 262.000
58.85011 259.000
58.87006 244.000
58.89000 272.000
58.90995 272.000
58.92990 234.000
58.94984 283.000
58.96979 261.000
58.98974 255.000
59.00969 261.000
59.02963 272.000
59.04958 282.000
59.06953 279.000
59.08947 270.000
59.10942 244.000
59.12937 304.000
59.14931 268.000
59.16926 265.000
59.18921 276.000
59.20915 250.000
59.22910 249.000
59.24905 276.000
59.26900 281.000
59.28894 251.000
59.30889 264.000
59.32884 298.000
59.34878 270.000
59.36873 275.000
59.38868 260.000
59.40862 270.000
59.42857 261.000
59.44852 250.000
59.46847 285.000
59.48841 285.000
59.50836 277.000
59.52831 263.000
59.54825 272.000
59.56820 266.000
59.58815 276.000
59.60809 268.000
59.62804 257.000
59.64799 246.000
59.66793 297.000
59.68788 277.000
59.70783 273.000
59.72778 301.000
59.74772 272.000
59.76767 255.000
59.78762 248.000
59.80756 266.000
59.82751 280.000
59.84746 263.000
59.86740 286.000
59.88735 243.000
59.90730 259.000
59.92725 259.000
59.94719 291.000
59.96714 273.000
59.98709 246.000
60.00703 264.000
60.02698 292.000
60.04693 247.000
60.06687 258.000
60.08682 292.000
60.10677 245.000
60.12671 254.000
60.14666 265.000
60.16661 245.000
60.18656 228.000
60.20650 259.000
60.22645 262.000
60.24640 238.000
60.26634 257.000
60.28629 302.000
60.30624 275.000
60.32618 231.000
60.34613 260.000
60.36608 268.000
60.38603 286.000
60.40597 268.000
60.42592 237.000
60.44587 244.000
60.46581 262.000
60.48576 258.000
60.50571 293.000
60.52565 245.000
60.54560 268.000
60.56555 282.000
60.58550 278.000
60.60544 258.000
60.62539 272.000
60.64534 260.000
60.66528 251.000
60.68523 282.000
60.70518 268.000
60.72512 267.000
60.74507 253.000
60.76502 277.000
60.78496 260.000
60.80491 278.000
60.82486 270.000
60.84481 260.000
60.86475 297.000
60.88470 259.000
60.90465 271.000
60.92459 293.000
60.94454 254.000
60.96449 295.000
60.98443 278.000
61.00438 253.000
61.02433 285.000
61.04428 274.000
61.06422 256.000
61.08417 303.000
61.10412 305.000
61.12406 319.000
61.14401 265.000
61.16396 311.000
61.18390 316.000
61.20385 356.000
61.22380 327.000
61.24374 345.000
61.26369 336.000
61.28364 330.000
61.30359 375.000
61.32353 342.000
61.34348 343.000
61.36343 378.000
61.38337 405.000
61.40332 432.000
61.42327 441.000
61.44321 455.000
61.46316 532.000
61.48311 583.000
61.50306 615.000
61.52300 651.000
61.54295 663.000
61.56290 582.000
61.58284 586.000
61.60279 591.000
61.62274 558.000
61.64268 512.000
61.66263 539.000
61.68258 550.000
61.70252 568.000
61.72247 534.000
61.74242 491.000
61.76237 499.000
61.78231 486.000
61.80226 437.000
61.82221 429.000
61.84215 427.000
61.86210 439.000
61.88205 401.000
61.90199 419.000
61.92194 401.000
61.94189 384.000
61.96184 392.000
61.98178 368.000
62.00173 355.000
62.02168 380.000
62.04162 368.000
62.06157 365.000
62.08152 352.000
62.10146 327.000
62.12141 370.000
62.14136 316.000
62.16131 338.000
62.18125 322.000
62.20120 288.000
62.22115 308.000
62.24109 328.000
62.26104 321.000
62.28099 317.000
62.30093 298.000
62.32088 288.000
62.34083 319.000
62.36077 334.000
62.38072 336.000
62.40067 307.000
62.42062 325.000
62.44056 366.000
62.46051 323.000
62.48046 324.000
62.50040 338.000
62.52035 354.000
62.54030 354.000
62.56024 402.000
62.58019 403.000
62.60014 409.000
62.62009 434.000
62.64003 431.000
62.65998 468.000
62.67993 466.000
62.69987 442.000
62.71982 499.000
62.73977 522.000
62.75971 581.000
62.77966 584.000
62.79961 629.000
62.81955 636.000
62.83950 820.000
62.85945 934.000
62.87940 961.000
62.89934 920.000
62.91929 802.000
62.93924 642.000
62.95918 563.000
62.97913 548.000
62.99908 538.000
63.01902 638.000
63.03897 654.000
63.05892 670.000
63.07887 596.000
63.09881 499.000
63.11876 423.000
63.13871 352.000
63.15865 386.000
63.17860 309.000
63.19855 312.000
63.21849 314.000
63.23844 314.000
63.25839 311.000
63.27833 277.000
63.29828 282.000
63.31823 276.000
63.33818 298.000
63.35812 289.000
63.37807 281.000
63.39802 260.000
63.41796 301.000
63.43791 251.000
63.45786 263.000
63.47780 262.000
63.49775 282.000
63.51770 287.000
63.53765 266.000
63.55759 313.000
63.57754 317.000
63.59749 249.000
63.61743 267.000
63.63738 293.000
63.65733 272.000
63.67727 290.000
63.69722 257.000
63.71717 250.000
63.73712 272.000
63.75706 295.000
63.77701 295.000
63.79696 274.000
63.81690 293.000
63.83685 308.000
63.85680 309.000
63.87674 292.000
63.89669 286.000
63.91664 291.000
63.93658 281.000
63.95653 312.000
63.97648 266.000
63.99643 312.000
64.01637 300.000
64.03632 283.000
64.05627 279.000
64.07621 261.000
64.09616 263.000
64.11611 284.000
64.13605 273.000
64.15600 283.000
64.17595 290.000
64.19590 298.000
64.21584 292.000
64.23579 277.000
64.25574 297.000
64.27568 291.000
64.29563 262.000
64.31558 257.000
64.33552 287.000
64.35547 280.000
64.37542 263.000
64.39536 306.000
64.41531 252.000
64.43526 278.000
64.45521 275.000
64.47515 266.000
64.49510 248.000
64.51505 265.000
64.53499 279.000
64.55494 257.000
64.57489 253.000
64.59483 288.000
64.61478 273.000
64.63473 257.000
64.65468 280.000
64.67462 288.000
64.69457 243.000
64.71452 274.000
64.73446 283.000
64.75441 286.000
64.77436 264.000
64.79430 324.000
64.81425 278.000
64.83420 296.000
64.85414 277.000
64.87409 286.000
64.89404 256.000
64.91399 293.000
64.93393 273.000
64.95388 261.000
64.97383 287.000
64.99377 290.000
65.01372 302.000
65.03367 269.000
65.05361 278.000
65.07356 263.000
65.09351 282.000
65.11346 284.000
65.13340 298.000
65.15335 285.000
65.17330 313.000
65.19324 292.000
65.21319 314.000
65.23314 315.000
65.25308 288.000
65.27303 323.000
65.29298 311.000
65.31293 298.000
65.33287 286.000
65.35282 322.000
65.37277 289.000
65.39271 307.000
65.41266 314.000
65.43261 334.000
65.45255 336.000
65.47250 336.000
65.49245 320.000
65.51239 335.000
65.53234 324.000
65.55229 343.000
65.57224 351.000
65.59218 397.000
65.61213 361.000
65.63208 383.000
65.65202 368.000
65.67197 395.000
65.69192 413.000
65.71186 428.000
65.73181 440.000
65.75176 438.000
65.77171 437.000
65.79165 433.000
65.81160 423.000
65.83155 377.000
65.85149 403.000
65.87144 426.000
65.89139 366.000
65.91133 415.000
65.93128 371.000
65.95123 396.000
65.97117 366.000
65.99112 371.000
66.01107 372.000
66.03102 394.000
66.05096 409.000
66.07091 348.000
66.09086 375.000
66.11080 342.000
66.13075 350.000
66.15070 400.000
66.17064 383.000
66.19059 387.000
66.21054 498.000
66.23049 450.000
66.25043 486.000
66.27038 482.000
66.29033 488.000
66.31027 509.000
66.33022 478.000
66.35017 475.000
66.37011 469.000
66.39006 424.000
66.41001 403.000
66.42995 396.000
66.44990 402.000
66.46985 433.000
66.48980 390.000
66.50974 365.000
66.52969 357.000
66.54964 341.000
66.56958 351.000
66.58953 332.000
66.60948 318.000
66.62942 287.000
66.64937 292.000
66.66932 282.000
66.68927 296.000
66.70921 325.000
66.72916 290.000
66.74911 314.000
66.76905 268.000
66.78900 259.000
66.80895 304.000
66.82889 261.000
66.84884 258.000
66.86879 293.000
66.88874 293.000
66.90868 294.000
66.92863 299.000
66.94858 284.000
66.96852 264.000
66.98847 291.000
67.00842 275.000
67.02836 247.000
67.04831 273.000
67.06826 262.000
67.08820 288.000
67.10815 271.000
67.12810 281.000
67.14805 248.000
67.16799 283.000
67.18794 241.000
67.20789 260.000
67.22783 263.000
67.24778 299.000
67.26773 302.000
67.28767 297.000
67.30762 292.000
67.32757 262.000
67.34752 273.000
67.36746 280.000
67.38741 280.000
67.40736 283.000
67.42730 281.000
67.44725 275.000
67.46720 290.000
67.48714 286.000
67.50709 246.000
67.52704 294.000
67.54698 263.000
67.56693 292.000
67.58688 318.000
67.60683 315.000
67.62677 308.000
67.64672 317.000
67.66667 314.000
67.68661 325.000
67.70656 320.000
67.72651 338.000
67.74645 362.000
67.76640 362.000
67.78635 371.000
67.80630 372.000
67.82624 400.000
67.84619 421.000
67.86614 400.000
67.88608 436.000
67.90603 442.000
67.92598 447.000
67.94592 452.000
67.96587 467.000
67.98582 456.000
68.00576 485.000
68.02571 475.000
68.04566 512.000
68.06561 486.000
68.08555 485.000
68.10550 486.000
68.12545 476.000
68.14539 427.000
68.16534 416.000
68.18529 407.000
68.20523 390.000
68.22518 371.000
68.24513 373.000
68.26508 413.000
68.28502 383.000
68.30497 352.000
68.32492 318.000
68.34486 321.000
68.36481 306.000
68.38476 327.000
68.40470 303.000
68.42465 269.000
68.44460 297.000
68.46455 289.000
68.48449 264.000
68.50444 286.000
68.52439 263.000
68.54433 296.000
68.56428 272.000
68.58423 272.000
68.60417 271.000
68.62412 231.000
68.64407 270.000
68.66401 263.000
68.68396 285.000
68.70391 271.000
68.72386 258.000
68.74380 281.000
68.76375 289.000
68.78370 260.000
68.80364 267.000
68.82359 281.000
68.84354 270.000
68.86348 297.000
68.88343 275.000
68.90338 241.000
68.92333 255.000
68.94327 266.000
68.96322 259.000
68.98317 252.000
69.00311 283.000
69.02306 240.000
69.04301 277.000
69.06295 267.000
69.08290 268.000
69.10285 236.000
69.12279 270.000
69.14274 250.000
69.16269 259.000
69.18264 269.000
69.20258 261.000
69.22253 264.000
69.24248 253.000
69.26242 235.000
69.28237 256.000
69.30232 247.000
69.32226 249.000
69.34221 238.000
69.36216 263.000
69.38211 259.000
69.40205 231.000
69.42200 246.000
69.44195 286.000
69.46189 263.000
69.48184 278.000
69.50179 274.000
69.52173 252.000
69.54168 292.000
69.56163 268.000
69.58157 254.000
69.60152 265.000
69.62147 250.000
69.64142 212.000
69.66136 251.000
69.68131 282.000
69.70126 256.000
69.72120 255.000
69.74115 232.000
69.76110 277.000
69.78104 249.000
69.80099 243.000
69.82094 229.000
69.84089 263.000
69.86083 253.000
69.88078 254.000
69.90073 285.000
69.92067 272.000
69.94062 258.000
69.96057 252.000
69.98051 228.000
70.00046 290.000
70.02041 295.000
70.04035 272.000
70.06030 243.000
70.08025 246.000
70.10020 267.000
70.12014 265.000
70.14009 257.000
70.16004 275.000
70.17998 238.000
70.19993 260.000
70.21988 250.000
70.23982 271.000
70.25977 253.000
70.27972 251.000
70.29967 256.000
70.31961 253.000
70.33956 266.000
70.35951 271.000
70.37945 252.000
70.39940 258.000
70.41935 259.000
70.43929 227.000
70.45924 241.000
70.47919 248.000
70.49914 268.000
70.51908 253.000
70.53903 231.000
70.55898 260.000
70.57892 244.000
70.59887 271.000
70.61882 240.000
70.63876 260.000
70.65871 225.000
70.67866 264.000
70.69860 281.000
70.71855 263.000
70.73850 255.000
70.75845 275.000
70.77839 246.000
70.79834 254.000
70.81829 260.000
70.83823 242.000
70.85818 270.000
70.87813 257.000
70.89807 237.000
70.91802 279.000
70.93797 268.000
70.95792 278.000
70.97786 264.000
70.99781 254.000
71.01776 260.000
71.03770 238.000
71.05765 242.000
71.07760 262.000
71.09754 239.000
71.11749 248.000
71.13744 287.000
71.15738 270.000
71.17733 257.000
71.19728 275.000
71.21723 271.000
71.23717 247.000
71.25712 295.000
71.27707 269.000
71.29701 284.000
71.31696 298.000
71.33691 304.000
71.35685 309.000
71.37680 256.000
71.39675 252.000
71.41670 241.000
71.43664 288.000
71.45659 241.000
71.47654 265.000
71.49648 274.000
71.51643 267.000
71.53638 260.000
71.55632 226.000
71.57627 295.000
71.59622 259.000
71.61616 294.000
71.63611 268.000
71.65606 269.000
71.67601 280.000
71.69595 247.000
71.71590 267.000
71.73585 272.000
71.75579 235.000
71.77574 277.000
71.79569 282.000
71.81563 261.000
71.83558 240.000
71.85553 266.000
71.87548 279.000
71.89542 292.000
71.91537 302.000
71.93532 235.000
71.95526 269.000
71.97521 239.000
71.99516 272.000
72.01510 303.000
72.03505 258.000
72.05500 289.000
72.07495 252.000
72.09489 279.000
72.11484 307.000
72.13479 307.000
72.15473 282.000
72.17468 262.000
72.19463 300.000
72.21457 284.000
72.23452 282.000
72.25447 311.000
72.27441 291.000
72.29436 370.000
72.31431 332.000
72.33426 324.000
72.35420 358.000
72.37415 349.000
72.39410 357.000
72.41404 320.000
72.43399 374.000
72.45394 326.000
72.47388 359.000
72.49383 346.000
72.51378 319.000
72.53373 348.000
72.55367 354.000
72.57362 341.000
72.59357 350.000
72.61351 335.000
72.63346 321.000
72.65341 320.000
72.67335 344.000
72.69330 308.000
72.71325 318.000
72.73319 278.000
72.75314 298.000
72.77309 298.000
72.79304 297.000
72.81298 311.000
72.83293 293.000
72.85288 320.000
72.87282 287.000
72.89277 267.000
72.91272 283.000
72.93266 297.000
72.95261 289.000
72.97256 263.000
72.99251 288.000
73.01245 281.000
73.03240 282.000
73.05235 287.000
73.07229 287.000
73.09224 275.000
73.11219 276.000
73.13213 297.000
73.15208 304.000
73.17203 261.000
73.19197 301.000
73.21192 312.000
73.23187 256.000
73.25182 292.000
73.27176 266.000
73.29171 283.000
73.31166 285.000
73.33160 268.000
73.35155 238.000
73.37150 306.000
73.39144 274.000
73.41139 267.000
73.43134 285.000
73.45129 273.000
73.47123 274.000
73.49118 260.000
73.51113 261.000
73.53107 296.000
73.55102 284.000
73.57097 286.000
73.59091 261.000
73.61086 235.000
73.63081 268.000
73.65076 286.000
73.67070 275.000
73.69065 268.000
73.71060 311.000
73.73054 246.000
73.75049 250.000
73.77044 260.000
73.79038 277.000
73.81033 279.000
73.83028 240.000
73.85022 266.000
73.87017 248.000
73.89012 282.000
73.91007 273.000
73.93001 247.000
73.94996 277.000
73.96991 261.000
73.98985 254.000
74.00980 305.000
74.02975 263.000
74.04969 286.000
74.06964 250.000
74.08959 255.000
74.10954 270.000
74.12948 278.000
74.14943 276.000
74.16938 289.000
74.18932 260.000
74.20927 277.000
74.22922 311.000
74.24916 290.000
74.26911 305.000
74.28906 323.000
74.30900 294.000
74.32895 301.000
74.34890 344.000
74.36885 357.000
74.38879 379.000
74.40874 375.000
74.42869 384.000
74.44863 341.000
74.46858 315.000
74.48853 296.000
74.50847 286.000
74.52842 308.000
74.54837 280.000
74.56832 291.000
74.58826 317.000
74.60821 329.000
74.62816 313.000
74.64810 328.000
74.66805 288.000
74.68800 289.000
74.70794 286.000
74.72789 286.000
74.74784 303.000
74.76778 305.000
74.78773 296.000
74.80768 272.000
74.82763 302.000
74.84757 310.000
74.86752 307.000
74.88747 359.000
74.90741 348.000
74.92736 356.000
74.94731 319.000
74.96725 350.000
74.98720 372.000
75.00715 367.000
75.02710 354.000
75.04704 333.000
75.06699 334.000
75.08694 311.000
75.10688 344.000
75.12683 361.000
75.14678 359.000
75.16672 394.000
75.18667 393.000
75.20662 404.000
75.22657 351.000
75.24651 359.000
75.26646 364.000
75.28641 342.000
75.30635 356.000
75.32630 352.000
75.34625 350.000
75.36619 376.000
75.38614 347.000
75.40609 340.000
75.42603 363.000
75.44598 326.000
75.46593 349.000
75.48588 348.000
75.50582 317.000
75.52577 297.000
75.54572 270.000
75.56566 292.000
75.58561 311.000
75.60556 268.000
75.62550 305.000
75.64545 273.000
75.66540 273.000
75.68535 269.000
75.70529 303.000
75.72524 253.000
75.74519 247.000
75.76513 240.000
75.78508 269.000
75.80503 259.000
75.82497 261.000
75.84492 267.000
75.86487 270.000
75.88481 259.000
75.90476 274.000
75.92471 215.000
75.94466 264.000
75.96460 230.000
75.98455 264.000
76.00450 250.000
76.02444 267.000
76.04439 248.000
76.06434 257.000
76.08428 257.000
76.10423 273.000
76.12418 267.000
76.14413 249.000
76.16407 248.000
76.18402 230.000
76.20397 266.000
76.22391 268.000
76.24386 246.000
76.26381 245.000
76.28375 244.000
76.30370 267.000
76.32365 241.000
76.34359 279.000
76.36354 242.000
76.38349 281.000
76.40344 254.000
76.42338 261.000
76.44333 266.000
76.46328 249.000
76.48322 259.000
76.50317 257.000
76.52312 275.000
76.54306 224.000
76.56301 267.000
76.58296 280.000
76.60291 235.000
76.62285 242.000
76.64280 234.000
76.66275 265.000
76.68269 273.000
76.70264 259.000
76.72259 255.000
76.74253 262.000
76.76248 261.000
76.78243 261.000
76.80238 233.000
76.82232 252.000
76.84227 255.000
76.86222 218.000
76.88216 241.000
76.90211 220.000
76.92206 243.000
76.94200 234.000
76.96195 222.000
76.98190 251.000
77.00184 247.000
77.02179 292.000
77.04174 247.000
77.06169 269.000
77.08163 250.000
77.10158 262.000
77.12153 261.000
77.14147 266.000
77.16142 271.000
77.18137 273.000
77.20131 267.000
77.22126 250.000
77.24121 265.000
77.26116 265.000
77.28110 265.000
77.30105 260.000
77.32100 227.000
77.34094 256.000
77.36089 276.000
77.38084 273.000
77.40078 241.000
77.42073 242.000
77.44068 234.000
77.46062 260.000
77.48057 255.000
77.50052 271.000
77.52047 253.000
77.54041 261.000
77.56036 273.000
77.58031 252.000
77.60025 253.000
77.62020 276.000
77.64015 292.000
77.66009 273.000
77.68004 262.000
77.69999 267.000
77.71994 259.000
77.73988 262.000
77.75983 268.000
77.77978 279.000
77.79972 253.000
77.81967 250.000
77.83962 262.000
77.85956 291.000
77.87951 253.000
77.89946 273.000
77.91940 247.000
77.93935 265.000
77.95930 260.000
77.97925 284.000
77.99919 281.000
78.01914 290.000
78.03909 268.000
78.05903 289.000
78.07898 280.000
78.09893 265.000
78.11887 283.000
78.13882 266.000
78.15877 287.000
78.17872 276.000
78.19866 263.000
78.21861 280.000
78.23856 252.000
78.25850 279.000
78.27845 284.000
78.29840 280.000
78.31834 267.000
78.33829 280.000
78.35824 256.000
78.37819 266.000
78.39813 277.000
78.41808 273.000
78.43803 288.000
78.45797 263.000
78.47792 282.000
78.49787 265.000
78.51781 275.000
78.53776 270.000
78.55771 240.000
78.57765 259.000
78.59760 232.000
78.61755 246.000
78.63750 239.000
78.65744 251.000
78.67739 257.000
78.69734 243.000
78.71728 252.000
78.73723 260.000
78.75718 246.000
78.77712 276.000
78.79707 265.000
78.81702 287.000
78.83697 245.000
78.85691 276.000
78.87686 289.000
78.89681 234.000
78.91675 274.000
78.93670 246.000
78.95665 281.000
78.97659 263.000
78.99654 254.000
79.01649 270.000
79.03643 257.000
79.05638 251.000
79.07633 262.000
79.09628 279.000
79.11622 281.000
79.13617 241.000
79.15612 273.000
79.17606 257.000
79.19601 264.000
79.21596 301.000
79.23590 273.000
79.25585 257.000
79.27580 271.000
79.29575 281.000
79.31569 287.000
79.33564 295.000
79.35559 270.000
79.37553 291.000
79.39548 286.000
79.41543 306.000
79.43537 284.000
79.45532 318.000
79.47527 278.000
79.49521 252.000
79.51516 280.000
79.53511 261.000
79.55506 249.000
79.57500 245.000
79.59495 243.000
79.61490 265.000
79.63484 255.000
79.65479 289.000
79.67474 274.000
79.69468 272.000
79.71463 271.000
79.73458 247.000
79.75453 256.000
79.77447 231.000
79.79442 260.000
79.81437 256.000
79.83431 239.000
79.85426 242.000
79.87421 257.000
79.89415 244.000
79.91410 242.000
79.93405 253.000
79.95399 260.000
79.97394 257.000
79.99389 244.000
80.01384 295.000
80.03378 250.000
80.05373 238.000
80.07368 243.000
80.09362 272.000
80.11357 269.000
80.13352 268.000
80.15346 273.000
80.17341 291.000
80.19336 253.000
80.21331 273.000
80.23325 304.000
80.25320 280.000
80.27315 282.000
80.29309 268.000
80.31304 266.000
80.33299 270.000
80.35293 245.000
80.37288 274.000
80.39283 300.000
80.41278 264.000
80.43272 260.000
80.45267 260.000
80.47262 261.000
80.49256 279.000
80.51251 264.000
80.53246 277.000
80.55240 232.000
80.57235 283.000
80.59230 264.000
80.61224 273.000
80.63219 263.000
80.65214 235.000
80.67209 257.000
80.69203 250.000
80.71198 250.000
80.73193 233.000
80.75187 257.000
80.77182 255.000
80.79177 241.000
80.81171 244.000
80.83166 252.000
80.85161 251.000
80.87156 248.000
80.89150 266.000
80.91145 239.000
80.93140 279.000
80.95134 249.000
80.97129 250.000
80.99124 228.000
81.01118 237.000
81.03113 258.000
81.05108 259.000
81.07102 229.000
81.09097 223.000
81.11092 227.000
81.13087 242.000
81.15081 264.000
81.17076 255.000
81.19071 231.000
81.21065 262.000
81.23060 258.000
81.25055 233.000
81.27049 249.000
81.29044 237.000
81.31039 210.000
81.33034 259.000
81.35028 231.000
81.37023 245.000
81.39018 227.000
81.41012 248.000
81.43007 253.000
81.45002 269.000
81.46996 247.000
81.48991 240.000
81.50986 243.000
81.52980 238.000
81.54975 259.000
81.56970 220.000
81.58965 205.000
81.60959 246.000
81.62954 252.000
81.64949 279.000
81.66943 238.000
81.68938 206.000
81.70933 253.000
81.72927 248.000
81.74922 248.000
81.76917 268.000
81.78912 239.000
81.80906 244.000
81.82901 236.000
81.84896 246.000
81.86890 278.000
81.88885 251.000
81.90880 235.000
81.92874 235.000
81.94869 260.000
81.96864 241.000
81.98859 259.000
82.00853 272.000
82.02848 249.000
82.04843 258.000
82.06837 270.000
82.08832 255.000
82.10827 261.000
82.12821 283.000
82.14816 269.000
82.16811 258.000
82.18805 256.000
82.20800 274.000
82.22795 305.000
82.24790 278.000
82.26784 271.000
82.28779 293.000
82.30774 279.000
82.32768 294.000
82.34763 308.000
82.36758 326.000
82.38752 317.000
82.40747 298.000
82.42742 293.000
82.44737 326.000
82.46731 308.000
82.48726 316.000
82.50721 276.000
82.52715 277.000
82.54710 304.000
82.56705 291.000
82.58699 298.000
82.60694 292.000
82.62689 281.000
82.64683 297.000
82.66678 326.000
82.68673 289.000
82.70668 290.000
82.72662 303.000
82.74657 291.000
82.76652 307.000
82.78646 268.000
82.80641 285.000
82.82636 265.000
82.84630 300.000
82.86625 272.000
82.88620 273.000
82.90615 314.000
82.92609 291.000
82.94604 304.000
82.96599 288.000
82.98593 320.000
83.00588 318.000
83.02583 301.000
83.04577 302.000
83.06572 353.000
83.08567 275.000
83.10561 266.000
83.12556 304.000
83.14551 291.000
83.16546 288.000
83.18540 301.000
83.20535 283.000
83.22530 265.000
83.24524 252.000
83.26519 289.000
83.28514 315.000
83.30508 269.000
83.32503 291.000
83.34498 288.000
83.36493 294.000
83.38487 259.000
83.40482 264.000
83.42477 261.000
83.44471 305.000
83.46466 266.000
83.48461 280.000
83.50455 287.000
83.52450 260.000
83.54445 260.000
83.56440 298.000
83.58434 276.000
83.60429 282.000
83.62424 305.000
83.64418 318.000
83.66413 260.000
83.68408 312.000
83.70402 320.000
83.72397 278.000
83.74392 284.000
83.76386 297.000
83.78381 273.000
83.80376 301.000
83.82371 277.000
83.84365 266.000
83.86360 278.000
83.88355 259.000
83.90349 281.000
83.92344 248.000
83.94339 309.000
83.96333 272.000
83.98328 282.000
84.00323 278.000
84.02318 291.000
84.04312 310.000
84.06307 259.000
84.08302 268.000
84.10296 299.000
84.12291 254.000
84.14286 263.000
84.16280 292.000
84.18275 230.000
84.20270 269.000
84.22264 292.000
84.24259 258.000
84.26254 262.000
84.28249 256.000
84.30243 261.000
84.32238 253.000
84.34233 274.000
84.36227 259.000
84.38222 262.000
84.40217 247.000
84.42211 244.000
84.44206 285.000
84.46201 249.000
84.48196 236.000
84.50190 284.000
84.52185 255.000
84.54180 240.000
84.56174 251.000
84.58169 263.000
84.60164 243.000
84.62158 247.000
84.64153 257.000
84.66148 236.000
84.68142 241.000
84.70137 263.000
84.72132 229.000
84.74127 251.000
84.76121 239.000
84.78116 229.000
84.80111 257.000
84.82105 249.000
84.84100 265.000
84.86095 241.000
84.88089 240.000
84.90084 274.000
84.92079 261.000
84.94074 272.000
84.96068 234.000
84.98063 270.000
85.00058 240.000
85.02052 252.000
85.04047 295.000
85.06042 252.000
85.08036 261.000
85.10031 253.000
85.12026 226.000
85.14021 274.000
85.16015 248.000
85.18010 229.000
85.20005 232.000
85.21999 233.000
85.23994 251.000
85.25989 233.000
85.27983 240.000
85.29978 285.000
85.31973 252.000
85.33967 231.000
85.35962 248.000
85.37957 253.000
85.39952 235.000
85.41946 244.000
85.43941 249.000
85.45936 222.000
85.47930 223.000
85.49925 257.000
85.51920 262.000
85.53914 261.000
85.55909 233.000
85.57904 281.000
85.59899 232.000
85.61893 225.000
85.63888 261.000
85.65883 262.000
85.67877 253.000
85.69872 270.000
85.71867 257.000
85.73861 241.000
85.75856 268.000
85.77851 257.000
85.79845 230.000
85.81840 255.000
85.83835 263.000
85.85830 242.000
85.87824 242.000
85.89819 268.000
85.91814 283.000
85.93808 239.000
85.95803 255.000
85.97798 286.000
85.99792 261.000
86.01787 245.000
86.03782 257.000
86.05777 259.000
86.07771 260.000
86.09766 246.000
86.11761 264.000
86.13755 237.000
86.15750 256.000
86.17745 235.000
86.19739 263.000
86.21734 262.000
86.23729 262.000
86.25723 249.000
86.27718 228.000
86.29713 241.000
86.31708 270.000
86.33702 263.000
86.35697 255.000
86.37692 284.000
86.39686 262.000
86.41681 258.000
86.43676 233.000
86.45670 237.000
86.47665 272.000
86.49660 286.000
86.51655 250.000
86.53649 232.000
86.55644 283.000
86.57639 254.000
86.59633 259.000
86.61628 267.000
86.63623 276.000
86.65617 296.000
86.67612 253.000
86.69607 308.000
86.71602 305.000
86.73596 259.000
86.75591 241.000
86.77586 269.000
86.79580 297.000
86.81575 266.000
86.83570 272.000
86.85564 284.000
86.87559 287.000
86.89554 276.000
86.91548 283.000
86.93543 293.000
86.95538 275.000
86.97533 312.000
86.99527 293.000
87.01522 281.000
87.03517 258.000
87.05511 290.000
87.07506 262.000
87.09501 257.000
87.11495 266.000
87.13490 252.000
87.15485 285.000
87.17480 259.000
87.19474 255.000
87.21469 284.000
87.23464 300.000
87.25458 285.000
87.27453 284.000
87.29448 328.000
87.31442 250.000
87.33437 279.000
87.35432 298.000
87.37426 279.000
87.39421 251.000
87.41416 252.000
87.43411 263.000
87.45405 237.000
87.47400 275.000
87.49395 255.000
87.51389 300.000
87.53384 271.000
87.55379 292.000
87.57373 232.000
87.59368 255.000
87.61363 257.000
87.63358 283.000
87.65352 274.000
87.67347 301.000
87.69342 244.000
87.71336 263.000
87.73331 260.000
87.75326 234.000
87.77320 270.000
87.79315 251.000
87.81310 233.000
87.83304 270.000
87.85299 256.000
87.87294 274.000
87.89289 249.000
87.91283 233.000
87.93278 232.000
87.95273 232.000
87.97267 260.000
87.99262 231.000
88.01257 243.000
88.03251 253.000
88.05246 254.000
88.07241 256.000
88.09236 271.000
88.11230 259.000
88.13225 252.000
88.15220 257.000
88.17214 231.000
88.19209 267.000
88.21204 249.000
88.23198 229.000
88.25193 254.000
88.27188 268.000
88.29183 256.000
88.31177 221.000
88.33172 243.000
88.35167 234.000
88.37161 227.000
88.39156 243.000
88.41151 250.000
88.43145 252.000
88.45140 255.000
88.47135 268.000
88.49129 244.000
88.51124 250.000
88.53119 266.000
88.55114 250.000
88.57108 254.000
88.59103 257.000
88.61098 279.000
88.63092 270.000
88.65087 254.000
88.67082 245.000
88.69076 239.000
88.71071 226.000
88.73066 240.000
88.75061 230.000
88.77055 236.000
88.79050 258.000
88.81045 252.000
88.83039 253.000
88.85034 248.000
88.87029 260.000
88.89023 263.000
88.91018 267.000
88.93013 264.000
88.95007 272.000
88.97002 264.000
88.98997 253.000
89.00992 250.000
89.02986 237.000
89.04981 263.000
89.06976 270.000
89.08970 262.000
89.10965 252.000
89.12960 250.000
89.14954 238.000
89.16949 248.000
89.18944 259.000
89.20939 234.000
89.22933 260.000
89.24928 243.000
89.26923 262.000
89.28917 265.000
89.30912 303.000
89.32907 279.000
89.34901 254.000
89.36896 265.000
89.38891 264.000
89.40885 300.000
89.42880 280.000
89.44875 289.000
89.46870 264.000
89.48864 272.000
89.50859 287.000
89.52854 296.000
89.54848 291.000
89.56843 293.000
89.58838 292.000
89.60832 298.000
89.62827 284.000
89.64822 261.000
89.66817 301.000
89.68811 302.000
89.70806 296.000
89.72801 325.000
89.74795 283.000
89.76790 305.000
89.78785 303.000
89.80779 320.000
89.82774 333.000
89.84769 321.000
89.86764 323.000
89.88758 316.000
89.90753 313.000
89.92748 308.000
89.94742 328.000
89.96737 316.000
89.98732 307.000
90.00726 317.000
