10.00000 201.000
10.01995 192.000
10.03989 223.000
10.05984 228.000
10.07979 210.000
10.09973 219.000
10.11968 206.000
10.13963 232.000
10.15958 228.000
10.17952 220.000
10.19947 200.000
10.21942 213.000
10.23936 230.000
10.25931 220.000
10.27926 213.000
10.29920 221.000
10.31915 214.000
10.33910 223.000
10.35905 245.000
10.37899 200.000
10.39894 222.000
10.41889 207.000
10.43883 194.000
10.45878 183.000
10.47873 195.000
10.49867 229.000
10.51862 202.000
10.53857 226.000
10.55851 227.000
10.57846 233.000
10.59841 218.000
10.61836 239.000
10.63830 227.000
10.65825 219.000
10.67820 196.000
10.69814 211.000
10.71809 231.000
10.73804 218.000
10.75798 218.000
10.77793 230.000
10.79788 216.000
10.81783 232.000
10.83777 189.000
10.85772 253.000
10.87767 189.000
10.89761 209.000
10.91756 227.000
10.93751 257.000
10.95745 219.000
10.97740 236.000
10.99735 223.000
11.01730 241.000
11.03724 224.000
11.05719 216.000
11.07714 226.000
11.09708 246.000
11.11703 202.000
11.13698 253.000
11.15692 229.000
11.17687 209.000
11.19682 233.000
11.21676 224.000
11.23671 223.000
11.25666 231.000
11.27661 237.000
11.29655 236.000
11.31650 242.000
11.33645 221.000
11.35639 198.000
11.37634 217.000
11.39629 222.000
11.41623 241.000
11.43618 216.000
11.45613 205.000
11.47608 242.000
11.49602 239.000
11.51597 239.000
11.53592 258.000
11.55586 200.000
11.57581 238.000
11.59576 233.000
11.61570 229.000
11.63565 227.000
11.65560 226.000
11.67554 259.000
11.69549 218.000
11.71544 222.000
11.73539 222.000
11.75533 226.000
11.77528 234.000
11.79523 226.000
11.81517 253.000
11.83512 258.000
11.85507 224.000
11.87501 233.000
11.89496 226.000
11.91491 228.000
11.93486 209.000
11.95480 221.000
11.97475 269.000
11.99470 227.000
12.01464 243.000
12.03459 241.000
12.05454 246.000
12.07448 231.000
12.09443 248.000
12.11438 232.000
12.13432 272.000
12.15427 257.000
12.17422 257.000
12.19417 235.000
12.21411 226.000
12.23406 219.000
12.25401 248.000
12.27395 249.000
12.29390 231.000
12.31385 203.000
12.33379 197.000
12.35374 244.000
12.37369 259.000
12.39364 238.000
12.41358 237.000
12.43353 225.000
12.45348 225.000
12.47342 238.000
12.49337 234.000
12.51332 231.000
12.53326 241.000
12.55321 244.000
12.57316 243.000
12.59311 228.000
12.61305 268.000
12.63300 232.000
12.65295 242.000
12.67289 234.000
12.69284 224.000
12.71279 260.000
12.73273 235.000
12.75268 245.000
12.77263 252.000
12.79257 253.000
12.81252 231.000
12.83247 236.000
12.85242 257.000
12.87236 257.000
12.89231 277.000
12.91226 234.000
12.93220 251.000
12.95215 224.000
12.97210 226.000
12.99204 282.000
13.01199 262.000
13.03194 268.000
13.05189 249.000
13.07183 266.000
13.09178 238.000
13.11173 270.000
13.13167 241.000
13.15162 269.000
13.17157 273.000
13.19151 231.000
13.21146 242.000
13.23141 245.000
13.25135 258.000
13.27130 243.000
13.29125 255.000
13.31120 266.000
13.33114 238.000
13.35109 244.000
13.37104 260.000
13.39098 261.000
13.41093 275.000
13.43088 240.000
13.45082 233.000
13.47077 213.000
13.49072 247.000
13.51067 251.000
13.53061 242.000
13.55056 251.000
13.57051 283.000
13.59045 253.000
13.61040 252.000
13.63035 249.000
13.65029 284.000
13.67024 267.000
13.69019 257.000
13.71013 269.000
13.73008 246.000
13.75003 243.000
13.76998 246.000
13.78992 272.000
13.80987 253.000
13.82982 229.000
13.84976 225.000
13.86971 285.000
13.88966 276.000
13.90960 252.000
13.92955 243.000
13.94950 248.000
13.96945 246.000
13.98939 241.000
14.00934 277.000
14.02929 243.000
14.04923 247.000
14.06918 285.000
14.08913 217.000
14.10907 248.000
14.12902 259.000
14.14897 273.000
14.16892 300.000
14.18886 215.000
14.20881 251.000
14.22876 277.000
14.24870 217.000
14.26865 244.000
14.28860 216.000
14.30854 259.000
14.32849 254.000
14.34844 265.000
14.36838 235.000
14.38833 259.000
14.40828 262.000
14.42823 261.000
14.44817 270.000
14.46812 273.000
14.48807 241.000
14.50801 274.000
14.52796 250.000
14.54791 254.000
14.56785 260.000
14.58780 286.000
14.60775 260.000
14.62770 277.000
14.64764 249.000
14.66759 242.000
14.68754 265.000
14.70748 275.000
14.72743 260.000
14.74738 259.000
14.76732 262.000
14.78727 287.000
14.80722 259.000
14.82716 267.000
14.84711 262.000
14.86706 262.000
14.88701 266.000
14.90695 258.000
14.92690 290.000
14.94685 254.000
14.96679 276.000
14.98674 232.000
15.00669 253.000
15.02663 258.000
15.04658 262.000
15.06653 327.000
15.08648 270.000
15.10642 279.000
15.12637 263.000
15.14632 254.000
15.16626 282.000
15.18621 273.000
15.20616 271.000
15.22610 301.000
15.24605 292.000
15.26600 263.000
15.28594 241.000
15.30589 318.000
15.32584 317.000
15.34579 327.000
15.36573 335.000
15.38568 339.000
15.40563 360.000
15.42557 346.000
15.44552 387.000
15.46547 426.000
15.48541 455.000
15.50536 536.000
15.52531 627.000
15.54526 741.000
15.56520 903.000
15.58515 1124.000
15.60510 1368.000
15.62504 1672.000
15.64499 2028.000
15.66494 2553.000
15.68488 3042.000
15.70483 3348.000
15.72478 3766.000
15.74472 3590.000
15.76467 3028.000
15.78462 2371.000
15.80457 1550.000
15.82451 982.000
15.84446 620.000
15.86441 522.000
15.88435 422.000
15.90430 379.000
15.92425 347.000
15.94419 340.000
15.96414 331.000
15.98409 322.000
16.00404 281.000
16.02398 307.000
16.04393 310.000
16.06388 325.000
16.08382 342.000
16.10377 307.000
16.12372 288.000
16.14366 285.000
16.16361 301.000
16.18356 302.000
16.20351 268.000
16.22345 315.000
16.24340 300.000
16.26335 296.000
16.28329 283.000
16.30324 285.000
16.32319 264.000
16.34313 283.000
16.36308 308.000
16.38303 282.000
16.40297 286.000
16.42292 293.000
16.44287 282.000
16.46282 299.000
16.48276 293.000
16.50271 321.000
16.52266 326.000
16.54260 322.000
16.56255 303.000
16.58250 364.000
16.60244 357.000
16.62239 361.000
16.64234 417.000
16.66229 410.000
16.68223 442.000
16.70218 457.000
16.72213 416.000
16.74207 409.000
16.76202 328.000
16.78197 318.000
16.80191 295.000
16.82186 310.000
16.84181 269.000
16.86175 234.000
16.88170 287.000
16.90165 242.000
16.92160 260.000
16.94154 292.000
16.96149 277.000
16.98144 258.000
17.00138 246.000
17.02133 280.000
17.04128 286.000
17.06122 277.000
17.08117 261.000
17.10112 275.000
17.12107 261.000
17.14101 282.000
17.16096 280.000
17.18091 284.000
17.20085 289.000
17.22080 264.000
17.24075 279.000
17.26069 273.000
17.28064 269.000
17.30059 278.000
17.32053 264.000
17.34048 258.000
17.36043 281.000
17.38038 281.000
17.40032 297.000
17.42027 282.000
17.44022 263.000
17.46016 279.000
17.48011 248.000
17.50006 237.000
17.52000 262.000
17.53995 267.000
17.55990 266.000
17.57985 259.000
17.59979 277.000
17.61974 252.000
17.63969 282.000
17.65963 257.000
17.67958 272.000
17.69953 286.000
17.71947 264.000
17.73942 239.000
17.75937 260.000
17.77932 282.000
17.79926 271.000
17.81921 257.000
17.83916 272.000
17.85910 267.000
17.87905 247.000
17.89900 269.000
17.91894 256.000
17.93889 280.000
17.95884 262.000
17.97878 270.000
17.99873 267.000
18.01868 251.000
18.03863 277.000
18.05857 262.000
18.07852 283.000
18.09847 288.000
18.11841 260.000
18.13836 270.000
18.15831 270.000
18.17825 286.000
18.19820 259.000
18.21815 280.000
18.23810 268.000
18.25804 244.000
18.27799 275.000
18.29794 268.000
18.31788 262.000
18.33783 253.000
18.35778 258.000
18.37772 243.000
18.39767 279.000
18.41762 279.000
18.43756 292.000
18.45751 251.000
18.47746 277.000
18.49741 273.000
18.51735 292.000
18.53730 239.000
18.55725 274.000
18.57719 262.000
18.59714 272.000
18.61709 277.000
18.63703 274.000
18.65698 269.000
18.67693 286.000
18.69688 265.000
18.71682 257.000
18.73677 256.000
18.75672 259.000
18.77666 281.000
18.79661 259.000
18.81656 253.000
18.83650 249.000
18.85645 323.000
18.87640 253.000
18.89634 265.000
18.91629 282.000
18.93624 268.000
18.95619 277.000
18.97613 251.000
18.99608 254.000
19.01603 280.000
19.03597 268.000
19.05592 305.000
19.07587 257.000
19.09581 283.000
19.11576 278.000
19.13571 268.000
19.15566 264.000
19.17560 259.000
19.19555 279.000
19.21550 270.000
19.23544 258.000
19.25539 256.000
19.27534 274.000
19.29528 272.000
19.31523 297.000
19.33518 259.000
19.35513 249.000
19.37507 259.000
19.39502 268.000
19.41497 247.000
19.43491 257.000
19.45486 232.000
19.47481 292.000
19.49475 252.000
19.51470 279.000
19.53465 280.000
19.55459 288.000
19.57454 266.000
19.59449 297.000
19.61444 288.000
19.63438 265.000
19.65433 282.000
19.67428 302.000
19.69422 288.000
19.71417 296.000
19.73412 273.000
19.75406 255.000
19.77401 248.000
19.79396 249.000
19.81391 293.000
19.83385 299.000
19.85380 260.000
19.87375 234.000
19.89369 262.000
19.91364 263.000
19.93359 264.000
19.95353 270.000
19.97348 280.000
19.99343 266.000
20.01337 275.000
20.03332 276.000
20.05327 278.000
20.07322 264.000
20.09316 283.000
20.11311 274.000
20.13306 287.000
20.15300 280.000
20.17295 265.000
20.19290 265.000
20.21284 272.000
20.23279 270.000
20.25274 303.000
20.27269 288.000
20.29263 298.000
20.31258 283.000
20.33253 266.000
20.35247 267.000
20.37242 271.000
20.39237 280.000
20.41231 292.000
20.43226 295.000
20.45221 299.000
20.47215 282.000
20.49210 272.000
20.51205 281.000
20.53200 262.000
20.55194 264.000
20.57189 298.000
20.59184 289.000
20.61178 275.000
20.63173 317.000
20.65168 310.000
20.67162 329.000
20.69157 313.000
20.71152 366.000
20.73147 425.000
20.75141 425.000
20.77136 442.000
20.79131 474.000
20.81125 512.000
20.83120 487.000
20.85115 521.000
20.87109 480.000
20.89104 532.000
20.91099 453.000
20.93094 438.000
20.95088 452.000
20.97083 465.000
20.99078 469.000
21.01072 413.000
21.03067 408.000
21.05062 365.000
21.07056 326.000
21.09051 284.000
21.11046 319.000
21.13040 305.000
21.15035 313.000
21.17030 270.000
21.19025 296.000
21.21019 287.000
21.23014 271.000
21.25009 301.000
21.27003 261.000
21.28998 294.000
21.30993 267.000
21.32987 308.000
21.34982 272.000
21.36977 262.000
21.38972 247.000
21.40966 273.000
21.42961 296.000
21.44956 275.000
21.46950 275.000
21.48945 296.000
21.50940 283.000
21.52934 282.000
21.54929 258.000
21.56924 294.000
21.58918 249.000
21.60913 282.000
21.62908 300.000
21.64903 266.000
21.66897 271.000
21.68892 261.000
21.70887 277.000
21.72881 262.000
21.74876 250.000
21.76871 264.000
21.78865 265.000
21.80860 266.000
21.82855 284.000
21.84850 297.000
21.86844 271.000
21.88839 284.000
21.90834 267.000
21.92828 264.000
21.94823 292.000
21.96818 254.000
21.98812 256.000
22.00807 260.000
22.02802 237.000
22.04796 271.000
22.06791 235.000
22.08786 265.000
22.10781 254.000
22.12775 265.000
22.14770 260.000
22.16765 257.000
22.18759 264.000
22.20754 259.000
22.22749 286.000
22.24743 272.000
22.26738 262.000
22.28733 276.000
22.30728 273.000
22.32722 284.000
22.34717 252.000
22.36712 295.000
22.38706 272.000
22.40701 282.000
22.42696 259.000
22.44690 277.000
22.46685 274.000
22.48680 289.000
22.50675 311.000
22.52669 279.000
22.54664 267.000
22.56659 321.000
22.58653 266.000
22.60648 286.000
22.62643 291.000
22.64637 269.000
22.66632 254.000
22.68627 305.000
22.70621 269.000
22.72616 283.000
22.74611 304.000
22.76606 263.000
22.78600 263.000
22.80595 265.000
22.82590 285.000
22.84584 302.000
22.86579 277.000
22.88574 299.000
22.90568 269.000
22.92563 278.000
22.94558 236.000
22.96553 294.000
22.98547 284.000
23.00542 279.000
23.02537 250.000
23.04531 279.000
23.06526 249.000
23.08521 273.000
23.10515 280.000
23.12510 258.000
23.14505 276.000
23.16499 270.000
23.18494 278.000
23.20489 240.000
23.22484 273.000
23.24478 300.000
23.26473 285.000
23.28468 279.000
23.30462 267.000
23.32457 270.000
23.34452 283.000
23.36446 265.000
23.38441 302.000
23.40436 265.000
23.42431 264.000
23.44425 292.000
23.46420 299.000
23.48415 299.000
23.50409 285.000
23.52404 304.000
23.54399 277.000
23.56393 293.000
23.58388 285.000
23.60383 282.000
23.62377 260.000
23.64372 259.000
23.66367 289.000
23.68362 266.000
23.70356 238.000
23.72351 258.000
23.74346 270.000
23.76340 284.000
23.78335 290.000
23.80330 263.000
23.82324 288.000
23.84319 268.000
23.86314 277.000
23.88309 293.000
23.90303 280.000
23.92298 259.000
23.94293 241.000
23.96287 265.000
23.98282 265.000
24.00277 308.000
24.02271 285.000
24.04266 276.000
24.06261 280.000
24.08256 265.000
24.10250 254.000
24.12245 278.000
24.14240 251.000
24.16234 265.000
24.18229 277.000
24.20224 265.000
24.22218 280.000
24.24213 312.000
24.26208 288.000
24.28202 273.000
24.30197 271.000
24.32192 272.000
24.34187 284.000
24.36181 311.000
24.38176 268.000
24.40171 273.000
24.42165 260.000
24.44160 265.000
24.46155 288.000
24.48149 283.000
24.50144 279.000
24.52139 323.000
24.54134 258.000
24.56128 255.000
24.58123 295.000
24.60118 295.000
24.62112 275.000
24.64107 283.000
24.66102 292.000
24.68096 302.000
24.70091 315.000
24.72086 308.000
24.74080 325.000
24.76075 345.000
24.78070 293.000
24.80065 371.000
24.82059 358.000
24.84054 397.000
24.86049 371.000
24.88043 358.000
24.90038 345.000
24.92033 346.000
24.94027 333.000
24.96022 332.000
24.98017 298.000
25.00012 277.000
25.02006 303.000
25.04001 281.000
25.05996 277.000
25.07990 295.000
25.09985 275.000
25.11980 256.000
25.13974 261.000
25.15969 262.000
25.17964 294.000
25.19958 280.000
25.21953 293.000
25.23948 280.000
25.25943 298.000
25.27937 259.000
25.29932 282.000
25.31927 275.000
25.33921 312.000
25.35916 243.000
25.37911 269.000
25.39905 278.000
25.41900 281.000
25.43895 298.000
25.45890 280.000
25.47884 289.000
25.49879 274.000
25.51874 286.000
25.53868 290.000
25.55863 281.000
25.57858 278.000
25.59852 279.000
25.61847 280.000
25.63842 305.000
25.65837 276.000
25.67831 293.000
25.69826 307.000
25.71821 278.000
25.73815 278.000
25.75810 282.000
25.77805 298.000
25.79799 296.000
25.81794 269.000
25.83789 283.000
25.85783 326.000
25.87778 291.000
25.89773 257.000
25.91768 275.000
25.93762 290.000
25.95757 318.000
25.97752 301.000
25.99746 285.000
26.01741 278.000
26.03736 279.000
26.05730 280.000
26.07725 266.000
26.09720 286.000
26.11715 273.000
26.13709 294.000
26.15704 297.000
26.17699 289.000
26.19693 290.000
26.21688 304.000
26.23683 291.000
26.25677 252.000
26.27672 268.000
26.29667 273.000
26.31661 306.000
26.33656 315.000
26.35651 304.000
26.37646 308.000
26.39640 282.000
26.41635 310.000
26.43630 285.000
26.45624 309.000
26.47619 282.000
26.49614 277.000
26.51608 266.000
26.53603 301.000
26.55598 320.000
26.57593 292.000
26.59587 294.000
26.61582 292.000
26.63577 287.000
26.65571 289.000
26.67566 311.000
26.69561 315.000
26.71555 284.000
26.73550 280.000
26.75545 320.000
26.77539 305.000
26.79534 315.000
26.81529 281.000
26.83524 275.000
26.85518 317.000
26.87513 292.000
26.89508 270.000
26.91502 286.000
26.93497 302.000
26.95492 290.000
26.97486 343.000
26.99481 326.000
27.01476 351.000
27.03471 305.000
27.05465 311.000
27.07460 333.000
27.09455 311.000
27.11449 320.000
27.13444 325.000
27.15439 291.000
27.17433 280.000
27.19428 287.000
27.21423 297.000
27.23417 289.000
27.25412 283.000
27.27407 279.000
27.29402 301.000
27.31396 261.000
27.33391 348.000
27.35386 310.000
27.37380 295.000
27.39375 288.000
27.41370 299.000
27.43364 311.000
27.45359 299.000
27.47354 293.000
27.49349 312.000
27.51343 275.000
27.53338 285.000
27.55333 318.000
27.57327 279.000
27.59322 321.000
27.61317 285.000
27.63311 289.000
27.65306 295.000
27.67301 291.000
27.69296 296.000
27.71290 305.000
27.73285 288.000
27.75280 311.000
27.77274 294.000
27.79269 312.000
27.81264 289.000
27.83258 298.000
27.85253 339.000
27.87248 293.000
27.89242 315.000
27.91237 330.000
27.93232 297.000
27.95227 303.000
27.97221 299.000
27.99216 320.000
28.01211 320.000
28.03205 303.000
28.05200 320.000
28.07195 321.000
28.09189 333.000
28.11184 320.000
28.13179 318.000
28.15174 300.000
28.17168 341.000
28.19163 314.000
28.21158 285.000
28.23152 331.000
28.25147 328.000
28.27142 346.000
28.29136 326.000
28.31131 328.000
28.33126 339.000
28.35120 311.000
28.37115 312.000
28.39110 286.000
28.41105 302.000
28.43099 296.000
28.45094 296.000
28.47089 306.000
28.49083 287.000
28.51078 317.000
28.53073 301.000
28.55067 299.000
28.57062 314.000
28.59057 305.000
28.61052 305.000
28.63046 309.000
28.65041 314.000
28.67036 339.000
28.69030 312.000
28.71025 300.000
28.73020 282.000
28.75014 292.000
28.77009 334.000
28.79004 295.000
28.80998 321.000
28.82993 306.000
28.84988 306.000
28.86983 360.000
28.88977 322.000
28.90972 342.000
28.92967 327.000
28.94961 306.000
28.96956 330.000
28.98951 335.000
29.00945 350.000
29.02940 370.000
29.04935 390.000
29.06930 397.000
29.08924 413.000
29.10919 488.000
29.12914 512.000
29.14908 582.000
29.16903 649.000
29.18898 713.000
29.20892 770.000
29.22887 771.000
29.24882 738.000
29.26877 701.000
29.28871 661.000
29.30866 656.000
29.32861 577.000
29.34855 509.000
29.36850 485.000
29.38845 456.000
29.40839 423.000
29.42834 395.000
29.44829 380.000
29.46823 366.000
29.48818 316.000
29.50813 360.000
29.52808 327.000
29.54802 331.000
29.56797 329.000
29.58792 317.000
29.60786 312.000
29.62781 349.000
29.64776 306.000
29.66770 309.000
29.68765 328.000
29.70760 312.000
29.72755 342.000
29.74749 336.000
29.76744 317.000
29.78739 307.000
29.80733 309.000
29.82728 308.000
29.84723 315.000
29.86717 363.000
29.88712 329.000
29.90707 304.000
29.92701 323.000
29.94696 330.000
29.96691 340.000
29.98686 328.000
30.00680 342.000
30.02675 317.000
30.04670 354.000
30.06664 315.000
30.08659 324.000
30.10654 329.000
30.12648 307.000
30.14643 331.000
30.16638 314.000
30.18633 318.000
30.20627 315.000
30.22622 304.000
30.24617 309.000
30.26611 300.000
30.28606 290.000
30.30601 282.000
30.32595 311.000
30.34590 307.000
30.36585 339.000
30.38579 309.000
30.40574 290.000
30.42569 313.000
30.44564 299.000
30.46558 287.000
30.48553 311.000
30.50548 303.000
30.52542 317.000
30.54537 312.000
30.56532 333.000
30.58526 297.000
30.60521 319.000
30.62516 298.000
30.64511 284.000
30.66505 333.000
30.68500 293.000
30.70495 320.000
30.72489 291.000
30.74484 319.000
30.76479 343.000
30.78473 332.000
30.80468 300.000
30.82463 302.000
30.84458 284.000
30.86452 341.000
30.88447 325.000
30.90442 331.000
30.92436 309.000
30.94431 302.000
30.96426 294.000
30.98420 331.000
31.00415 287.000
31.02410 325.000
31.04404 359.000
31.06399 290.000
31.08394 317.000
31.10389 326.000
31.12383 304.000
31.14378 333.000
31.16373 306.000
31.18367 322.000
31.20362 302.000
31.22357 329.000
31.24351 295.000
31.26346 310.000
31.28341 276.000
31.30336 323.000
31.32330 335.000
31.34325 322.000
31.36320 304.000
31.38314 379.000
31.40309 307.000
31.42304 328.000
31.44298 287.000
31.46293 346.000
31.48288 321.000
31.50282 345.000
31.52277 298.000
31.54272 341.000
31.56267 354.000
31.58261 310.000
31.60256 346.000
31.62251 297.000
31.64245 309.000
31.66240 340.000
31.68235 331.000
31.70229 368.000
31.72224 337.000
31.74219 390.000
31.76214 337.000
31.78208 381.000
31.80203 433.000
31.82198 444.000
31.84192 524.000
31.86187 554.000
31.88182 631.000
31.90176 663.000
31.92171 733.000
31.94166 680.000
31.96160 638.000
31.98155 650.000
32.00150 608.000
32.02145 437.000
32.04139 427.000
32.06134 391.000
32.08129 355.000
32.10123 353.000
32.12118 300.000
32.14113 325.000
32.16107 294.000
32.18102 356.000
32.20097 302.000
32.22092 282.000
32.24086 318.000
32.26081 294.000
32.28076 325.000
32.30070 295.000
32.32065 302.000
32.34060 311.000
32.36054 311.000
32.38049 310.000
32.40044 284.000
32.42039 330.000
32.44033 312.000
32.46028 303.000
32.48023 296.000
32.50017 315.000
32.52012 319.000
32.54007 365.000
32.56001 301.000
32.57996 333.000
32.59991 290.000
32.61985 298.000
32.63980 297.000
32.65975 304.000
32.67970 317.000
32.69964 294.000
32.71959 307.000
32.73954 305.000
32.75948 324.000
32.77943 297.000
32.79938 292.000
32.81932 321.000
32.83927 333.000
32.85922 330.000
32.87917 316.000
32.89911 298.000
32.91906 341.000
32.93901 324.000
32.95895 302.000
32.97890 296.000
32.99885 315.000
33.01879 283.000
33.03874 289.000
33.05869 317.000
33.07863 308.000
33.09858 317.000
33.11853 330.000
33.13848 328.000
33.15842 308.000
33.17837 308.000
33.19832 348.000
33.21826 330.000
33.23821 325.000
33.25816 320.000
33.27810 342.000
33.29805 326.000
33.31800 269.000
33.33795 293.000
33.35789 296.000
33.37784 281.000
33.39779 277.000
33.41773 310.000
33.43768 324.000
33.45763 295.000
33.47757 309.000
33.49752 340.000
33.51747 313.000
33.53741 316.000
33.55736 323.000
33.57731 345.000
33.59726 326.000
33.61720 301.000
33.63715 297.000
33.65710 347.000
33.67704 294.000
33.69699 344.000
33.71694 305.000
33.73688 338.000
33.75683 294.000
33.77678 319.000
33.79673 307.000
33.81667 324.000
33.83662 330.000
33.85657 328.000
33.87651 339.000
33.89646 370.000
33.91641 348.000
33.93635 345.000
33.95630 319.000
33.97625 374.000
33.99620 362.000
34.01614 341.000
34.03609 365.000
34.05604 359.000
34.07598 377.000
34.09593 394.000
34.11588 369.000
34.13582 368.000
34.15577 396.000
34.17572 368.000
34.19566 419.000
34.21561 426.000
34.23556 402.000
34.25551 441.000
34.27545 445.000
34.29540 479.000
34.31535 489.000
34.33529 484.000
34.35524 503.000
34.37519 491.000
34.39513 482.000
34.41508 507.000
34.43503 478.000
34.45498 532.000
34.47492 484.000
34.49487 597.000
34.51482 552.000
34.53476 599.000
34.55471 543.000
34.57466 560.000
34.59460 620.000
34.61455 623.000
34.63450 642.000
34.65444 632.000
34.67439 606.000
34.69434 633.000
34.71429 617.000
34.73423 591.000
34.75418 581.000
34.77413 539.000
34.79407 537.000
34.81402 517.000
34.83397 467.000
34.85391 421.000
34.87386 409.000
34.89381 370.000
34.91376 391.000
34.93370 353.000
34.95365 364.000
34.97360 324.000
34.99354 341.000
35.01349 364.000
35.03344 379.000
35.05338 374.000
35.07333 319.000
35.09328 358.000
35.11322 374.000
35.13317 357.000
35.15312 376.000
35.17307 335.000
35.19301 312.000
35.21296 362.000
35.23291 360.000
35.25285 367.000
35.27280 382.000
35.29275 380.000
35.31269 386.000
35.33264 355.000
35.35259 392.000
35.37254 375.000
35.39248 384.000
35.41243 367.000
35.43238 401.000
35.45232 420.000
35.47227 422.000
35.49222 414.000
35.51216 401.000
35.53211 374.000
35.55206 408.000
35.57201 415.000
35.59195 477.000
35.61190 501.000
35.63185 505.000
35.65179 556.000
35.67174 638.000
35.69169 669.000
35.71163 677.000
35.73158 604.000
35.75153 650.000
35.77147 710.000
35.79142 660.000
35.81137 568.000
35.83132 556.000
35.85126 513.000
35.87121 484.000
35.89116 436.000
35.91110 427.000
35.93105 392.000
35.95100 331.000
35.97094 338.000
35.99089 332.000
36.01084 320.000
36.03079 345.000
36.05073 397.000
36.07068 370.000
36.09063 377.000
36.11057 339.000
36.13052 348.000
36.15047 352.000
36.17041 360.000
36.19036 388.000
36.21031 383.000
36.23025 393.000
36.25020 347.000
36.27015 373.000
36.29010 378.000
36.31004 376.000
36.32999 384.000
36.34994 378.000
36.36988 376.000
36.38983 381.000
36.40978 389.000
36.42972 397.000
36.44967 343.000
36.46962 344.000
36.48957 362.000
36.50951 437.000
36.52946 392.000
36.54941 432.000
36.56935 462.000
36.58930 481.000
36.60925 433.000
36.62919 486.000
36.64914 467.000
36.66909 551.000
36.68903 510.000
36.70898 616.000
36.72893 612.000
36.74888 701.000
36.76882 756.000
36.78877 835.000
36.80872 1012.000
36.82866 1242.000
36.84861 1580.000
36.86856 2017.000
36.88850 2669.000
36.90845 3435.000
36.92840 4191.000
36.94835 4945.000
36.96829 5139.000
36.98824 5250.000
37.00819 5037.000
37.02813 4802.000
37.04808 4297.000
37.06803 3752.000
37.08797 3272.000
37.10792 2697.000
37.12787 2185.000
37.14781 1597.000
37.16776 1282.000
37.18771 975.000
37.20766 793.000
37.22760 611.000
37.24755 548.000
37.26750 505.000
37.28744 445.000
37.30739 414.000
37.32734 414.000
37.34728 388.000
37.36723 405.000
37.38718 382.000
37.40713 375.000
37.42707 400.000
37.44702 358.000
37.46697 372.000
37.48691 359.000
37.50686 343.000
37.52681 355.000
37.54675 336.000
37.56670 380.000
37.58665 348.000
37.60660 353.000
37.62654 343.000
37.64649 348.000
37.66644 378.000
37.68638 343.000
37.70633 362.000
37.72628 339.000
37.74622 337.000
37.76617 395.000
37.78612 327.000
37.80606 345.000
37.82601 354.000
37.84596 339.000
37.86591 318.000
37.88585 340.000
37.90580 357.000
37.92575 368.000
37.94569 342.000
37.96564 326.000
37.98559 367.000
38.00553 373.000
38.02548 354.000
38.04543 330.000
38.06538 342.000
38.08532 349.000
38.10527 329.000
38.12522 330.000
38.14516 333.000
38.16511 318.000
38.18506 347.000
38.20500 365.000
38.22495 350.000
38.24490 320.000
38.26484 313.000
38.28479 291.000
38.30474 292.000
38.32469 331.000
38.34463 326.000
38.36458 363.000
38.38453 361.000
38.40447 359.000
38.42442 332.000
38.44437 345.000
38.46431 384.000
38.48426 355.000
38.50421 344.000
38.52416 395.000
38.54410 413.000
38.56405 397.000
38.58400 353.000
38.60394 394.000
38.62389 371.000
38.64384 423.000
38.66378 418.000
38.68373 407.000
38.70368 375.000
38.72362 393.000
38.74357 391.000
38.76352 397.000
38.78347 368.000
38.80341 381.000
38.82336 371.000
38.84331 382.000
38.86325 350.000
38.88320 368.000
38.90315 368.000
38.92309 372.000
38.94304 401.000
38.96299 379.000
38.98294 359.000
39.00288 380.000
39.02283 373.000
39.04278 406.000
39.06272 415.000
39.08267 379.000
39.10262 448.000
39.12256 490.000
39.14251 504.000
39.16246 519.000
39.18241 632.000
39.20235 741.000
39.22230 810.000
39.24225 874.000
39.26219 940.000
39.28214 963.000
39.30209 1047.000
39.32203 964.000
39.34198 980.000
39.36193 942.000
39.38187 920.000
39.40182 810.000
39.42177 714.000
39.44172 638.000
39.46166 565.000
39.48161 557.000
39.50156 505.000
39.52150 432.000
39.54145 429.000
39.56140 411.000
39.58134 391.000
39.60129 364.000
39.62124 357.000
39.64119 345.000
39.66113 383.000
39.68108 310.000
39.70103 347.000
39.72097 359.000
39.74092 343.000
39.76087 357.000
39.78081 335.000
39.80076 351.000
39.82071 302.000
39.84065 306.000
39.86060 335.000
39.88055 338.000
39.90050 317.000
39.92044 357.000
39.94039 312.000
39.96034 312.000
39.98028 307.000
40.00023 357.000
40.02018 330.000
40.04012 318.000
40.06007 331.000
40.08002 319.000
40.09997 327.000
40.11991 349.000
40.13986 316.000
40.15981 316.000
40.17975 330.000
40.19970 321.000
40.21965 306.000
40.23959 292.000
40.25954 310.000
40.27949 313.000
40.29943 319.000
40.31938 325.000
40.33933 302.000
40.35928 326.000
40.37922 296.000
40.39917 281.000
40.41912 320.000
40.43906 308.000
40.45901 291.000
40.47896 305.000
40.49890 291.000
40.51885 298.000
40.53880 300.000
40.55875 314.000
40.57869 302.000
40.59864 297.000
40.61859 319.000
40.63853 296.000
40.65848 305.000
40.67843 319.000
40.69837 332.000
40.71832 293.000
40.73827 295.000
40.75822 315.000
40.77816 279.000
40.79811 298.000
40.81806 341.000
40.83800 324.000
40.85795 293.000
40.87790 323.000
40.89784 296.000
40.91779 309.000
40.93774 288.000
40.95768 312.000
40.97763 289.000
40.99758 322.000
41.01753 311.000
41.03747 312.000
41.05742 330.000
41.07737 310.000
41.09731 362.000
41.11726 334.000
41.13721 344.000
41.15715 344.000
41.17710 309.000
41.19705 318.000
41.21700 322.000
41.23694 333.000
41.25689 295.000
41.27684 316.000
41.29678 347.000
41.31673 293.000
41.33668 348.000
41.35662 358.000
41.37657 311.000
41.39652 338.000
41.41646 313.000
41.43641 342.000
41.45636 308.000
41.47631 283.000
41.49625 324.000
41.51620 329.000
41.53615 343.000
41.55609 304.000
41.57604 316.000
41.59599 290.000
41.61593 336.000
41.63588 332.000
41.65583 317.000
41.67578 312.000
41.69572 326.000
41.71567 321.000
41.73562 314.000
41.75556 346.000
41.77551 332.000
41.79546 349.000
41.81540 292.000
41.83535 305.000
41.85530 347.000
41.87524 308.000
41.89519 327.000
41.91514 320.000
41.93509 318.000
41.95503 342.000
41.97498 309.000
41.99493 296.000
42.01487 326.000
42.03482 365.000
42.05477 312.000
42.07471 334.000
42.09466 331.000
42.11461 338.000
42.13456 369.000
42.15450 318.000
42.17445 342.000
42.19440 354.000
42.21434 330.000
42.23429 379.000
42.25424 351.000
42.27418 336.000
42.29413 338.000
42.31408 345.000
42.33403 403.000
42.35397 365.000
42.37392 406.000
42.39387 390.000
42.41381 370.000
42.43376 401.000
42.45371 404.000
42.47365 405.000
42.49360 421.000
42.51355 464.000
42.53349 436.000
42.55344 492.000
42.57339 519.000
42.59334 505.000
42.61328 571.000
42.63323 538.000
42.65318 624.000
42.67312 692.000
42.69307 756.000
42.71302 806.000
42.73296 897.000
42.75291 1088.000
42.77286 1180.000
42.79281 1471.000
42.81275 1671.000
42.83270 2173.000
42.85265 2557.000
42.87259 3064.000
42.89254 3710.000
42.91249 4344.000
42.93243 4883.000
42.95238 5510.000
42.97233 5851.000
42.99227 6146.000
43.01222 6490.000
43.03217 6167.000
43.05212 5794.000
43.07206 5553.000
43.09201 4761.000
43.11196 4277.000
43.13190 3857.000
43.15185 3124.000
43.17180 2661.000
43.19174 2130.000
43.21169 1729.000
43.23164 1433.000
43.25159 1112.000
43.27153 909.000
43.29148 862.000
43.31143 782.000
43.33137 751.000
43.35132 677.000
43.37127 740.000
43.39121 708.000
43.41116 721.000
43.43111 660.000
43.45105 686.000
43.47100 598.000
43.49095 632.000
43.51090 522.000
43.53084 553.000
43.55079 507.000
43.57074 499.000
43.59068 490.000
43.61063 426.000
43.63058 429.000
43.65052 431.000
43.67047 389.000
43.69042 382.000
43.71037 374.000
43.73031 347.000
43.75026 349.000
43.77021 355.000
43.79015 354.000
43.81010 344.000
43.83005 353.000
43.84999 335.000
43.86994 327.000
43.88989 354.000
43.90984 343.000
43.92978 328.000
43.94973 392.000
43.96968 315.000
43.98962 314.000
44.00957 344.000
44.02952 326.000
44.04946 355.000
44.06941 290.000
44.08936 346.000
44.10930 327.000
44.12925 337.000
44.14920 355.000
44.16915 302.000
44.18909 300.000
44.20904 339.000
44.22899 350.000
44.24893 336.000
44.26888 332.000
44.28883 323.000
44.30877 347.000
44.32872 286.000
44.34867 309.000
44.36862 326.000
44.38856 334.000
44.40851 361.000
44.42846 328.000
44.44840 322.000
44.46835 324.000
44.48830 304.000
44.50824 335.000
44.52819 311.000
44.54814 318.000
44.56808 315.000
44.58803 316.000
44.60798 328.000
44.62793 321.000
44.64787 321.000
44.66782 327.000
44.68777 313.000
44.70771 309.000
44.72766 331.000
44.74761 319.000
44.76755 312.000
44.78750 316.000
44.80745 308.000
44.82740 330.000
44.84734 295.000
44.86729 353.000
44.88724 321.000
44.90718 327.000
44.92713 346.000
44.94708 313.000
44.96702 335.000
44.98697 299.000
45.00692 329.000
45.02686 299.000
45.04681 299.000
45.06676 325.000
45.08671 321.000
45.10665 298.000
45.12660 298.000
45.14655 306.000
45.16649 335.000
45.18644 319.000
45.20639 319.000
45.22633 311.000
45.24628 299.000
45.26623 305.000
45.28618 329.000
45.30612 326.000
45.32607 285.000
45.34602 318.000
45.36596 311.000
45.38591 330.000
45.40586 297.000
45.42580 342.000
45.44575 321.000
45.46570 337.000
45.48565 312.000
45.50559 323.000
45.52554 322.000
45.54549 293.000
45.56543 294.000
45.58538 335.000
45.60533 304.000
45.62527 310.000
45.64522 332.000
45.66517 303.000
45.68511 322.000
45.70506 300.000
45.72501 308.000
45.74496 317.000
45.76490 295.000
45.78485 296.000
45.80480 300.000
45.82474 318.000
45.84469 273.000
45.86464 300.000
45.88458 310.000
45.90453 294.000
45.92448 314.000
45.94443 305.000
45.96437 300.000
45.98432 265.000
46.00427 271.000
46.02421 292.000
46.04416 303.000
46.06411 269.000
46.08405 315.000
46.10400 288.000
46.12395 304.000
46.14389 306.000
46.16384 304.000
46.18379 311.000
46.20374 284.000
46.22368 294.000
46.24363 294.000
46.26358 296.000
46.28352 308.000
46.30347 293.000
46.32342 299.000
46.34336 297.000
46.36331 255.000
46.38326 294.000
46.40321 334.000
46.42315 305.000
46.44310 321.000
46.46305 286.000
46.48299 277.000
46.50294 268.000
46.52289 292.000
46.54283 292.000
46.56278 280.000
46.58273 309.000
46.60267 294.000
46.62262 323.000
46.64257 288.000
46.66252 296.000
46.68246 299.000
46.70241 313.000
46.72236 278.000
46.74230 298.000
46.76225 314.000
46.78220 294.000
46.80214 304.000
46.82209 261.000
46.84204 302.000
46.86199 299.000
46.88193 279.000
46.90188 292.000
46.92183 306.000
46.94177 278.000
46.96172 307.000
46.98167 302.000
47.00161 293.000
47.02156 277.000
47.04151 296.000
47.06146 268.000
47.08140 289.000
47.10135 282.000
47.12130 271.000
47.14124 285.000
47.16119 287.000
47.18114 312.000
47.20108 281.000
47.22103 285.000
47.24098 308.000
47.26092 297.000
47.28087 305.000
47.30082 289.000
47.32077 275.000
47.34071 295.000
47.36066 257.000
47.38061 261.000
47.40055 287.000
47.42050 305.000
47.44045 306.000
47.46039 313.000
47.48034 311.000
47.50029 293.000
47.52024 274.000
47.54018 284.000
47.56013 332.000
47.58008 280.000
47.60002 306.000
47.61997 300.000
47.63992 294.000
47.65986 344.000
47.67981 293.000
47.69976 307.000
47.71970 331.000
47.73965 358.000
47.75960 340.000
47.77955 304.000
47.79949 328.000
47.81944 323.000
47.83939 371.000
47.85933 338.000
47.87928 390.000
47.89923 370.000
47.91917 389.000
47.93912 375.000
47.95907 393.000
47.97902 362.000
47.99896 392.000
48.01891 377.000
48.03886 374.000
48.05880 341.000
48.07875 329.000
48.09870 344.000
48.11864 346.000
48.13859 348.000
48.15854 372.000
48.17848 340.000
48.19843 323.000
48.21838 346.000
48.23833 310.000
48.25827 317.000
48.27822 361.000
48.29817 357.000
48.31811 334.000
48.33806 347.000
48.35801 358.000
48.37795 367.000
48.39790 406.000
48.41785 389.000
48.43780 336.000
48.45774 380.000
48.47769 441.000
48.49764 418.000
48.51758 481.000
48.53753 449.000
48.55748 501.000
48.57742 539.000
48.59737 627.000
48.61732 666.000
48.63726 792.000
48.65721 834.000
48.67716 860.000
48.69711 956.000
48.71705 953.000
48.73700 950.000
48.75695 877.000
48.77689 845.000
48.79684 805.000
48.81679 768.000
48.83673 775.000
48.85668 673.000
48.87663 666.000
48.89658 585.000
48.91652 574.000
48.93647 479.000
48.95642 491.000
48.97636 468.000
48.99631 412.000
49.01626 439.000
49.03620 387.000
49.05615 366.000
49.07610 364.000
49.09605 354.000
49.11599 358.000
49.13594 374.000
49.15589 339.000
49.17583 319.000
49.19578 346.000
49.21573 331.000
49.23567 351.000
49.25562 367.000
49.27557 305.000
49.29551 334.000
49.31546 319.000
49.33541 361.000
49.35536 322.000
49.37530 334.000
49.39525 356.000
49.41520 334.000
49.43514 317.000
49.45509 380.000
49.47504 323.000
49.49498 344.000
49.51493 318.000
49.53488 348.000
49.55483 323.000
49.57477 279.000
49.59472 333.000
49.61467 292.000
49.63461 317.000
49.65456 333.000
49.67451 270.000
49.69445 306.000
49.71440 310.000
49.73435 331.000
49.75429 293.000
49.77424 308.000
49.79419 304.000
49.81414 311.000
49.83408 308.000
49.85403 327.000
49.87398 303.000
49.89392 315.000
49.91387 333.000
49.93382 281.000
49.95376 329.000
49.97371 282.000
49.99366 322.000
50.01361 268.000
50.03355 290.000
50.05350 289.000
50.07345 295.000
50.09339 279.000
50.11334 297.000
50.13329 251.000
50.15323 300.000
50.17318 289.000
50.19313 300.000
50.21307 326.000
50.23302 297.000
50.25297 290.000
50.27292 262.000
50.29286 290.000
50.31281 300.000
50.33276 260.000
50.35270 290.000
50.37265 288.000
50.39260 271.000
50.41254 290.000
50.43249 299.000
50.45244 296.000
50.47239 290.000
50.49233 260.000
50.51228 284.000
50.53223 295.000
50.55217 287.000
50.57212 270.000
50.59207 289.000
50.61201 312.000
50.63196 278.000
50.65191 280.000
50.67186 269.000
50.69180 308.000
50.71175 259.000
50.73170 317.000
50.75164 307.000
50.77159 258.000
50.79154 277.000
50.81148 276.000
50.83143 296.000
50.85138 270.000
50.87132 283.000
50.89127 289.000
50.91122 296.000
50.93117 296.000
50.95111 287.000
50.97106 289.000
50.99101 313.000
51.01095 312.000
51.03090 315.000
51.05085 287.000
51.07079 317.000
51.09074 303.000
51.11069 281.000
51.13064 308.000
51.15058 308.000
51.17053 308.000
51.19048 298.000
51.21042 326.000
51.23037 259.000
51.25032 291.000
51.27026 303.000
51.29021 314.000
51.31016 296.000
51.33010 286.000
51.35005 297.000
51.37000 314.000
51.38995 292.000
51.40989 281.000
51.42984 293.000
51.44979 270.000
51.46973 267.000
51.48968 271.000
51.50963 302.000
51.52957 281.000
51.54952 284.000
51.56947 289.000
51.58942 274.000
51.60936 260.000
51.62931 294.000
51.64926 322.000
51.66920 302.000
51.68915 278.000
51.70910 308.000
51.72904 308.000
51.74899 301.000
51.76894 328.000
51.78888 332.000
51.80883 333.000
51.82878 352.000
51.84873 371.000
51.86867 342.000
51.88862 373.000
51.90857 380.000
51.92851 385.000
51.94846 377.000
51.96841 428.000
51.98835 407.000
52.00830 409.000
52.02825 403.000
52.04820 364.000
52.06814 374.000
52.08809 376.000
52.10804 348.000
52.12798 344.000
52.14793 329.000
52.16788 318.000
52.18782 335.000
52.20777 335.000
52.22772 307.000
52.24767 313.000
52.26761 308.000
52.28756 321.000
52.30751 327.000
52.32745 342.000
52.34740 297.000
52.36735 296.000
52.38729 306.000
52.40724 314.000
52.42719 293.000
52.44713 302.000
52.46708 283.000
52.48703 263.000
52.50698 293.000
52.52692 311.000
52.54687 288.000
52.56682 297.000
52.58676 289.000
52.60671 302.000
52.62666 268.000
52.64660 293.000
52.66655 283.000
52.68650 254.000
52.70645 300.000
52.72639 276.000
52.74634 269.000
52.76629 258.000
52.78623 278.000
52.80618 263.000
52.82613 291.000
52.84607 299.000
52.86602 253.000
52.88597 283.000
52.90591 296.000
52.92586 291.000
52.94581 298.000
52.96576 272.000
52.98570 300.000
53.00565 260.000
53.02560 296.000
53.04554 298.000
53.06549 281.000
53.08544 286.000
53.10538 296.000
53.12533 270.000
53.14528 286.000
53.16523 267.000
53.18517 297.000
53.20512 278.000
53.22507 300.000
53.24501 264.000
53.26496 304.000
53.28491 316.000
53.30485 310.000
53.32480 288.000
53.34475 313.000
53.36469 305.000
53.38464 285.000
53.40459 325.000
53.42454 287.000
53.44448 264.000
53.46443 297.000
53.48438 272.000
53.50432 271.000
53.52427 299.000
53.54422 310.000
53.56416 272.000
53.58411 255.000
53.60406 290.000
53.62401 311.000
53.64395 301.000
53.66390 267.000
53.68385 289.000
53.70379 291.000
53.72374 264.000
53.74369 316.000
53.76363 273.000
53.78358 309.000
53.80353 309.000
53.82348 277.000
53.84342 281.000
53.86337 294.000
53.88332 302.000
53.90326 306.000
53.92321 317.000
53.94316 269.000
53.96310 287.000
53.98305 312.000
54.00300 289.000
54.02294 301.000
54.04289 272.000
54.06284 299.000
54.08279 272.000
54.10273 276.000
54.12268 276.000
54.14263 305.000
54.16257 311.000
54.18252 291.000
54.20247 275.000
54.22241 281.000
54.24236 354.000
54.26231 286.000
54.28226 275.000
54.30220 290.000
54.32215 280.000
54.34210 282.000
54.36204 291.000
54.38199 312.000
54.40194 307.000
54.42188 280.000
54.44183 267.000
54.46178 335.000
54.48172 306.000
54.50167 316.000
54.52162 302.000
54.54157 290.000
54.56151 280.000
54.58146 262.000
54.60141 265.000
54.62135 287.000
54.64130 280.000
54.66125 298.000
54.68119 275.000
54.70114 338.000
54.72109 286.000
54.74104 301.000
54.76098 287.000
54.78093 279.000
54.80088 310.000
54.82082 312.000
54.84077 289.000
54.86072 296.000
54.88066 274.000
54.90061 288.000
54.92056 292.000
54.94050 272.000
54.96045 289.000
54.98040 299.000
55.00035 283.000
55.02029 293.000
55.04024 278.000
55.06019 273.000
55.08013 274.000
55.10008 286.000
55.12003 295.000
55.13997 293.000
55.15992 279.000
55.17987 286.000
55.19982 319.000
55.21976 299.000
55.23971 296.000
55.25966 307.000
55.27960 289.000
55.29955 257.000
55.31950 301.000
55.33944 276.000
55.35939 299.000
55.37934 284.000
55.39929 300.000
55.41923 293.000
55.43918 296.000
55.45913 281.000
55.47907 296.000
55.49902 318.000
55.51897 263.000
55.53891 276.000
55.55886 281.000
55.57881 278.000
55.59875 315.000
55.61870 277.000
55.63865 299.000
55.65860 267.000
55.67854 287.000
55.69849 263.000
55.71844 276.000
55.73838 300.000
55.75833 281.000
55.77828 275.000
55.79822 319.000
55.81817 281.000
55.83812 281.000
55.85807 268.000
55.87801 295.000
55.89796 261.000
55.91791 316.000
55.93785 290.000
55.95780 285.000
55.97775 291.000
55.99769 268.000
56.01764 278.000
56.03759 264.000
56.05753 293.000
56.07748 291.000
56.09743 318.000
56.11738 286.000
56.13732 287.000
56.15727 317.000
56.17722 230.000
56.19716 304.000
56.21711 302.000
56.23706 279.000
56.25700 313.000
56.27695 299.000
56.29690 317.000
56.31685 291.000
56.33679 319.000
56.35674 325.000
56.37669 271.000
56.39663 308.000
56.41658 280.000
56.43653 285.000
56.45647 292.000
56.47642 292.000
56.49637 285.000
56.51631 269.000
56.53626 312.000
56.55621 250.000
56.57616 304.000
56.59610 308.000
56.61605 278.000
56.63600 295.000
56.65594 294.000
56.67589 285.000
56.69584 324.000
56.71578 279.000
56.73573 286.000
56.75568 283.000
56.77563 307.000
56.79557 287.000
56.81552 299.000
56.83547 296.000
56.85541 307.000
56.87536 304.000
56.89531 282.000
56.91525 275.000
56.93520 285.000
56.95515 269.000
56.97510 292.000
56.99504 257.000
57.01499 278.000
57.03494 286.000
57.05488 319.000
57.07483 301.000
57.09478 294.000
57.11472 306.000
57.13467 278.000
57.15462 309.000
57.17456 312.000
57.19451 331.000
57.21446 319.000
57.23441 291.000
57.25435 311.000
57.27430 289.000
57.29425 297.000
57.31419 310.000
57.33414 310.000
57.35409 298.000
57.37403 275.000
57.39398 274.000
57.41393 266.000
57.43388 277.000
57.45382 273.000
57.47377 278.000
57.49372 300.000
57.51366 306.000
57.53361 256.000
57.55356 257.000
57.57350 252.000
57.59345 282.000
57.61340 317.000
57.63334 279.000
57.65329 294.000
57.67324 307.000
57.69319 301.000
57.71313 275.000
57.73308 270.000
57.75303 298.000
57.77297 272.000
57.79292 305.000
57.81287 289.000
57.83281 273.000
57.85276 311.000
57.87271 309.000
57.89266 270.000
57.91260 313.000
57.93255 296.000
57.95250 292.000
57.97244 279.000
57.99239 305.000
58.01234 283.000
58.03228 321.000
58.05223 292.000
58.07218 289.000
58.09212 286.000
58.11207 285.000
58.13202 308.000
58.15197 314.000
58.17191 309.000
58.19186 292.000
58.21181 314.000
58.23175 319.000
58.25170 302.000
58.27165 311.000
58.29159 291.000
58.31154 313.000
58.33149 297.000
58.35144 308.000
58.37138 311.000
58.39133 294.000
58.41128 269.000
58.43122 291.000
58.45117 277.000
58.47112 276.000
58.49106 309.000
58.51101 311.000
58.53096 295.000
58.55090 298.000
58.57085 293.000
58.59080 305.000
58.61075 264.000
58.63069 290.000
58.65064 301.000
58.67059 306.000
58.69053 256.000
58.71048 278.000
58.73043 254.000
58.75037 305.000
58.77032 313.000
58.79027 303.000
58.81022 257.000
58.83016 289.000
58.85011 293.000
58.87006 280.000
58.89000 308.000
58.90995 256.000
58.92990 272.000
58.94984 303.000
58.96979 281.000
58.98974 289.000
59.00969 279.000
59.02963 280.000
59.04958 272.000
59.06953 274.000
59.08947 326.000
59.10942 273.000
59.12937 265.000
59.14931 263.000
59.16926 319.000
59.18921 299.000
59.20915 289.000
59.22910 314.000
59.24905 321.000
59.26900 284.000
59.28894 302.000
59.30889 296.000
59.32884 279.000
59.34878 298.000
59.36873 263.000
59.38868 282.000
59.40862 288.000
59.42857 311.000
59.44852 318.000
59.46847 285.000
59.48841 264.000
59.50836 305.000
59.52831 269.000
59.54825 302.000
59.56820 276.000
59.58815 285.000
59.60809 311.000
59.62804 285.000
59.64799 264.000
59.66793 304.000
59.68788 336.000
59.70783 285.000
59.72778 279.000
59.74772 306.000
59.76767 300.000
59.78762 302.000
59.80756 322.000
59.82751 327.000
59.84746 292.000
59.86740 298.000
59.88735 315.000
59.90730 314.000
59.92725 304.000
59.94719 308.000
59.96714 294.000
59.98709 297.000
60.00703 284.000
60.02698 344.000
60.04693 322.000
60.06687 292.000
60.08682 288.000
60.10677 303.000
60.12671 296.000
60.14666 322.000
60.16661 301.000
60.18656 265.000
60.20650 292.000
60.22645 307.000
60.24640 292.000
60.26634 310.000
60.28629 281.000
60.30624 312.000
60.32618 325.000
60.34613 262.000
60.36608 311.000
60.38603 309.000
60.40597 297.000
60.42592 301.000
60.44587 293.000
60.46581 293.000
60.48576 305.000
60.50571 273.000
60.52565 297.000
60.54560 337.000
60.56555 336.000
60.58550 326.000
60.60544 291.000
60.62539 294.000
60.64534 304.000
60.66528 304.000
60.68523 305.000
60.70518 310.000
60.72512 311.000
60.74507 298.000
60.76502 336.000
60.78496 318.000
60.80491 300.000
60.82486 305.000
60.84481 309.000
60.86475 309.000
60.88470 331.000
60.90465 303.000
60.92459 292.000
60.94454 310.000
60.96449 317.000
60.98443 317.000
61.00438 295.000
61.02433 312.000
61.04428 314.000
61.06422 316.000
61.08417 322.000
61.10412 297.000
61.12406 320.000
61.14401 315.000
61.16396 326.000
61.18390 306.000
61.20385 317.000
61.22380 307.000
61.24374 328.000
61.26369 331.000
61.28364 291.000
61.30359 360.000
61.32353 301.000
61.34348 339.000
61.36343 352.000
61.38337 351.000
61.40332 363.000
61.42327 362.000
61.44321 354.000
61.46316 347.000
61.48311 341.000
61.50306 322.000
61.52300 353.000
61.54295 341.000
61.56290 377.000
61.58284 357.000
61.60279 331.000
61.62274 355.000
61.64268 352.000
61.66263 349.000
61.68258 425.000
61.70252 377.000
61.72247 415.000
61.74242 400.000
61.76237 385.000
61.78231 402.000
61.80226 394.000
61.82221 423.000
61.84215 477.000
61.86210 456.000
61.88205 515.000
61.90199 510.000
61.92194 564.000
61.94189 539.000
61.96184 625.000
61.98178 662.000
62.00173 629.000
62.02168 625.000
62.04162 610.000
62.06157 661.000
62.08152 613.000
62.10146 631.000
62.12141 637.000
62.14136 597.000
62.16131 661.000
62.18125 666.000
62.20120 701.000
62.22115 754.000
62.24109 696.000
62.26104 793.000
62.28099 946.000
62.30093 935.000
62.32088 1150.000
62.34083 1260.000
62.36077 1454.000
62.38072 1606.000
62.40067 1978.000
62.42062 2168.000
62.44056 2371.000
62.46051 2377.000
62.48046 2559.000
62.50040 2691.000
62.52035 2737.000
62.54030 2694.000
62.56024 2669.000
62.58019 2701.000
62.60014 2584.000
62.62009 2482.000
62.64003 2368.000
62.65998 2118.000
62.67993 1953.000
62.69987 1763.000
62.71982 1638.000
62.73977 1386.000
62.75971 1329.000
62.77966 1146.000
62.79961 1077.000
62.81955 888.000
62.83950 794.000
62.85945 716.000
62.87940 587.000
62.89934 548.000
62.91929 475.000
62.93924 526.000
62.95918 486.000
62.97913 371.000
62.99908 395.000
63.01902 375.000
63.03897 371.000
63.05892 382.000
63.07887 342.000
63.09881 324.000
63.11876 365.000
63.13871 362.000
63.15865 338.000
63.17860 363.000
63.19855 321.000
63.21849 379.000
63.23844 308.000
63.25839 329.000
63.27833 358.000
63.29828 306.000
63.31823 364.000
63.33818 360.000
63.35812 346.000
63.37807 312.000
63.39802 322.000
63.41796 325.000
63.43791 360.000
63.45786 340.000
63.47780 314.000
63.49775 313.000
63.51770 335.000
63.53765 333.000
63.55759 333.000
63.57754 309.000
63.59749 311.000
63.61743 291.000
63.63738 334.000
63.65733 343.000
63.67727 329.000
63.69722 302.000
63.71717 298.000
63.73712 291.000
63.75706 335.000
63.77701 313.000
63.79696 309.000
63.81690 314.000
63.83685 307.000
63.85680 316.000
63.87674 296.000
63.89669 319.000
63.91664 342.000
63.93658 331.000
63.95653 343.000
63.97648 382.000
63.99643 362.000
64.01637 349.000
64.03632 374.000
64.05627 337.000
64.07621 337.000
64.09616 345.000
64.11611 407.000
64.13605 372.000
64.15600 414.000
64.17595 405.000
64.19590 441.000
64.21584 445.000
64.23579 468.000
64.25574 535.000
64.27568 537.000
64.29563 549.000
64.31558 525.000
64.33552 533.000
64.35547 533.000
64.37542 457.000
64.39536 500.000
64.41531 437.000
64.43526 484.000
64.45521 496.000
64.47515 477.000
64.49510 466.000
64.51505 456.000
64.53499 477.000
64.55494 388.000
64.57489 366.000
64.59483 423.000
64.61478 334.000
64.63473 368.000
64.65468 331.000
64.67462 348.000
64.69457 330.000
64.71452 346.000
64.73446 327.000
64.75441 324.000
64.77436 310.000
64.79430 344.000
64.81425 304.000
64.83420 300.000
64.85414 331.000
64.87409 308.000
64.89404 318.000
64.91399 312.000
64.93393 285.000
64.95388 342.000
64.97383 294.000
64.99377 319.000
65.01372 302.000
65.03367 316.000
65.05361 316.000
65.07356 285.000
65.09351 327.000
65.11346 339.000
65.13340 303.000
65.15335 287.000
65.17330 294.000
65.19324 323.000
65.21319 361.000
65.23314 324.000
65.25308 322.000
65.27303 278.000
65.29298 352.000
65.31293 344.000
65.33287 318.000
65.35282 344.000
65.37277 347.000
65.39271 332.000
65.41266 384.000
65.43261 386.000
65.45255 334.000
65.47250 346.000
65.49245 357.000
65.51239 334.000
65.53234 375.000
65.55229 399.000
65.57224 369.000
65.59218 406.000
65.61213 359.000
65.63208 367.000
65.65202 402.000
65.67197 364.000
65.69192 373.000
65.71186 349.000
65.73181 348.000
65.75176 381.000
65.77171 352.000
65.79165 359.000
65.81160 340.000
65.83155 316.000
65.85149 344.000
65.87144 319.000
65.89139 331.000
65.91133 312.000
65.93128 309.000
65.95123 298.000
65.97117 300.000
65.99112 328.000
66.01107 325.000
66.03102 332.000
66.05096 281.000
66.07091 339.000
66.09086 326.000
66.11080 340.000
66.13075 296.000
66.15070 279.000
66.17064 319.000
66.19059 317.000
66.21054 333.000
66.23049 330.000
66.25043 311.000
66.27038 315.000
66.29033 284.000
66.31027 320.000
66.33022 316.000
66.35017 331.000
66.37011 323.000
66.39006 294.000
66.41001 308.000
66.42995 311.000
66.44990 310.000
66.46985 348.000
66.48980 390.000
66.50974 357.000
66.52969 372.000
66.54964 341.000
66.56958 345.000
66.58953 350.000
66.60948 402.000
66.62942 461.000
66.64937 437.000
66.66932 412.000
66.68927 471.000
66.70921 429.000
66.72916 397.000
66.74911 412.000
66.76905 430.000
66.78900 423.000
66.80895 416.000
66.82889 424.000
66.84884 444.000
66.86879 438.000
66.88874 442.000
66.90868 413.000
66.92863 406.000
66.94858 409.000
66.96852 383.000
66.98847 391.000
67.00842 394.000
67.02836 357.000
67.04831 371.000
67.06826 376.000
67.08820 349.000
67.10815 329.000
67.12810 353.000
67.14805 341.000
67.16799 338.000
67.18794 331.000
67.20789 332.000
67.22783 273.000
67.24778 304.000
67.26773 323.000
67.28767 337.000
67.30762 307.000
67.32757 325.000
67.34752 316.000
67.36746 303.000
67.38741 333.000
67.40736 318.000
67.42730 304.000
67.44725 278.000
67.46720 307.000
67.48714 294.000
67.50709 294.000
67.52704 299.000
67.54698 312.000
67.56693 293.000
67.58688 304.000
67.60683 290.000
67.62677 307.000
67.64672 282.000
67.66667 290.000
67.68661 293.000
67.70656 296.000
67.72651 294.000
67.74645 276.000
67.76640 322.000
67.78635 294.000
67.80630 287.000
67.82624 272.000
67.84619 300.000
67.86614 317.000
67.88608 301.000
67.90603 268.000
67.92598 303.000
67.94592 275.000
67.96587 304.000
67.98582 310.000
68.00576 331.000
68.02571 278.000
68.04566 304.000
68.06561 290.000
68.08555 296.000
68.10550 293.000
68.12545 296.000
68.14539 319.000
68.16534 276.000
68.18529 282.000
68.20523 319.000
68.22518 322.000
68.24513 305.000
68.26508 310.000
68.28502 306.000
68.30497 268.000
68.32492 312.000
68.34486 286.000
68.36481 286.000
68.38476 275.000
68.40470 302.000
68.42465 285.000
68.44460 307.000
68.46455 275.000
68.48449 314.000
68.50444 289.000
68.52439 283.000
68.54433 288.000
68.56428 300.000
68.58423 285.000
68.60417 289.000
68.62412 300.000
68.64407 281.000
68.66401 230.000
68.68396 289.000
68.70391 268.000
68.72386 265.000
68.74380 300.000
68.76375 266.000
68.78370 299.000
68.80364 296.000
68.82359 290.000
68.84354 288.000
68.86348 275.000
68.88343 307.000
68.90338 289.000
68.92333 315.000
68.94327 302.000
68.96322 303.000
68.98317 298.000
69.00311 282.000
69.02306 288.000
69.04301 273.000
69.06295 264.000
69.08290 305.000
69.10285 269.000
69.12279 311.000
69.14274 281.000
69.16269 268.000
69.18264 308.000
69.20258 307.000
69.22253 246.000
69.24248 259.000
69.26242 267.000
69.28237 278.000
69.30232 314.000
69.32226 281.000
69.34221 288.000
69.36216 284.000
69.38211 271.000
69.40205 258.000
69.42200 286.000
69.44195 280.000
69.46189 317.000
69.48184 266.000
69.50179 309.000
69.52173 292.000
69.54168 288.000
69.56163 302.000
69.58157 282.000
69.60152 306.000
69.62147 300.000
69.64142 275.000
69.66136 287.000
69.68131 254.000
69.70126 281.000
69.72120 278.000
69.74115 288.000
69.76110 260.000
69.78104 294.000
69.80099 275.000
69.82094 308.000
69.84089 296.000
69.86083 291.000
69.88078 304.000
69.90073 283.000
69.92067 252.000
69.94062 277.000
69.96057 298.000
69.98051 282.000
70.00046 277.000
70.02041 307.000
70.04035 283.000
70.06030 267.000
70.08025 306.000
70.10020 306.000
70.12014 268.000
70.14009 271.000
70.16004 271.000
70.17998 291.000
70.19993 253.000
70.21988 267.000
70.23982 286.000
70.25977 284.000
70.27972 270.000
70.29967 291.000
70.31961 271.000
70.33956 306.000
70.35951 309.000
70.37945 318.000
70.39940 280.000
70.41935 245.000
70.43929 294.000
70.45924 292.000
70.47919 268.000
70.49914 277.000
70.51908 279.000
70.53903 306.000
70.55898 273.000
70.57892 280.000
70.59887 309.000
70.61882 292.000
70.63876 274.000
70.65871 301.000
70.67866 295.000
70.69860 294.000
70.71855 294.000
70.73850 256.000
70.75845 288.000
70.77839 280.000
70.79834 281.000
70.81829 291.000
70.83823 253.000
70.85818 281.000
70.87813 295.000
70.89807 258.000
70.91802 264.000
70.93797 297.000
70.95792 295.000
70.97786 272.000
70.99781 292.000
71.01776 318.000
71.03770 272.000
71.05765 299.000
71.07760 270.000
71.09754 296.000
71.11749 277.000
71.13744 310.000
71.15738 261.000
71.17733 291.000
71.19728 276.000
71.21723 284.000
71.23717 313.000
71.25712 276.000
71.27707 304.000
71.29701 291.000
71.31696 266.000
71.33691 288.000
71.35685 314.000
71.37680 290.000
71.39675 296.000
71.41670 282.000
71.43664 265.000
71.45659 273.000
71.47654 274.000
71.49648 280.000
71.51643 291.000
71.53638 299.000
71.55632 266.000
71.57627 272.000
71.59622 306.000
71.61616 296.000
71.63611 301.000
71.65606 296.000
71.67601 297.000
71.69595 283.000
71.71590 291.000
71.73585 268.000
71.75579 289.000
71.77574 276.000
71.79569 298.000
71.81563 289.000
71.83558 287.000
71.85553 296.000
71.87548 293.000
71.89542 264.000
71.91537 263.000
71.93532 265.000
71.95526 284.000
71.97521 272.000
71.99516 279.000
72.01510 315.000
72.03505 300.000
72.05500 285.000
72.07495 298.000
72.09489 274.000
72.11484 302.000
72.13479 284.000
72.15473 298.000
72.17468 324.000
72.19463 306.000
72.21457 300.000
72.23452 288.000
72.25447 273.000
72.27441 280.000
72.29436 295.000
72.31431 336.000
72.33426 275.000
72.35420 288.000
72.37415 265.000
72.39410 264.000
72.41404 305.000
72.43399 310.000
72.45394 287.000
72.47388 323.000
72.49383 293.000
72.51378 280.000
72.53373 279.000
72.55367 292.000
72.57362 295.000
72.59357 325.000
72.61351 295.000
72.63346 289.000
72.65341 326.000
72.67335 299.000
72.69330 282.000
72.71325 290.000
72.73319 271.000
72.75314 275.000
72.77309 297.000
72.79304 277.000
72.81298 290.000
72.83293 278.000
72.85288 280.000
72.87282 289.000
72.89277 301.000
72.91272 308.000
72.93266 278.000
72.95261 313.000
72.97256 294.000
72.99251 290.000
73.01245 276.000
73.03240 295.000
73.05235 292.000
73.07229 282.000
73.09224 278.000
73.11219 303.000
73.13213 282.000
73.15208 273.000
73.17203 304.000
73.19197 328.000
73.21192 271.000
73.23187 287.000
73.25182 331.000
73.27176 290.000
73.29171 296.000
73.31166 299.000
73.33160 310.000
73.35155 297.000
73.37150 280.000
73.39144 305.000
73.41139 302.000
73.43134 329.000
73.45129 306.000
73.47123 326.000
73.49118 327.000
73.51113 306.000
73.53107 343.000
73.55102 339.000
73.57097 322.000
73.59091 357.000
73.61086 342.000
73.63081 344.000
73.65076 332.000
73.67070 335.000
73.69065 374.000
73.71060 362.000
73.73054 345.000
73.75049 313.000
73.77044 342.000
73.79038 348.000
73.81033 328.000
73.83028 308.000
73.85022 336.000
73.87017 338.000
73.89012 337.000
73.91007 319.000
73.93001 314.000
73.94996 319.000
73.96991 279.000
73.98985 333.000
74.00980 348.000
74.02975 338.000
74.04969 328.000
74.06964 335.000
74.08959 313.000
74.10954 312.000
74.12948 317.000
74.14943 288.000
74.16938 287.000
74.18932 316.000
74.20927 243.000
74.22922 311.000
74.24916 299.000
74.26911 325.000
74.28906 311.000
74.30900 332.000
74.32895 315.000
74.34890 281.000
74.36885 281.000
74.38879 276.000
74.40874 312.000
74.42869 308.000
74.44863 328.000
74.46858 350.000
74.48853 330.000
74.50847 345.000
74.52842 392.000
74.54837 356.000
74.56832 354.000
74.58826 362.000
74.60821 376.000
74.62816 375.000
74.64810 408.000
74.66805 417.000
74.68800 365.000
74.70794 443.000
74.72789 463.000
74.74784 568.000
74.76778 522.000
74.78773 551.000
74.80768 701.000
74.82763 676.000
74.84757 763.000
74.86752 795.000
74.88747 884.000
74.90741 846.000
74.92736 921.000
74.94731 971.000
74.96725 1005.000
74.98720 1100.000
75.00715 1045.000
75.02710 1029.000
75.04704 1092.000
75.06699 1036.000
75.08694 1084.000
75.10688 1021.000
75.12683 1003.000
75.14678 930.000
75.16672 892.000
75.18667 792.000
75.20662 771.000
75.22657 739.000
75.24651 763.000
75.26646 735.000
75.28641 677.000
75.30635 606.000
75.32630 584.000
75.34625 564.000
75.36619 515.000
75.38614 516.000
75.40609 441.000
75.42603 411.000
75.44598 379.000
75.46593 390.000
75.48588 371.000
75.50582 334.000
75.52577 351.000
75.54572 349.000
75.56566 345.000
75.58561 308.000
75.60556 324.000
75.62550 365.000
75.64545 326.000
75.66540 344.000
75.68535 328.000
75.70529 334.000
75.72524 308.000
75.74519 331.000
75.76513 300.000
75.78508 312.000
75.80503 326.000
75.82497 281.000
75.84492 303.000
75.86487 303.000
75.88481 287.000
75.90476 339.000
75.92471 324.000
75.94466 286.000
75.96460 337.000
75.98455 314.000
76.00450 323.000
76.02444 316.000
76.04439 318.000
76.06434 287.000
76.08428 307.000
76.10423 336.000
76.12418 320.000
76.14413 299.000
76.16407 291.000
76.18402 301.000
76.20397 305.000
76.22391 272.000
76.24386 319.000
76.26381 337.000
76.28375 301.000
76.30370 296.000
76.32365 296.000
76.34359 308.000
76.36354 327.000
76.38349 315.000
76.40344 312.000
76.42338 313.000
76.44333 283.000
76.46328 303.000
76.48322 292.000
76.50317 305.000
76.52312 309.000
76.54306 280.000
76.56301 297.000
76.58296 301.000
76.60291 304.000
76.62285 292.000
76.64280 297.000
76.66275 275.000
76.68269 271.000
76.70264 309.000
76.72259 306.000
76.74253 301.000
76.76248 290.000
76.78243 297.000
76.80238 280.000
76.82232 312.000
76.84227 295.000
76.86222 304.000
76.88216 299.000
76.90211 315.000
76.92206 276.000
76.94200 309.000
76.96195 288.000
76.98190 298.000
77.00184 276.000
77.02179 288.000
77.04174 314.000
77.06169 255.000
77.08163 285.000
77.10158 302.000
77.12153 302.000
77.14147 311.000
77.16142 278.000
77.18137 270.000
77.20131 301.000
77.22126 279.000
77.24121 263.000
77.26116 271.000
77.28110 344.000
77.30105 282.000
77.32100 277.000
77.34094 306.000
77.36089 294.000
77.38084 320.000
77.40078 291.000
77.42073 300.000
77.44068 299.000
77.46062 320.000
77.48057 284.000
77.50052 294.000
77.52047 303.000
77.54041 294.000
77.56036 311.000
77.58031 315.000
77.60025 296.000
77.62020 312.000
77.64015 291.000
77.66009 309.000
77.68004 280.000
77.69999 354.000
77.71994 295.000
77.73988 301.000
77.75983 331.000
77.77978 311.000
77.79972 329.000
77.81967 294.000
77.83962 308.000
77.85956 310.000
77.87951 329.000
77.89946 317.000
77.91940 310.000
77.93935 329.000
77.95930 351.000
77.97925 324.000
77.99919 377.000
78.01914 338.000
78.03909 315.000
78.05903 330.000
78.07898 371.000
78.09893 355.000
78.11887 319.000
78.13882 367.000
78.15877 344.000
78.17872 346.000
78.19866 376.000
78.21861 387.000
78.23856 383.000
78.25850 351.000
78.27845 394.000
78.29840 397.000
78.31834 396.000
78.33829 382.000
78.35824 362.000
78.37819 414.000
78.39813 374.000
78.41808 344.000
78.43803 399.000
78.45797 348.000
78.47792 399.000
78.49787 378.000
78.51781 392.000
78.53776 372.000
78.55771 372.000
78.57765 370.000
78.59760 384.000
78.61755 383.000
78.63750 365.000
78.65744 403.000
78.67739 408.000
78.69734 387.000
78.71728 444.000
78.73723 486.000
78.75718 526.000
78.77712 513.000
78.79707 565.000
78.81702 668.000
78.83697 700.000
78.85691 733.000
78.87686 781.000
78.89681 771.000
78.91675 771.000
78.93670 757.000
78.95665 852.000
78.97659 795.000
78.99654 762.000
79.01649 814.000
79.03643 793.000
79.05638 757.000
79.07633 832.000
79.09628 825.000
79.11622 810.000
79.13617 689.000
79.15612 746.000
79.17606 640.000
79.19601 617.000
79.21596 616.000
79.23590 571.000
79.25585 546.000
79.27580 569.000
79.29575 516.000
79.31569 471.000
79.33564 468.000
79.35559 465.000
79.37553 421.000
79.39548 430.000
79.41543 403.000
79.43537 354.000
79.45532 362.000
79.47527 360.000
79.49521 335.000
79.51516 337.000
79.53511 307.000
79.55506 312.000
79.57500 318.000
79.59495 316.000
79.61490 274.000
79.63484 295.000
79.65479 315.000
79.67474 306.000
79.69468 291.000
79.71463 318.000
79.73458 269.000
79.75453 316.000
79.77447 299.000
79.79442 312.000
79.81437 316.000
79.83431 301.000
79.85426 290.000
79.87421 282.000
79.89415 282.000
79.91410 297.000
79.93405 290.000
79.95399 287.000
79.97394 294.000
79.99389 294.000
80.01384 313.000
80.03378 326.000
80.05373 281.000
80.07368 294.000
80.09362 293.000
80.11357 293.000
80.13352 309.000
80.15346 318.000
80.17341 320.000
80.19336 290.000
80.21331 293.000
80.23325 283.000
80.25320 303.000
80.27315 285.000
80.29309 300.000
80.31304 275.000
80.33299 293.000
80.35293 254.000
80.37288 314.000
80.39283 256.000
80.41278 294.000
80.43272 283.000
80.45267 291.000
80.47262 284.000
80.49256 308.000
80.51251 278.000
80.53246 278.000
80.55240 274.000
80.57235 292.000
80.59230 321.000
80.61224 244.000
80.63219 305.000
80.65214 275.000
80.67209 325.000
80.69203 283.000
80.71198 274.000
80.73193 291.000
80.75187 303.000
80.77182 301.000
80.79177 281.000
80.81171 290.000
80.83166 302.000
80.85161 295.000
80.87156 276.000
80.89150 283.000
80.91145 303.000
80.93140 288.000
80.95134 327.000
80.97129 308.000
80.99124 287.000
81.01118 298.000
81.03113 324.000
81.05108 303.000
81.07102 304.000
81.09097 306.000
81.11092 303.000
81.13087 297.000
81.15081 284.000
81.17076 300.000
81.19071 268.000
81.21065 285.000
81.23060 291.000
81.25055 317.000
81.27049 301.000
81.29044 265.000
81.31039 305.000
81.33034 277.000
81.35028 299.000
81.37023 284.000
81.39018 272.000
81.41012 285.000
81.43007 291.000
81.45002 298.000
81.46996 267.000
81.48991 281.000
81.50986 275.000
81.52980 290.000
81.54975 284.000
81.56970 290.000
81.58965 299.000
81.60959 272.000
81.62954 306.000
81.64949 291.000
81.66943 269.000
81.68938 286.000
81.70933 279.000
81.72927 296.000
81.74922 281.000
81.76917 306.000
81.78912 270.000
81.80906 309.000
81.82901 277.000
81.84896 282.000
81.86890 304.000
81.88885 285.000
81.90880 293.000
81.92874 271.000
81.94869 279.000
81.96864 268.000
81.98859 257.000
82.00853 286.000
82.02848 288.000
82.04843 277.000
82.06837 296.000
82.08832 282.000
82.10827 254.000
82.12821 309.000
82.14816 275.000
82.16811 280.000
82.18805 261.000
82.20800 309.000
82.22795 280.000
82.24790 303.000
82.26784 279.000
82.28779 262.000
82.30774 274.000
82.32768 271.000
82.34763 309.000
82.36758 289.000
82.38752 281.000
82.40747 288.000
82.42742 307.000
82.44737 302.000
82.46731 321.000
82.48726 286.000
82.50721 296.000
82.52715 292.000
82.54710 273.000
82.56705 285.000
82.58699 310.000
82.60694 259.000
82.62689 290.000
82.64683 292.000
82.66678 262.000
82.68673 296.000
82.70668 274.000
82.72662 291.000
82.74657 270.000
82.76652 281.000
82.78646 308.000
82.80641 286.000
82.82636 285.000
82.84630 286.000
82.86625 285.000
82.88620 266.000
82.90615 295.000
82.92609 295.000
82.94604 290.000
82.96599 299.000
82.98593 293.000
83.00588 281.000
83.02583 253.000
83.04577 273.000
83.06572 271.000
83.08567 266.000
83.10561 309.000
83.12556 313.000
83.14551 279.000
83.16546 300.000
83.18540 283.000
83.20535 288.000
83.22530 294.000
83.24524 271.000
83.26519 309.000
83.28514 284.000
83.30508 268.000
83.32503 294.000
83.34498 303.000
83.36493 306.000
83.38487 290.000
83.40482 278.000
83.42477 287.000
83.44471 307.000
83.46466 292.000
83.48461 302.000
83.50455 283.000
83.52450 289.000
83.54445 274.000
83.56440 272.000
83.58434 292.000
83.60429 288.000
83.62424 262.000
83.64418 276.000
83.66413 289.000
83.68408 265.000
83.70402 298.000
83.72397 315.000
83.74392 344.000
83.76386 315.000
83.78381 317.000
83.80376 254.000
83.82371 284.000
83.84365 280.000
83.86360 277.000
83.88355 326.000
83.90349 300.000
83.92344 275.000
83.94339 277.000
83.96333 288.000
83.98328 280.000
84.00323 278.000
84.02318 285.000
84.04312 297.000
84.06307 292.000
84.08302 248.000
84.10296 296.000
84.12291 289.000
84.14286 263.000
84.16280 335.000
84.18275 297.000
84.20270 292.000
84.22264 276.000
84.24259 299.000
84.26254 292.000
84.28249 303.000
84.30243 326.000
84.32238 291.000
84.34233 270.000
84.36227 310.000
84.38222 317.000
84.40217 307.000
84.42211 310.000
84.44206 299.000
84.46201 267.000
84.48196 285.000
84.50190 286.000
84.52185 284.000
84.54180 301.000
84.56174 307.000
84.58169 324.000
84.60164 320.000
84.62158 304.000
84.64153 342.000
84.66148 347.000
84.68142 303.000
84.70137 325.000
84.72132 320.000
84.74127 337.000
84.76121 309.000
84.78116 301.000
84.80111 348.000
84.82105 319.000
84.84100 316.000
84.86095 300.000
84.88089 319.000
84.90084 348.000
84.92079 329.000
84.94074 317.000
84.96068 324.000
84.98063 289.000
85.00058 319.000
85.02052 323.000
85.04047 350.000
85.06042 308.000
85.08036 288.000
85.10031 333.000
85.12026 266.000
85.14021 294.000
85.16015 298.000
85.18010 297.000
85.20005 277.000
85.21999 290.000
85.23994 323.000
85.25989 293.000
85.27983 318.000
85.29978 319.000
85.31973 316.000
85.33967 282.000
85.35962 321.000
85.37957 277.000
85.39952 273.000
85.41946 294.000
85.43941 307.000
85.45936 256.000
85.47930 251.000
85.49925 276.000
85.51920 270.000
85.53914 303.000
85.55909 306.000
85.57904 292.000
85.59899 280.000
85.61893 290.000
85.63888 279.000
85.65883 283.000
85.67877 281.000
85.69872 312.000
85.71867 291.000
85.73861 269.000
85.75856 312.000
85.77851 269.000
85.79845 298.000
85.81840 274.000
85.83835 272.000
85.85830 327.000
85.87824 286.000
85.89819 279.000
85.91814 310.000
85.93808 294.000
85.95803 270.000
85.97798 275.000
85.99792 306.000
86.01787 322.000
86.03782 266.000
86.05777 271.000
86.07771 265.000
86.09766 283.000
86.11761 300.000
86.13755 259.000
86.15750 279.000
86.17745 257.000
86.19739 303.000
86.21734 275.000
86.23729 280.000
86.25723 278.000
86.27718 290.000
86.29713 271.000
86.31708 262.000
86.33702 264.000
86.35697 274.000
86.37692 273.000
86.39686 295.000
86.41681 248.000
86.43676 302.000
86.45670 271.000
86.47665 302.000
86.49660 287.000
86.51655 289.000
86.53649 261.000
86.55644 294.000
86.57639 277.000
86.59633 318.000
86.61628 284.000
86.63623 265.000
86.65617 270.000
86.67612 285.000
86.69607 289.000
86.71602 336.000
86.73596 291.000
86.75591 272.000
86.77586 305.000
86.79580 280.000
86.81575 328.000
86.83570 280.000
86.85564 282.000
86.87559 299.000
86.89554 322.000
86.91548 302.000
86.93543 313.000
86.95538 286.000
86.97533 311.000
86.99527 314.000
87.01522 293.000
87.03517 329.000
87.05511 315.000
87.07506 307.000
87.09501 304.000
87.11495 310.000
87.13490 291.000
87.15485 295.000
87.17480 298.000
87.19474 318.000
87.21469 303.000
87.23464 305.000
87.25458 330.000
87.27453 288.000
87.29448 321.000
87.31442 340.000
87.33437 297.000
87.35432 329.000
87.37426 287.000
87.39421 286.000
87.41416 324.000
87.43411 300.000
87.45405 304.000
87.47400 273.000
87.49395 308.000
87.51389 308.000
87.53384 283.000
87.55379 283.000
87.57373 265.000
87.59368 286.000
87.61363 313.000
87.63358 316.000
87.65352 318.000
87.67347 291.000
87.69342 312.000
87.71336 298.000
87.73331 309.000
87.75326 269.000
87.77320 305.000
87.79315 304.000
87.81310 286.000
87.83304 301.000
87.85299 302.000
87.87294 281.000
87.89289 272.000
87.91283 313.000
87.93278 277.000
87.95273 297.000
87.97267 269.000
87.99262 319.000
88.01257 292.000
88.03251 290.000
88.05246 300.000
88.07241 275.000
88.09236 290.000
88.11230 261.000
88.13225 286.000
88.15220 250.000
88.17214 267.000
88.19209 291.000
88.21204 277.000
88.23198 289.000
88.25193 298.000
88.27188 300.000
88.29183 312.000
88.31177 307.000
88.33172 290.000
88.35167 297.000
88.37161 322.000
88.39156 279.000
88.41151 306.000
88.43145 299.000
88.45140 289.000
88.47135 307.000
88.49129 270.000
88.51124 295.000
88.53119 301.000
88.55114 264.000
88.57108 309.000
88.59103 302.000
88.61098 263.000
88.63092 299.000
88.65087 283.000
88.67082 265.000
88.69076 294.000
88.71071 281.000
88.73066 296.000
88.75061 293.000
88.77055 296.000
88.79050 283.000
88.81045 267.000
88.83039 299.000
88.85034 256.000
88.87029 298.000
88.89023 294.000
88.91018 245.000
88.93013 275.000
88.95007 270.000
88.97002 267.000
88.98997 270.000
89.00992 288.000
89.02986 281.000
89.04981 272.000
89.06976 289.000
89.08970 317.000
89.10965 296.000
89.12960 273.000
89.14954 290.000
89.16949 265.000
89.18944 288.000
89.20939 276.000
89.22933 287.000
89.24928 318.000
89.26923 282.000
89.28917 284.000
89.30912 294.000
89.32907 287.000
89.34901 275.000
89.36896 285.000
89.38891 268.000
89.40885 267.000
89.42880 296.000
89.44875 278.000
89.46870 277.000
89.48864 297.000
89.50859 264.000
89.52854 287.000
89.54848 278.000
89.56843 290.000
89.58838 270.000
89.60832 269.000
89.62827 275.000
89.64822 239.000
89.66817 268.000
89.68811 294.000
89.70806 298.000
89.72801 289.000
89.74795 267.000
89.76790 295.000
89.78785 262.000
89.80779 282.000
89.82774 276.000
89.84769 263.000
89.86764 270.000
89.88758 309.000
89.90753 316.000
89.92748 258.000
89.94742 301.000
89.96737 264.000
89.98732 303.000
90.00726 266.000
