10.00000 87.000
10.01995 90.000
10.03989 95.000
10.05984 74.000
10.07979 99.000
10.09973 90.000
10.11968 84.000
10.13963 73.000
10.15958 79.000
10.17952 80.000
10.19947 76.000
10.21942 78.000
10.23936 95.000
10.25931 74.000
10.27926 94.000
10.29920 71.000
10.31915 84.000
10.33910 83.000
10.35905 88.000
10.37899 101.000
10.39894 85.000
10.41889 87.000
10.43883 95.000
10.45878 103.000
10.47873 90.000
10.49867 84.000
10.51862 89.000
10.53857 79.000
10.55851 81.000
10.57846 91.000
10.59841 69.000
10.61836 92.000
10.63830 86.000
10.65825 83.000
10.67820 94.000
10.69814 63.000
10.71809 72.000
10.73804 72.000
10.75798 94.000
10.77793 60.000
10.79788 73.000
10.81783 84.000
10.83777 89.000
10.85772 77.000
10.87767 91.000
10.89761 79.000
10.91756 93.000
10.93751 82.000
10.95745 85.000
10.97740 75.000
10.99735 80.000
11.01730 88.000
11.03724 93.000
11.05719 89.000
11.07714 77.000
11.09708 84.000
11.11703 73.000
11.13698 83.000
11.15692 101.000
11.17687 89.000
11.19682 80.000
11.21676 75.000
11.23671 92.000
11.25666 88.000
11.27661 73.000
11.29655 95.000
11.31650 64.000
11.33645 87.000
11.35639 87.000
11.37634 79.000
11.39629 76.000
11.41623 77.000
11.43618 73.000
11.45613 88.000
11.47608 78.000
11.49602 89.000
11.51597 82.000
11.53592 97.000
11.55586 83.000
11.57581 93.000
11.59576 105.000
11.61570 110.000
11.63565 74.000
11.65560 88.000
11.67554 58.000
11.69549 95.000
11.71544 84.000
11.73539 75.000
11.75533 87.000
11.77528 69.000
11.79523 81.000
11.81517 65.000
11.83512 99.000
11.85507 70.000
11.87501 75.000
11.89496 74.000
11.91491 83.000
11.93486 91.000
11.95480 101.000
11.97475 81.000
11.99470 81.000
12.01464 91.000
12.03459 71.000
12.05454 94.000
12.07448 83.000
12.09443 78.000
12.11438 68.000
12.13432 71.000
12.15427 84.000
12.17422 93.000
12.19417 96.000
12.21411 90.000
12.23406 82.000
12.25401 77.000
12.27395 79.000
12.29390 92.000
12.31385 84.000
12.33379 91.000
12.35374 75.000
12.37369 90.000
12.39364 88.000
12.41358 78.000
12.43353 86.000
12.45348 85.000
12.47342 84.000
12.49337 87.000
12.51332 80.000
12.53326 77.000
12.55321 86.000
12.57316 75.000
12.59311 82.000
12.61305 75.000
12.63300 91.000
12.65295 91.000
12.67289 77.000
12.69284 94.000
12.71279 80.000
12.73273 92.000
12.75268 72.000
12.77263 82.000
12.79257 57.000
12.81252 77.000
12.83247 84.000
12.85242 75.000
12.87236 76.000
12.89231 85.000
12.91226 69.000
12.93220 98.000
12.95215 75.000
12.97210 83.000
12.99204 61.000
13.01199 71.000
13.03194 85.000
13.05189 86.000
13.07183 75.000
13.09178 83.000
13.11173 103.000
13.13167 83.000
13.15162 103.000
13.17157 82.000
13.19151 69.000
13.21146 98.000
13.23141 88.000
13.25135 79.000
13.27130 94.000
13.29125 83.000
13.31120 79.000
13.33114 75.000
13.35109 80.000
13.37104 72.000
13.39098 83.000
13.41093 71.000
13.43088 90.000
13.45082 70.000
13.47077 88.000
13.49072 87.000
13.51067 75.000
13.53061 85.000
13.55056 71.000
13.57051 84.000
13.59045 80.000
13.61040 73.000
13.63035 89.000
13.65029 91.000
13.67024 85.000
13.69019 68.000
13.71013 89.000
13.73008 84.000
13.75003 65.000
13.76998 81.000
13.78992 78.000
13.80987 69.000
13.82982 74.000
13.84976 79.000
13.86971 84.000
13.88966 89.000
13.90960 80.000
13.92955 89.000
13.94950 88.000
13.96945 78.000
13.98939 69.000
14.00934 83.000
14.02929 80.000
14.04923 81.000
14.06918 76.000
14.08913 51.000
14.10907 78.000
14.12902 79.000
14.14897 85.000
14.16892 87.000
14.18886 73.000
14.20881 85.000
14.22876 68.000
14.24870 87.000
14.26865 84.000
14.28860 75.000
14.30854 93.000
14.32849 65.000
14.34844 90.000
14.36838 77.000
14.38833 88.000
14.40828 93.000
14.42823 74.000
14.44817 73.000
14.46812 76.000
14.48807 69.000
14.50801 88.000
14.52796 87.000
14.54791 93.000
14.56785 69.000
14.58780 79.000
14.60775 89.000
14.62770 85.000
14.64764 94.000
14.66759 90.000
14.68754 81.000
14.70748 72.000
14.72743 84.000
14.74738 80.000
14.76732 89.000
14.78727 85.000
14.80722 97.000
14.82716 78.000
14.84711 77.000
14.86706 81.000
14.88701 80.000
14.90695 77.000
14.92690 87.000
14.94685 67.000
14.96679 69.000
14.98674 74.000
15.00669 77.000
15.02663 79.000
15.04658 80.000
15.06653 75.000
15.08648 77.000
15.10642 73.000
15.12637 67.000
15.14632 94.000
15.16626 87.000
15.18621 90.000
15.20616 77.000
15.22610 66.000
15.24605 78.000
15.26600 100.000
15.28594 85.000
15.30589 66.000
15.32584 78.000
15.34579 82.000
15.36573 75.000
15.38568 88.000
15.40563 86.000
15.42557 91.000
15.44552 105.000
15.46547 86.000
15.48541 99.000
15.50536 73.000
15.52531 109.000
15.54526 82.000
15.56520 78.000
15.58515 82.000
15.60510 91.000
15.62504 88.000
15.64499 108.000
15.66494 101.000
15.68488 104.000
15.70483 97.000
15.72478 107.000
15.74472 100.000
15.76467 116.000
15.78462 127.000
15.80457 144.000
15.82451 114.000
15.84446 99.000
15.86441 101.000
15.88435 89.000
15.90430 122.000
15.92425 104.000
15.94419 147.000
15.96414 137.000
15.98409 145.000
16.00404 175.000
16.02398 196.000
16.04393 212.000
16.06388 219.000
16.08382 285.000
16.10377 320.000
16.12372 347.000
16.14366 446.000
16.16361 560.000
16.18356 640.000
16.20351 715.000
16.22345 793.000
16.24340 758.000
16.26335 763.000
16.28329 731.000
16.30324 563.000
16.32319 455.000
16.34313 374.000
16.36308 374.000
16.38303 315.000
16.40297 304.000
16.42292 209.000
16.44287 174.000
16.46282 134.000
16.48276 119.000
16.50271 127.000
16.52266 97.000
16.54260 127.000
16.56255 130.000
16.58250 114.000
16.60244 118.000
16.62239 109.000
16.64234 88.000
16.66229 122.000
16.68223 98.000
16.70218 90.000
16.72213 107.000
16.74207 87.000
16.76202 88.000
16.78197 101.000
16.80191 91.000
16.82186 98.000
16.84181 89.000
16.86175 80.000
16.88170 89.000
16.90165 92.000
16.92160 89.000
16.94154 78.000
16.96149 100.000
16.98144 80.000
17.00138 99.000
17.02133 77.000
17.04128 88.000
17.06122 83.000
17.08117 97.000
17.10112 99.000
17.12107 101.000
17.14101 82.000
17.16096 99.000
17.18091 94.000
17.20085 72.000
17.22080 106.000
17.24075 88.000
17.26069 100.000
17.28064 98.000
17.30059 83.000
17.32053 95.000
17.34048 90.000
17.36043 79.000
17.38038 97.000
17.40032 86.000
17.42027 84.000
17.44022 95.000
17.46016 91.000
17.48011 82.000
17.50006 96.000
17.52000 81.000
17.53995 95.000
17.55990 105.000
17.57985 89.000
17.59979 84.000
17.61974 89.000
17.63969 94.000
17.65963 88.000
17.67958 109.000
17.69953 87.000
17.71947 89.000
17.73942 88.000
17.75937 103.000
17.77932 85.000
17.79926 92.000
17.81921 88.000
17.83916 105.000
17.85910 95.000
17.87905 110.000
17.89900 89.000
17.91894 79.000
17.93889 104.000
17.95884 83.000
17.97878 92.000
17.99873 93.000
18.01868 102.000
18.03863 84.000
18.05857 90.000
18.07852 87.000
18.09847 89.000
18.11841 95.000
18.13836 96.000
18.15831 116.000
18.17825 85.000
18.19820 94.000
18.21815 127.000
18.23810 155.000
18.25804 178.000
18.27799 225.000
18.29794 192.000
18.31788 187.000
18.33783 162.000
18.35778 157.000
18.37772 121.000
18.39767 88.000
18.41762 95.000
18.43756 84.000
18.45751 103.000
18.47746 100.000
18.49741 97.000
18.51735 85.000
18.53730 80.000
18.55725 87.000
18.57719 76.000
18.59714 101.000
18.61709 87.000
18.63703 81.000
18.65698 93.000
18.67693 101.000
18.69688 95.000
18.71682 86.000
18.73677 96.000
18.75672 80.000
18.77666 95.000
18.79661 95.000
18.81656 79.000
18.83650 109.000
18.85645 81.000
18.87640 103.000
18.89634 94.000
18.91629 81.000
18.93624 81.000
18.95619 91.000
18.97613 93.000
18.99608 89.000
19.01603 100.000
19.03597 92.000
19.05592 86.000
19.07587 90.000
19.09581 96.000
19.11576 83.000
19.13571 102.000
19.15566 90.000
19.17560 90.000
19.19555 106.000
19.21550 101.000
19.23544 107.000
19.25539 107.000
19.27534 91.000
19.29528 87.000
19.31523 112.000
19.33518 90.000
19.35513 87.000
19.37507 81.000
19.39502 100.000
19.41497 104.000
19.43491 82.000
19.45486 101.000
19.47481 93.000
19.49475 95.000
19.51470 106.000
19.53465 84.000
19.55459 89.000
19.57454 92.000
19.59449 102.000
19.61444 108.000
19.63438 108.000
19.65433 73.000
19.67428 113.000
19.69422 98.000
19.71417 94.000
19.73412 87.000
19.75406 93.000
19.77401 90.000
19.79396 104.000
19.81391 96.000
19.83385 82.000
19.85380 101.000
19.87375 98.000
19.89369 104.000
19.91364 109.000
19.93359 110.000
19.95353 105.000
19.97348 133.000
19.99343 117.000
20.01337 108.000
20.03332 101.000
20.05327 151.000
20.07322 145.000
20.09316 156.000
20.11311 149.000
20.13306 153.000
20.15300 169.000
20.17295 174.000
20.19290 142.000
20.21284 148.000
20.23279 138.000
20.25274 151.000
20.27269 173.000
20.29263 162.000
20.31258 189.000
20.33253 203.000
20.35247 249.000
20.37242 242.000
20.39237 308.000
20.41231 342.000
20.43226 331.000
20.45221 344.000
20.47215 381.000
20.49210 385.000
20.51205 334.000
20.53200 373.000
20.55194 332.000
20.57189 282.000
20.59184 315.000
20.61178 320.000
20.63173 325.000
20.65168 326.000
20.67162 283.000
20.69157 278.000
20.71152 289.000
20.73147 260.000
20.75141 235.000
20.77136 189.000
20.79131 185.000
20.81125 194.000
20.83120 193.000
20.85115 148.000
20.87109 135.000
20.89104 163.000
20.91099 164.000
20.93094 126.000
20.95088 134.000
20.97083 137.000
20.99078 127.000
21.01072 118.000
21.03067 105.000
21.05062 110.000
21.07056 117.000
21.09051 109.000
21.11046 100.000
21.13040 115.000
21.15035 125.000
21.17030 88.000
21.19025 104.000
21.21019 99.000
21.23014 115.000
21.25009 104.000
21.27003 103.000
21.28998 95.000
21.30993 92.000
21.32987 77.000
21.34982 95.000
21.36977 89.000
21.38972 97.000
21.40966 91.000
21.42961 97.000
21.44956 97.000
21.46950 96.000
21.48945 84.000
21.50940 101.000
21.52934 113.000
21.54929 98.000
21.56924 106.000
21.58918 88.000
21.60913 111.000
21.62908 102.000
21.64903 119.000
21.66897 139.000
21.68892 94.000
21.70887 123.000
21.72881 109.000
21.74876 98.000
21.76871 103.000
21.78865 92.000
21.80860 107.000
21.82855 118.000
21.84850 119.000
21.86844 106.000
21.88839 92.000
21.90834 105.000
21.92828 105.000
21.94823 109.000
21.96818 92.000
21.98812 109.000
22.00807 100.000
22.02802 92.000
22.04796 129.000
22.06791 115.000
22.08786 82.000
22.10781 110.000
22.12775 103.000
22.14770 99.000
22.16765 128.000
22.18759 109.000
22.20754 103.000
22.22749 92.000
22.24743 105.000
22.26738 109.000
22.28733 119.000
22.30728 113.000
22.32722 103.000
22.34717 113.000
22.36712 133.000
22.38706 95.000
22.40701 92.000
22.42696 112.000
22.44690 111.000
22.46685 119.000
22.48680 91.000
22.50675 100.000
22.52669 95.000
22.54664 111.000
22.56659 117.000
22.58653 100.000
22.60648 128.000
22.62643 113.000
22.64637 105.000
22.66632 104.000
22.68627 89.000
22.70621 121.000
22.72616 104.000
22.74611 126.000
22.76606 118.000
22.78600 116.000
22.80595 103.000
22.82590 119.000
22.84584 108.000
22.86579 112.000
22.88574 114.000
22.90568 109.000
22.92563 100.000
22.94558 103.000
22.96553 109.000
22.98547 109.000
23.00542 120.000
23.02537 122.000
23.04531 113.000
23.06526 122.000
23.08521 122.000
23.10515 121.000
23.12510 122.000
23.14505 109.000
23.16499 128.000
23.18494 111.000
23.20489 128.000
23.22484 124.000
23.24478 110.000
23.26473 94.000
23.28468 111.000
23.30462 112.000
23.32457 120.000
23.34452 128.000
23.36446 112.000
23.38441 112.000
23.40436 119.000
23.42431 98.000
23.44425 143.000
23.46420 128.000
23.48415 104.000
23.50409 117.000
23.52404 123.000
23.54399 118.000
23.56393 133.000
23.58388 120.000
23.60383 95.000
23.62377 108.000
23.64372 132.000
23.66367 103.000
23.68362 121.000
23.70356 113.000
23.72351 141.000
23.74346 112.000
23.76340 109.000
23.78335 100.000
23.80330 139.000
23.82324 115.000
23.84319 121.000
23.86314 122.000
23.88309 102.000
23.90303 123.000
23.92298 118.000
23.94293 119.000
23.96287 131.000
23.98282 124.000
24.00277 138.000
24.02271 148.000
24.04266 131.000
24.06261 128.000
24.08256 134.000
24.10250 113.000
24.12245 102.000
24.14240 133.000
24.16234 126.000
24.18229 126.000
24.20224 135.000
24.22218 128.000
24.24213 126.000
24.26208 113.000
24.28202 113.000
24.30197 118.000
24.32192 130.000
24.34187 140.000
24.36181 127.000
24.38176 142.000
24.40171 152.000
24.42165 142.000
24.44160 127.000
24.46155 143.000
24.48149 152.000
24.50144 126.000
24.52139 128.000
24.54134 125.000
24.56128 160.000
24.58123 143.000
24.60118 139.000
24.62112 127.000
24.64107 133.000
24.66102 134.000
24.68096 153.000
24.70091 137.000
24.72086 139.000
24.74080 124.000
24.76075 144.000
24.78070 131.000
24.80065 114.000
24.82059 144.000
24.84054 139.000
24.86049 151.000
24.88043 129.000
24.90038 128.000
24.92033 137.000
24.94027 124.000
24.96022 113.000
24.98017 103.000
25.00012 116.000
25.02006 134.000
25.04001 158.000
25.05996 130.000
25.07990 142.000
25.09985 151.000
25.11980 122.000
25.13974 129.000
25.15969 138.000
25.17964 113.000
25.19958 135.000
25.21953 129.000
25.23948 123.000
25.25943 126.000
25.27937 121.000
25.29932 133.000
25.31927 150.000
25.33921 132.000
25.35916 139.000
25.37911 140.000
25.39905 149.000
25.41900 147.000
25.43895 129.000
25.45890 162.000
25.47884 135.000
25.49879 135.000
25.51874 130.000
25.53868 141.000
25.55863 145.000
25.57858 161.000
25.59852 121.000
25.61847 136.000
25.63842 138.000
25.65837 168.000
25.67831 146.000
25.69826 137.000
25.71821 136.000
25.73815 137.000
25.75810 137.000
25.77805 176.000
25.79799 161.000
25.81794 152.000
25.83789 184.000
25.85783 158.000
25.87778 168.000
25.89773 173.000
25.91768 151.000
25.93762 161.000
25.95757 177.000
25.97752 168.000
25.99746 140.000
26.01741 171.000
26.03736 148.000
26.05730 162.000
26.07725 150.000
26.09720 155.000
26.11715 151.000
26.13709 151.000
26.15704 178.000
26.17699 160.000
26.19693 161.000
26.21688 175.000
26.23683 134.000
26.25677 153.000
26.27672 139.000
26.29667 169.000
26.31661 168.000
26.33656 150.000
26.35651 159.000
26.37646 161.000
26.39640 176.000
26.41635 169.000
26.43630 144.000
26.45624 167.000
26.47619 181.000
26.49614 166.000
26.51608 180.000
26.53603 178.000
26.55598 171.000
26.57593 133.000
26.59587 167.000
26.61582 164.000
26.63577 187.000
26.65571 154.000
26.67566 175.000
26.69561 176.000
26.71555 153.000
26.73550 146.000
26.75545 180.000
26.77539 186.000
26.79534 143.000
26.81529 162.000
26.83524 161.000
26.85518 169.000
26.87513 148.000
26.89508 191.000
26.91502 152.000
26.93497 191.000
26.95492 157.000
26.97486 164.000
26.99481 160.000
27.01476 166.000
27.03471 172.000
27.05465 154.000
27.07460 182.000
27.09455 172.000
27.11449 160.000
27.13444 175.000
27.15439 167.000
27.17433 163.000
27.19428 166.000
27.21423 158.000
27.23417 169.000
27.25412 168.000
27.27407 187.000
27.29402 171.000
27.31396 153.000
27.33391 172.000
27.35386 157.000
27.37380 167.000
27.39375 166.000
27.41370 168.000
27.43364 168.000
27.45359 186.000
27.47354 177.000
27.49349 185.000
27.51343 155.000
27.53338 169.000
27.55333 187.000
27.57327 168.000
27.59322 183.000
27.61317 172.000
27.63311 173.000
27.65306 174.000
27.67301 171.000
27.69296 185.000
27.71290 179.000
27.73285 192.000
27.75280 165.000
27.77274 177.000
27.79269 180.000
27.81264 158.000
27.83258 174.000
27.85253 177.000
27.87248 182.000
27.89242 162.000
27.91237 199.000
27.93232 184.000
27.95227 194.000
27.97221 151.000
27.99216 197.000
28.01211 172.000
28.03205 197.000
28.05200 175.000
28.07195 169.000
28.09189 169.000
28.11184 177.000
28.13179 191.000
28.15174 168.000
28.17168 176.000
28.19163 198.000
28.21158 185.000
28.23152 180.000
28.25147 164.000
28.27142 166.000
28.29136 192.000
28.31131 185.000
28.33126 186.000
28.35120 183.000
28.37115 199.000
28.39110 185.000
28.41105 189.000
28.43099 201.000
28.45094 183.000
28.47089 181.000
28.49083 206.000
28.51078 219.000
28.53073 187.000
28.55067 170.000
28.57062 196.000
28.59057 178.000
28.61052 192.000
28.63046 191.000
28.65041 179.000
28.67036 201.000
28.69030 207.000
28.71025 188.000
28.73020 185.000
28.75014 187.000
28.77009 199.000
28.79004 199.000
28.80998 212.000
28.82993 172.000
28.84988 200.000
28.86983 212.000
28.88977 214.000
28.90972 176.000
28.92967 211.000
28.94961 200.000
28.96956 192.000
28.98951 221.000
29.00945 179.000
29.02940 208.000
29.04935 187.000
29.06930 194.000
29.08924 191.000
29.10919 208.000
29.12914 191.000
29.14908 209.000
29.16903 193.000
29.18898 211.000
29.20892 206.000
29.22887 172.000
29.24882 201.000
29.26877 211.000
29.28871 203.000
29.30866 197.000
29.32861 199.000
29.34855 220.000
29.36850 234.000
29.38845 219.000
29.40839 201.000
29.42834 231.000
29.44829 184.000
29.46823 243.000
29.48818 239.000
29.50813 216.000
29.52808 250.000
29.54802 245.000
29.56797 198.000
29.58792 189.000
29.60786 199.000
29.62781 227.000
29.64776 188.000
29.66770 207.000
29.68765 218.000
29.70760 232.000
29.72755 216.000
29.74749 245.000
29.76744 199.000
29.78739 214.000
29.80733 206.000
29.82728 239.000
29.84723 217.000
29.86717 191.000
29.88712 226.000
29.90707 219.000
29.92701 220.000
29.94696 245.000
29.96691 228.000
29.98686 230.000
30.00680 255.000
30.02675 272.000
30.04670 272.000
30.06664 274.000
30.08659 355.000
30.10654 427.000
30.12648 464.000
30.14643 636.000
30.16638 607.000
30.18633 516.000
30.20627 441.000
30.22622 422.000
30.24617 411.000
30.26611 324.000
30.28606 281.000
30.30601 229.000
30.32595 213.000
30.34590 220.000
30.36585 180.000
30.38579 211.000
30.40574 204.000
30.42569 194.000
30.44564 192.000
30.46558 218.000
30.48553 199.000
30.50548 177.000
30.52542 206.000
30.54537 196.000
30.56532 210.000
30.58526 201.000
30.60521 188.000
30.62516 204.000
30.64511 226.000
30.66505 233.000
30.68500 212.000
30.70495 196.000
30.72489 215.000
30.74484 218.000
30.76479 188.000
30.78473 183.000
30.80468 232.000
30.82463 202.000
30.84458 187.000
30.86452 225.000
30.88447 206.000
30.90442 214.000
30.92436 181.000
30.94431 204.000
30.96426 195.000
30.98420 173.000
31.00415 192.000
31.02410 223.000
31.04404 206.000
31.06399 193.000
31.08394 191.000
31.10389 178.000
31.12383 209.000
31.14378 193.000
31.16373 205.000
31.18367 204.000
31.20362 205.000
31.22357 183.000
31.24351 194.000
31.26346 181.000
31.28341 183.000
31.30336 173.000
31.32330 205.000
31.34325 188.000
31.36320 206.000
31.38314 177.000
31.40309 172.000
31.42304 210.000
31.44298 160.000
31.46293 180.000
31.48288 182.000
31.50282 174.000
31.52277 193.000
31.54272 199.000
31.56267 202.000
31.58261 181.000
31.60256 183.000
31.62251 195.000
31.64245 190.000
31.66240 161.000
31.68235 185.000
31.70229 188.000
31.72224 180.000
31.74219 173.000
31.76214 158.000
31.78208 170.000
31.80203 188.000
31.82198 187.000
31.84192 198.000
31.86187 165.000
31.88182 196.000
31.90176 195.000
31.92171 173.000
31.94166 192.000
31.96160 191.000
31.98155 190.000
32.00150 189.000
32.02145 190.000
32.04139 188.000
32.06134 205.000
32.08129 198.000
32.10123 216.000
32.12118 198.000
32.14113 199.000
32.16107 212.000
32.18102 177.000
32.20097 216.000
32.22092 207.000
32.24086 230.000
32.26081 194.000
32.28076 218.000
32.30070 200.000
32.32065 193.000
32.34060 212.000
32.36054 219.000
32.38049 197.000
32.40044 196.000
32.42039 189.000
32.44033 221.000
32.46028 200.000
32.48023 191.000
32.50017 174.000
32.52012 221.000
32.54007 223.000
32.56001 208.000
32.57996 217.000
32.59991 179.000
32.61985 200.000
32.63980 247.000
32.65975 221.000
32.67970 210.000
32.69964 213.000
32.71959 212.000
32.73954 211.000
32.75948 220.000
32.77943 220.000
32.79938 245.000
32.81932 238.000
32.83927 262.000
32.85922 250.000
32.87917 278.000
32.89911 254.000
32.91906 265.000
32.93901 244.000
32.95895 277.000
32.97890 264.000
32.99885 267.000
33.01879 261.000
33.03874 242.000
33.05869 234.000
33.07863 264.000
33.09858 231.000
33.11853 233.000
33.13848 253.000
33.15842 234.000
33.17837 247.000
33.19832 259.000
33.21826 260.000
33.23821 288.000
33.25816 260.000
33.27810 274.000
33.29805 273.000
33.31800 278.000
33.33795 258.000
33.35789 309.000
33.37784 265.000
33.39779 297.000
33.41773 251.000
33.43768 235.000
33.45763 290.000
33.47757 241.000
33.49752 271.000
33.51747 301.000
33.53741 241.000
33.55736 262.000
33.57731 290.000
33.59726 269.000
33.61720 281.000
33.63715 311.000
33.65710 270.000
33.67704 274.000
33.69699 302.000
33.71694 319.000
33.73688 322.000
33.75683 324.000
33.77678 319.000
33.79673 364.000
33.81667 344.000
33.83662 330.000
33.85657 363.000
33.87651 347.000
33.89646 364.000
33.91641 324.000
33.93635 368.000
33.95630 374.000
33.97625 419.000
33.99620 419.000
34.01614 423.000
34.03609 391.000
34.05604 427.000
34.07598 432.000
34.09593 415.000
34.11588 406.000
34.13582 405.000
34.15577 382.000
34.17572 348.000
34.19566 360.000
34.21561 354.000
34.23556 312.000
34.25551 301.000
34.27545 297.000
34.29540 271.000
34.31535 271.000
34.33529 276.000
34.35524 261.000
34.37519 243.000
34.39513 215.000
34.41508 198.000
34.43503 233.000
34.45498 213.000
34.47492 190.000
34.49487 193.000
34.51482 164.000
34.53476 193.000
34.55471 200.000
34.57466 185.000
34.59460 187.000
34.61455 183.000
34.63450 179.000
34.65444 183.000
34.67439 232.000
34.69434 209.000
34.71429 185.000
34.73423 186.000
34.75418 175.000
34.77413 208.000
34.79407 224.000
34.81402 179.000
34.83397 219.000
34.85391 228.000
34.87386 215.000
34.89381 233.000
34.91376 225.000
34.93370 243.000
34.95365 244.000
34.97360 229.000
34.99354 294.000
35.01349 251.000
35.03344 262.000
35.05338 286.000
35.07333 267.000
35.09328 279.000
35.11322 289.000
35.13317 312.000
35.15312 287.000
35.17307 332.000
35.19301 300.000
35.21296 288.000
35.23291 300.000
35.25285 296.000
35.27280 308.000
35.29275 332.000
35.31269 354.000
35.33264 385.000
35.35259 404.000
35.37254 414.000
35.39248 434.000
35.41243 489.000
35.43238 512.000
35.45232 548.000
35.47227 673.000
35.49222 881.000
35.51216 1046.000
35.53211 1176.000
35.55206 1099.000
35.57201 847.000
35.59195 793.000
35.61190 737.000
35.63185 695.000
35.65179 569.000
35.67174 432.000
35.69169 294.000
35.71163 279.000
35.73158 252.000
35.75153 220.000
35.77147 222.000
35.79142 223.000
35.81137 211.000
35.83132 194.000
35.85126 184.000
35.87121 179.000
35.89116 200.000
35.91110 206.000
35.93105 173.000
35.95100 170.000
35.97094 194.000
35.99089 177.000
36.01084 188.000
36.03079 173.000
36.05073 185.000
36.07068 172.000
36.09063 180.000
36.11057 204.000
36.13052 191.000
36.15047 193.000
36.17041 230.000
36.19036 236.000
36.21031 269.000
36.23025 248.000
36.25020 252.000
36.27015 256.000
36.29010 302.000
36.31004 329.000
36.32999 315.000
36.34994 293.000
36.36988 322.000
36.38983 306.000
36.40978 326.000
36.42972 312.000
36.44967 294.000
36.46962 280.000
36.48957 253.000
36.50951 272.000
36.52946 244.000
36.54941 214.000
36.56935 208.000
36.58930 187.000
36.60925 213.000
36.62919 167.000
36.64914 175.000
36.66909 162.000
36.68903 167.000
36.70898 161.000
36.72893 189.000
36.74888 171.000
36.76882 173.000
36.78877 147.000
36.80872 143.000
36.82866 159.000
36.84861 148.000
36.86856 163.000
36.88850 139.000
36.90845 177.000
36.92840 154.000
36.94835 168.000
36.96829 137.000
36.98824 152.000
37.00819 156.000
37.02813 173.000
37.04808 145.000
37.06803 176.000
37.08797 162.000
37.10792 181.000
37.12787 172.000
37.14781 242.000
37.16776 223.000
37.18771 214.000
37.20766 206.000
37.22760 189.000
37.24755 193.000
37.26750 185.000
37.28744 162.000
37.30739 149.000
37.32734 164.000
37.34728 183.000
37.36723 166.000
37.38718 160.000
37.40713 163.000
37.42707 140.000
37.44702 134.000
37.46697 148.000
37.48691 132.000
37.50686 147.000
37.52681 139.000
37.54675 162.000
37.56670 138.000
37.58665 148.000
37.60660 160.000
37.62654 141.000
37.64649 143.000
37.66644 154.000
37.68638 129.000
37.70633 154.000
37.72628 141.000
37.74622 148.000
37.76617 147.000
37.78612 151.000
37.80606 154.000
37.82601 147.000
37.84596 148.000
37.86591 148.000
37.88585 152.000
37.90580 150.000
37.92575 147.000
37.94569 145.000
37.96564 159.000
37.98559 171.000
38.00553 161.000
38.02548 154.000
38.04543 155.000
38.06538 155.000
38.08532 150.000
38.10527 196.000
38.12522 132.000
38.14516 140.000
38.16511 136.000
38.18506 157.000
38.20500 142.000
38.22495 135.000
38.24490 131.000
38.26484 174.000
38.28479 164.000
38.30474 155.000
38.32469 137.000
38.34463 146.000
38.36458 159.000
38.38453 143.000
38.40447 148.000
38.42442 158.000
38.44437 154.000
38.46431 172.000
38.48426 187.000
38.50421 182.000
38.52416 190.000
38.54410 197.000
38.56405 216.000
38.58400 206.000
38.60394 217.000
38.62389 245.000
38.64384 222.000
38.66378 231.000
38.68373 244.000
38.70368 213.000
38.72362 226.000
38.74357 235.000
38.76352 243.000
38.78347 180.000
38.80341 194.000
38.82336 184.000
38.84331 200.000
38.86325 212.000
38.88320 188.000
38.90315 190.000
38.92309 198.000
38.94304 167.000
38.96299 171.000
38.98294 191.000
39.00288 182.000
39.02283 165.000
39.04278 172.000
39.06272 136.000
39.08267 162.000
39.10262 135.000
39.12256 169.000
39.14251 148.000
39.16246 156.000
39.18241 146.000
39.20235 145.000
39.22230 163.000
39.24225 128.000
39.26219 125.000
39.28214 138.000
39.30209 151.000
39.32203 152.000
39.34198 154.000
39.36193 162.000
39.38187 151.000
39.40182 134.000
39.42177 134.000
39.44172 149.000
39.46166 146.000
39.48161 157.000
39.50156 166.000
39.52150 154.000
39.54145 163.000
39.56140 140.000
39.58134 131.000
39.60129 172.000
39.62124 134.000
39.64119 128.000
39.66113 156.000
39.68108 148.000
39.70103 142.000
39.72097 153.000
39.74092 129.000
39.76087 139.000
39.78081 158.000
39.80076 162.000
39.82071 161.000
39.84065 139.000
39.86060 146.000
39.88055 145.000
39.90050 144.000
39.92044 130.000
39.94039 166.000
39.96034 158.000
39.98028 153.000
40.00023 139.000
40.02018 160.000
40.04012 157.000
40.06007 141.000
40.08002 144.000
40.09997 126.000
40.11991 145.000
40.13986 133.000
40.15981 133.000
40.17975 136.000
40.19970 153.000
40.21965 129.000
40.23959 144.000
40.25954 136.000
40.27949 162.000
40.29943 131.000
40.31938 150.000
40.33933 137.000
40.35928 139.000
40.37922 169.000
40.39917 144.000
40.41912 159.000
40.43906 155.000
40.45901 148.000
40.47896 143.000
40.49890 149.000
40.51885 135.000
40.53880 149.000
40.55875 143.000
40.57869 139.000
40.59864 157.000
40.61859 147.000
40.63853 158.000
40.65848 142.000
40.67843 144.000
40.69837 142.000
40.71832 168.000
40.73827 141.000
40.75822 179.000
40.77816 177.000
40.79811 170.000
40.81806 166.000
40.83800 180.000
40.85795 145.000
40.87790 171.000
40.89784 168.000
40.91779 195.000
40.93774 189.000
40.95768 203.000
40.97763 207.000
40.99758 218.000
41.01753 207.000
41.03747 226.000
41.05742 221.000
41.07737 236.000
41.09731 264.000
41.11726 319.000
41.13721 335.000
41.15715 395.000
41.17710 468.000
41.19705 526.000
41.21700 697.000
41.23694 781.000
41.25689 863.000
41.27684 974.000
41.29678 1007.000
41.31673 971.000
41.33668 878.000
41.35662 857.000
41.37657 737.000
41.39652 736.000
41.41646 618.000
41.43641 550.000
41.45636 457.000
41.47631 386.000
41.49625 330.000
41.51620 282.000
41.53615 229.000
41.55609 219.000
41.57604 212.000
41.59599 212.000
41.61593 169.000
41.63588 181.000
41.65583 183.000
41.67578 150.000
41.69572 168.000
41.71567 154.000
41.73562 176.000
41.75556 149.000
41.77551 156.000
41.79546 143.000
41.81540 170.000
41.83535 148.000
41.85530 141.000
41.87524 159.000
41.89519 161.000
41.91514 159.000
41.93509 152.000
41.95503 150.000
41.97498 155.000
41.99493 140.000
42.01487 152.000
42.03482 146.000
42.05477 151.000
42.07471 140.000
42.09466 145.000
42.11461 151.000
42.13456 160.000
42.15450 154.000
42.17445 145.000
42.19440 151.000
42.21434 140.000
42.23429 134.000
42.25424 163.000
42.27418 116.000
42.29413 158.000
42.31408 141.000
42.33403 137.000
42.35397 125.000
42.37392 134.000
42.39387 144.000
42.41381 140.000
42.43376 158.000
42.45371 156.000
42.47365 131.000
42.49360 120.000
42.51355 142.000
42.53349 146.000
42.55344 131.000
42.57339 148.000
42.59334 127.000
42.61328 109.000
42.63323 151.000
42.65318 133.000
42.67312 119.000
42.69307 147.000
42.71302 125.000
42.73296 115.000
42.75291 139.000
42.77286 121.000
42.79281 142.000
42.81275 143.000
42.83270 136.000
42.85265 136.000
42.87259 160.000
42.89254 149.000
42.91249 138.000
42.93243 149.000
42.95238 153.000
42.97233 156.000
42.99227 156.000
43.01222 173.000
43.03217 199.000
43.05212 192.000
43.07206 163.000
43.09201 173.000
43.11196 214.000
43.13190 221.000
43.15185 279.000
43.17180 297.000
43.19174 391.000
43.21169 377.000
43.23164 354.000
43.25159 317.000
43.27153 275.000
43.29148 258.000
43.31143 273.000
43.33137 261.000
43.35132 250.000
43.37127 204.000
43.39121 161.000
43.41116 181.000
43.43111 157.000
43.45105 144.000
43.47100 141.000
43.49095 137.000
43.51090 121.000
43.53084 133.000
43.55079 153.000
43.57074 133.000
43.59068 127.000
43.61063 125.000
43.63058 137.000
43.65052 135.000
43.67047 134.000
43.69042 130.000
43.71037 139.000
43.73031 107.000
43.75026 137.000
43.77021 117.000
43.79015 107.000
43.81010 110.000
43.83005 143.000
43.84999 142.000
43.86994 117.000
43.88989 137.000
43.90984 113.000
43.92978 132.000
43.94973 118.000
43.96968 119.000
43.98962 122.000
44.00957 116.000
44.02952 124.000
44.04946 101.000
44.06941 135.000
44.08936 142.000
44.10930 131.000
44.12925 125.000
44.14920 129.000
44.16915 139.000
44.18909 127.000
44.20904 121.000
44.22899 124.000
44.24893 113.000
44.26888 118.000
44.28883 108.000
44.30877 130.000
44.32872 129.000
44.34867 120.000
44.36862 132.000
44.38856 142.000
44.40851 131.000
44.42846 130.000
44.44840 144.000
44.46835 113.000
44.48830 119.000
44.50824 148.000
44.52819 141.000
44.54814 123.000
44.56808 135.000
44.58803 122.000
44.60798 149.000
44.62793 129.000
44.64787 174.000
44.66782 131.000
44.68777 159.000
44.70771 156.000
44.72766 169.000
44.74761 129.000
44.76755 162.000
44.78750 145.000
44.80745 134.000
44.82740 116.000
44.84734 116.000
44.86729 130.000
44.88724 113.000
44.90718 130.000
44.92713 100.000
44.94708 124.000
44.96702 120.000
44.98697 146.000
45.00692 125.000
45.02686 124.000
45.04681 118.000
45.06676 111.000
45.08671 111.000
45.10665 121.000
45.12660 135.000
45.14655 132.000
45.16649 113.000
45.18644 121.000
45.20639 122.000
45.22633 107.000
45.24628 133.000
45.26623 112.000
45.28618 140.000
45.30612 132.000
45.32607 106.000
45.34602 127.000
45.36596 134.000
45.38591 107.000
45.40586 137.000
45.42580 134.000
45.44575 121.000
45.46570 99.000
45.48565 114.000
45.50559 111.000
45.52554 116.000
45.54549 111.000
45.56543 124.000
45.58538 102.000
45.60533 110.000
45.62527 92.000
45.64522 104.000
45.66517 102.000
45.68511 95.000
45.70506 117.000
45.72501 133.000
45.74496 108.000
45.76490 108.000
45.78485 126.000
45.80480 107.000
45.82474 95.000
45.84469 105.000
45.86464 122.000
45.88458 107.000
45.90453 129.000
45.92448 107.000
45.94443 118.000
45.96437 115.000
45.98432 109.000
46.00427 109.000
46.02421 114.000
46.04416 121.000
46.06411 118.000
46.08405 118.000
46.10400 93.000
46.12395 118.000
46.14389 121.000
46.16384 108.000
46.18379 108.000
46.20374 119.000
46.22368 106.000
46.24363 101.000
46.26358 106.000
46.28352 100.000
46.30347 99.000
46.32342 125.000
46.34336 120.000
46.36331 124.000
46.38326 121.000
46.40321 106.000
46.42315 105.000
46.44310 103.000
46.46305 113.000
46.48299 110.000
46.50294 109.000
46.52289 125.000
46.54283 120.000
46.56278 103.000
46.58273 119.000
46.60267 109.000
46.62262 112.000
46.64257 129.000
46.66252 107.000
46.68246 107.000
46.70241 108.000
46.72236 119.000
46.74230 81.000
46.76225 109.000
46.78220 100.000
46.80214 108.000
46.82209 108.000
46.84204 126.000
46.86199 112.000
46.88193 99.000
46.90188 123.000
46.92183 123.000
46.94177 114.000
46.96172 118.000
46.98167 103.000
47.00161 110.000
47.02156 107.000
47.04151 110.000
47.06146 117.000
47.08140 98.000
47.10135 109.000
47.12130 130.000
47.14124 100.000
47.16119 104.000
47.18114 124.000
47.20108 120.000
47.22103 110.000
47.24098 107.000
47.26092 87.000
47.28087 113.000
47.30082 128.000
47.32077 122.000
47.34071 122.000
47.36066 107.000
47.38061 124.000
47.40055 124.000
47.42050 110.000
47.44045 118.000
47.46039 112.000
47.48034 120.000
47.50029 100.000
47.52024 100.000
47.54018 117.000
47.56013 111.000
47.58008 101.000
47.60002 118.000
47.61997 102.000
47.63992 121.000
47.65986 120.000
47.67981 126.000
47.69976 103.000
47.71970 99.000
47.73965 107.000
47.75960 105.000
47.77955 109.000
47.79949 112.000
47.81944 132.000
47.83939 116.000
47.85933 111.000
47.87928 109.000
47.89923 117.000
47.91917 103.000
47.93912 120.000
47.95907 112.000
47.97902 102.000
47.99896 108.000
48.01891 108.000
48.03886 89.000
48.05880 99.000
48.07875 143.000
48.09870 100.000
48.11864 126.000
48.13859 117.000
48.15854 104.000
48.17848 127.000
48.19843 110.000
48.21838 117.000
48.23833 140.000
48.25827 116.000
48.27822 135.000
48.29817 128.000
48.31811 133.000
48.33806 133.000
48.35801 135.000
48.37795 127.000
48.39790 122.000
48.41785 119.000
48.43780 146.000
48.45774 131.000
48.47769 159.000
48.49764 144.000
48.51758 138.000
48.53753 117.000
48.55748 136.000
48.57742 155.000
48.59737 140.000
48.61732 135.000
48.63726 153.000
48.65721 155.000
48.67716 141.000
48.69711 147.000
48.71705 157.000
48.73700 139.000
48.75695 138.000
48.77689 129.000
48.79684 143.000
48.81679 142.000
48.83673 132.000
48.85668 113.000
48.87663 143.000
48.89658 141.000
48.91652 117.000
48.93647 103.000
48.95642 110.000
48.97636 129.000
48.99631 106.000
49.01626 115.000
49.03620 128.000
49.05615 133.000
49.07610 113.000
49.09605 130.000
49.11599 126.000
49.13594 115.000
49.15589 126.000
49.17583 120.000
49.19578 111.000
49.21573 104.000
49.23567 125.000
49.25562 101.000
49.27557 116.000
49.29551 113.000
49.31546 122.000
49.33541 124.000
49.35536 84.000
49.37530 99.000
49.39525 109.000
49.41520 111.000
49.43514 99.000
49.45509 109.000
49.47504 112.000
49.49498 107.000
49.51493 109.000
49.53488 126.000
49.55483 127.000
49.57477 120.000
49.59472 104.000
49.61467 91.000
49.63461 107.000
49.65456 132.000
49.67451 106.000
49.69445 112.000
49.71440 121.000
49.73435 116.000
49.75429 97.000
49.77424 90.000
49.79419 110.000
49.81414 132.000
49.83408 117.000
49.85403 113.000
49.87398 105.000
49.89392 124.000
49.91387 111.000
49.93382 102.000
49.95376 109.000
49.97371 117.000
49.99366 98.000
50.01361 109.000
50.03355 91.000
50.05350 111.000
50.07345 101.000
50.09339 99.000
50.11334 103.000
50.13329 118.000
50.15323 107.000
50.17318 92.000
50.19313 91.000
50.21307 112.000
50.23302 79.000
50.25297 94.000
50.27292 107.000
50.29286 125.000
50.31281 110.000
50.33276 113.000
50.35270 97.000
50.37265 93.000
50.39260 105.000
50.41254 111.000
50.43249 119.000
50.45244 122.000
50.47239 99.000
50.49233 110.000
50.51228 101.000
50.53223 119.000
50.55217 118.000
50.57212 105.000
50.59207 98.000
50.61201 96.000
50.63196 124.000
50.65191 124.000
50.67186 127.000
50.69180 117.000
50.71175 115.000
50.73170 111.000
50.75164 105.000
50.77159 103.000
50.79154 90.000
50.81148 103.000
50.83143 114.000
50.85138 113.000
50.87132 105.000
50.89127 97.000
50.91122 128.000
50.93117 94.000
50.95111 103.000
50.97106 107.000
50.99101 87.000
51.01095 94.000
51.03090 86.000
51.05085 104.000
51.07079 77.000
51.09074 89.000
51.11069 99.000
51.13064 90.000
51.15058 107.000
51.17053 78.000
51.19048 81.000
51.21042 91.000
51.23037 110.000
51.25032 103.000
51.27026 100.000
51.29021 90.000
51.31016 97.000
51.33010 96.000
51.35005 90.000
51.37000 87.000
51.38995 112.000
51.40989 97.000
51.42984 84.000
51.44979 103.000
51.46973 83.000
51.48968 94.000
51.50963 102.000
51.52957 103.000
51.54952 99.000
51.56947 101.000
51.58942 97.000
51.60936 108.000
51.62931 105.000
51.64926 90.000
51.66920 109.000
51.68915 110.000
51.70910 89.000
51.72904 111.000
51.74899 92.000
51.76894 103.000
51.78888 109.000
51.80883 93.000
51.82878 107.000
51.84873 103.000
51.86867 89.000
51.88862 103.000
51.90857 106.000
51.92851 80.000
51.94846 90.000
51.96841 87.000
51.98835 100.000
52.00830 94.000
52.02825 109.000
52.04820 89.000
52.06814 97.000
52.08809 118.000
52.10804 104.000
52.12798 103.000
52.14793 92.000
52.16788 111.000
52.18782 95.000
52.20777 75.000
52.22772 99.000
52.24767 100.000
52.26761 78.000
52.28756 81.000
52.30751 95.000
52.32745 101.000
52.34740 82.000
52.36735 128.000
52.38729 115.000
52.40724 106.000
52.42719 83.000
52.44713 97.000
52.46708 110.000
52.48703 104.000
52.50698 124.000
52.52692 88.000
52.54687 106.000
52.56682 104.000
52.58676 106.000
52.60671 124.000
52.62666 113.000
52.64660 112.000
52.66655 136.000
52.68650 132.000
52.70645 142.000
52.72639 151.000
52.74634 145.000
52.76629 147.000
52.78623 182.000
52.80618 201.000
52.82613 209.000
52.84607 211.000
52.86602 184.000
52.88597 211.000
52.90591 238.000
52.92586 208.000
52.94581 212.000
52.96576 178.000
52.98570 189.000
53.00565 168.000
53.02560 173.000
53.04554 140.000
53.06549 134.000
53.08544 137.000
53.10538 157.000
53.12533 135.000
53.14528 138.000
53.16523 118.000
53.18517 122.000
53.20512 127.000
53.22507 134.000
53.24501 111.000
53.26496 108.000
53.28491 98.000
53.30485 121.000
53.32480 131.000
53.34475 120.000
53.36469 110.000
53.38464 99.000
53.40459 137.000
53.42454 118.000
53.44448 129.000
53.46443 119.000
53.48438 140.000
53.50432 109.000
53.52427 120.000
53.54422 147.000
53.56416 145.000
53.58411 150.000
53.60406 143.000
53.62401 179.000
53.64395 206.000
53.66390 158.000
53.68385 165.000
53.70379 132.000
53.72374 146.000
53.74369 143.000
53.76363 133.000
53.78358 131.000
53.80353 139.000
53.82348 130.000
53.84342 122.000
53.86337 128.000
53.88332 111.000
53.90326 95.000
53.92321 118.000
53.94316 102.000
53.96310 105.000
53.98305 89.000
54.00300 117.000
54.02294 97.000
54.04289 115.000
54.06284 105.000
54.08279 87.000
54.10273 123.000
54.12268 115.000
54.14263 88.000
54.16257 103.000
54.18252 91.000
54.20247 114.000
54.22241 87.000
54.24236 100.000
54.26231 105.000
54.28226 106.000
54.30220 107.000
54.32215 101.000
54.34210 109.000
54.36204 92.000
54.38199 110.000
54.40194 103.000
54.42188 91.000
54.44183 105.000
54.46178 103.000
54.48172 88.000
54.50167 87.000
54.52162 92.000
54.54157 103.000
54.56151 107.000
54.58146 94.000
54.60141 106.000
54.62135 98.000
54.64130 89.000
54.66125 105.000
54.68119 119.000
54.70114 103.000
54.72109 91.000
54.74104 95.000
54.76098 85.000
54.78093 87.000
54.80088 107.000
54.82082 106.000
54.84077 99.000
54.86072 107.000
54.88066 118.000
54.90061 110.000
54.92056 109.000
54.94050 97.000
54.96045 91.000
54.98040 89.000
55.00035 99.000
55.02029 87.000
55.04024 96.000
55.06019 93.000
55.08013 105.000
55.10008 96.000
55.12003 99.000
55.13997 110.000
55.15992 99.000
55.17987 88.000
55.19982 96.000
55.21976 90.000
55.23971 99.000
55.25966 92.000
55.27960 118.000
55.29955 111.000
55.31950 109.000
55.33944 125.000
55.35939 107.000
55.37934 114.000
55.39929 118.000
55.41923 109.000
55.43918 109.000
55.45913 115.000
55.47907 109.000
55.49902 112.000
55.51897 103.000
55.53891 108.000
55.55886 111.000
55.57881 104.000
55.59875 102.000
55.61870 109.000
55.63865 100.000
55.65860 102.000
55.67854 99.000
55.69849 119.000
55.71844 106.000
55.73838 97.000
55.75833 89.000
55.77828 114.000
55.79822 88.000
55.81817 101.000
55.83812 115.000
55.85807 109.000
55.87801 86.000
55.89796 104.000
55.91791 120.000
55.93785 124.000
55.95780 92.000
55.97775 101.000
55.99769 98.000
56.01764 105.000
56.03759 117.000
56.05753 108.000
56.07748 114.000
56.09743 90.000
56.11738 102.000
56.13732 96.000
56.15727 92.000
56.17722 100.000
56.19716 98.000
56.21711 107.000
56.23706 121.000
56.25700 90.000
56.27695 119.000
56.29690 91.000
56.31685 111.000
56.33679 102.000
56.35674 106.000
56.37669 102.000
56.39663 104.000
56.41658 103.000
56.43653 104.000
56.45647 111.000
56.47642 99.000
56.49637 125.000
56.51631 104.000
56.53626 106.000
56.55621 104.000
56.57616 91.000
56.59610 111.000
56.61605 124.000
56.63600 96.000
56.65594 106.000
56.67589 97.000
56.69584 124.000
56.71578 107.000
56.73573 104.000
56.75568 121.000
56.77563 125.000
56.79557 107.000
56.81552 97.000
56.83547 106.000
56.85541 116.000
56.87536 115.000
56.89531 122.000
56.91525 143.000
56.93520 130.000
56.95515 142.000
56.97510 124.000
56.99504 152.000
57.01499 164.000
57.03494 179.000
57.05488 172.000
57.07483 216.000
57.09478 228.000
57.11472 237.000
57.13467 283.000
57.15462 346.000
57.17456 330.000
57.19451 339.000
57.21446 351.000
57.23441 348.000
57.25435 236.000
57.27430 266.000
57.29425 283.000
57.31419 272.000
57.33414 267.000
57.35409 296.000
57.37403 214.000
57.39398 226.000
57.41393 240.000
57.43388 207.000
57.45382 244.000
57.47377 274.000
57.49372 260.000
57.51366 253.000
57.53361 275.000
57.55356 265.000
57.57350 276.000
57.59345 254.000
57.61340 294.000
57.63334 230.000
57.65329 248.000
57.67324 178.000
57.69319 226.000
57.71313 198.000
57.73308 219.000
57.75303 207.000
57.77297 190.000
57.79292 148.000
57.81287 169.000
57.83281 136.000
57.85276 141.000
57.87271 129.000
57.89266 143.000
57.91260 132.000
57.93255 125.000
57.95250 119.000
57.97244 120.000
57.99239 112.000
58.01234 111.000
58.03228 111.000
58.05223 114.000
58.07218 110.000
58.09212 105.000
58.11207 121.000
58.13202 107.000
58.15197 117.000
58.17191 106.000
58.19186 102.000
58.21181 115.000
58.23175 112.000
58.25170 94.000
58.27165 116.000
58.29159 120.000
58.31154 112.000
58.33149 109.000
58.35144 114.000
58.37138 108.000
58.39133 120.000
58.41128 110.000
58.43122 104.000
58.45117 102.000
58.47112 94.000
58.49106 109.000
58.51101 128.000
58.53096 91.000
58.55090 117.000
58.57085 95.000
58.59080 83.000
58.61075 83.000
58.63069 111.000
58.65064 98.000
58.67059 91.000
58.69053 84.000
58.71048 97.000
58.73043 100.000
58.75037 98.000
58.77032 101.000
58.79027 100.000
58.81022 74.000
58.83016 86.000
58.85011 105.000
58.87006 70.000
58.89000 86.000
58.90995 104.000
58.92990 97.000
58.94984 104.000
58.96979 112.000
58.98974 111.000
59.00969 98.000
59.02963 86.000
59.04958 102.000
59.06953 98.000
59.08947 103.000
59.10942 121.000
59.12937 92.000
59.14931 107.000
59.16926 94.000
59.18921 84.000
59.20915 97.000
59.22910 110.000
59.24905 94.000
59.26900 117.000
59.28894 101.000
59.30889 106.000
59.32884 82.000
59.34878 87.000
59.36873 98.000
59.38868 97.000
59.40862 102.000
59.42857 108.000
59.44852 79.000
59.46847 90.000
59.48841 110.000
59.50836 87.000
59.52831 111.000
59.54825 101.000
59.56820 86.000
59.58815 82.000
59.60809 87.000
59.62804 98.000
59.64799 98.000
59.66793 100.000
59.68788 116.000
59.70783 85.000
59.72778 100.000
59.74772 92.000
59.76767 101.000
59.78762 97.000
59.80756 85.000
59.82751 107.000
59.84746 89.000
59.86740 97.000
59.88735 114.000
59.90730 96.000
59.92725 127.000
59.94719 97.000
59.96714 126.000
59.98709 132.000
60.00703 106.000
60.02698 126.000
60.04693 108.000
60.06687 130.000
60.08682 115.000
60.10677 134.000
60.12671 120.000
60.14666 141.000
60.16661 137.000
60.18656 128.000
60.20650 142.000
60.22645 112.000
60.24640 108.000
60.26634 122.000
60.28629 109.000
60.30624 123.000
60.32618 117.000
60.34613 118.000
60.36608 121.000
60.38603 113.000
60.40597 130.000
60.42592 131.000
60.44587 117.000
60.46581 128.000
60.48576 112.000
60.50571 126.000
60.52565 146.000
60.54560 130.000
60.56555 99.000
60.58550 134.000
60.60544 133.000
60.62539 122.000
60.64534 121.000
60.66528 129.000
60.68523 119.000
60.70518 115.000
60.72512 127.000
60.74507 117.000
60.76502 103.000
60.78496 133.000
60.80491 124.000
60.82486 125.000
60.84481 114.000
60.86475 131.000
60.88470 115.000
60.90465 141.000
60.92459 128.000
60.94454 129.000
60.96449 133.000
60.98443 127.000
61.00438 139.000
61.02433 126.000
61.04428 142.000
61.06422 122.000
61.08417 121.000
61.10412 135.000
61.12406 124.000
61.14401 146.000
61.16396 147.000
61.18390 136.000
61.20385 135.000
61.22380 141.000
61.24374 155.000
61.26369 154.000
61.28364 149.000
61.30359 145.000
61.32353 155.000
61.34348 119.000
61.36343 147.000
61.38337 156.000
61.40332 138.000
61.42327 146.000
61.44321 170.000
61.46316 157.000
61.48311 162.000
61.50306 152.000
61.52300 178.000
61.54295 138.000
61.56290 142.000
61.58284 152.000
61.60279 153.000
61.62274 142.000
61.64268 168.000
61.66263 154.000
61.68258 185.000
61.70252 207.000
61.72247 176.000
61.74242 151.000
61.76237 155.000
61.78231 160.000
61.80226 165.000
61.82221 179.000
61.84215 176.000
61.86210 185.000
61.88205 172.000
61.90199 179.000
61.92194 174.000
61.94189 169.000
61.96184 173.000
61.98178 160.000
62.00173 170.000
62.02168 193.000
62.04162 172.000
62.06157 164.000
62.08152 175.000
62.10146 156.000
62.12141 178.000
62.14136 191.000
62.16131 180.000
62.18125 167.000
62.20120 205.000
62.22115 156.000
62.24109 187.000
62.26104 190.000
62.28099 188.000
62.30093 184.000
62.32088 173.000
62.34083 154.000
62.36077 161.000
62.38072 173.000
62.40067 184.000
62.42062 177.000
62.44056 160.000
62.46051 164.000
62.48046 166.000
62.50040 161.000
62.52035 166.000
62.54030 182.000
62.56024 184.000
62.58019 176.000
62.60014 190.000
62.62009 187.000
62.64003 206.000
62.65998 225.000
62.67993 241.000
62.69987 285.000
62.71982 322.000
62.73977 391.000
62.75971 429.000
62.77966 484.000
62.79961 478.000
62.81955 532.000
62.83950 487.000
62.85945 403.000
62.87940 340.000
62.89934 326.000
62.91929 264.000
62.93924 312.000
62.95918 329.000
62.97913 287.000
62.99908 320.000
63.01902 281.000
63.03897 209.000
63.05892 181.000
63.07887 168.000
63.09881 137.000
63.11876 123.000
63.13871 117.000
63.15865 117.000
63.17860 98.000
63.19855 119.000
63.21849 105.000
63.23844 95.000
63.25839 115.000
63.27833 137.000
63.29828 121.000
63.31823 93.000
63.33818 113.000
63.35812 71.000
63.37807 88.000
63.39802 103.000
63.41796 92.000
63.43791 112.000
63.45786 111.000
63.47780 94.000
63.49775 99.000
63.51770 99.000
63.53765 79.000
63.55759 95.000
63.57754 101.000
63.59749 82.000
63.61743 105.000
63.63738 86.000
63.65733 91.000
63.67727 89.000
63.69722 95.000
63.71717 116.000
63.73712 95.000
63.75706 95.000
63.77701 112.000
63.79696 93.000
63.81690 77.000
63.83685 98.000
63.85680 98.000
63.87674 107.000
63.89669 90.000
63.91664 88.000
63.93658 102.000
63.95653 87.000
63.97648 104.000
63.99643 106.000
64.01637 82.000
64.03632 93.000
64.05627 90.000
64.07621 89.000
64.09616 108.000
64.11611 81.000
64.13605 84.000
64.15600 106.000
64.17595 92.000
64.19590 92.000
64.21584 94.000
64.23579 92.000
64.25574 105.000
64.27568 93.000
64.29563 113.000
64.31558 107.000
64.33552 108.000
64.35547 112.000
64.37542 106.000
64.39536 106.000
64.41531 103.000
64.43526 118.000
64.45521 98.000
64.47515 130.000
64.49510 105.000
64.51505 127.000
64.53499 99.000
64.55494 118.000
64.57489 130.000
64.59483 123.000
64.61478 110.000
64.63473 121.000
64.65468 118.000
64.67462 124.000
64.69457 122.000
64.71452 155.000
64.73446 135.000
64.75441 139.000
64.77436 136.000
64.79430 104.000
64.81425 128.000
64.83420 124.000
64.85414 124.000
64.87409 131.000
64.89404 121.000
64.91399 110.000
64.93393 118.000
64.95388 122.000
64.97383 121.000
64.99377 120.000
65.01372 113.000
65.03367 109.000
65.05361 104.000
65.07356 112.000
65.09351 109.000
65.11346 88.000
65.13340 98.000
65.15335 109.000
65.17330 96.000
65.19324 106.000
65.21319 111.000
65.23314 119.000
65.25308 108.000
65.27303 94.000
65.29298 107.000
65.31293 96.000
65.33287 99.000
65.35282 102.000
65.37277 105.000
65.39271 87.000
65.41266 107.000
65.43261 84.000
65.45255 99.000
65.47250 105.000
65.49245 97.000
65.51239 83.000
65.53234 78.000
65.55229 116.000
65.57224 101.000
65.59218 96.000
65.61213 112.000
65.63208 93.000
65.65202 104.000
65.67197 99.000
65.69192 107.000
65.71186 112.000
65.73181 93.000
65.75176 99.000
65.77171 107.000
65.79165 103.000
65.81160 86.000
65.83155 102.000
65.85149 85.000
65.87144 93.000
65.89139 103.000
65.91133 93.000
65.93128 116.000
65.95123 128.000
65.97117 118.000
65.99112 112.000
66.01107 94.000
66.03102 123.000
66.05096 124.000
66.07091 122.000
66.09086 123.000
66.11080 109.000
66.13075 133.000
66.15070 121.000
66.17064 118.000
66.19059 122.000
66.21054 117.000
66.23049 103.000
66.25043 116.000
66.27038 115.000
66.29033 118.000
66.31027 98.000
66.33022 104.000
66.35017 103.000
66.37011 123.000
66.39006 97.000
66.41001 105.000
66.42995 105.000
66.44990 92.000
66.46985 85.000
66.48980 112.000
66.50974 76.000
66.52969 80.000
66.54964 74.000
66.56958 88.000
66.58953 108.000
66.60948 89.000
66.62942 102.000
66.64937 90.000
66.66932 110.000
66.68927 101.000
66.70921 88.000
66.72916 87.000
66.74911 81.000
66.76905 100.000
66.78900 95.000
66.80895 91.000
66.82889 96.000
66.84884 90.000
66.86879 92.000
66.88874 94.000
66.90868 82.000
66.92863 97.000
66.94858 99.000
66.96852 98.000
66.98847 107.000
67.00842 86.000
67.02836 110.000
67.04831 94.000
67.06826 77.000
67.08820 86.000
67.10815 86.000
67.12810 105.000
67.14805 95.000
67.16799 82.000
67.18794 84.000
67.20789 84.000
67.22783 102.000
67.24778 89.000
67.26773 103.000
67.28767 79.000
67.30762 83.000
67.32757 81.000
67.34752 98.000
67.36746 76.000
67.38741 99.000
67.40736 89.000
67.42730 95.000
67.44725 84.000
67.46720 90.000
67.48714 90.000
67.50709 103.000
67.52704 92.000
67.54698 117.000
67.56693 108.000
67.58688 112.000
67.60683 85.000
67.62677 95.000
67.64672 103.000
67.66667 99.000
67.68661 110.000
67.70656 93.000
67.72651 118.000
67.74645 106.000
67.76640 111.000
67.78635 115.000
67.80630 121.000
67.82624 111.000
67.84619 107.000
67.86614 138.000
67.88608 131.000
67.90603 136.000
67.92598 145.000
67.94592 108.000
67.96587 129.000
67.98582 120.000
68.00576 136.000
68.02571 146.000
68.04566 140.000
68.06561 121.000
68.08555 140.000
68.10550 129.000
68.12545 108.000
68.14539 125.000
68.16534 135.000
68.18529 115.000
68.20523 122.000
68.22518 101.000
68.24513 120.000
68.26508 100.000
68.28502 107.000
68.30497 114.000
68.32492 89.000
68.34486 98.000
68.36481 109.000
68.38476 92.000
68.40470 107.000
68.42465 105.000
68.44460 89.000
68.46455 73.000
68.48449 83.000
68.50444 83.000
68.52439 87.000
68.54433 95.000
68.56428 101.000
68.58423 86.000
68.60417 73.000
68.62412 97.000
68.64407 95.000
68.66401 87.000
68.68396 99.000
68.70391 106.000
68.72386 89.000
68.74380 110.000
68.76375 84.000
68.78370 90.000
68.80364 93.000
68.82359 90.000
68.84354 95.000
68.86348 91.000
68.88343 101.000
68.90338 87.000
68.92333 93.000
68.94327 101.000
68.96322 91.000
68.98317 97.000
69.00311 104.000
69.02306 101.000
69.04301 111.000
69.06295 103.000
69.08290 86.000
69.10285 86.000
69.12279 93.000
69.14274 94.000
69.16269 97.000
69.18264 101.000
69.20258 93.000
69.22253 93.000
69.24248 93.000
69.26242 92.000
69.28237 91.000
69.30232 83.000
69.32226 92.000
69.34221 104.000
69.36216 91.000
69.38211 62.000
69.40205 78.000
69.42200 104.000
69.44195 84.000
69.46189 86.000
69.48184 108.000
69.50179 86.000
69.52173 100.000
69.54168 105.000
69.56163 76.000
69.58157 93.000
69.60152 89.000
69.62147 92.000
69.64142 80.000
69.66136 83.000
69.68131 84.000
69.70126 89.000
69.72120 86.000
69.74115 93.000
69.76110 86.000
69.78104 90.000
69.80099 110.000
69.82094 75.000
69.84089 90.000
69.86083 96.000
69.88078 103.000
69.90073 74.000
69.92067 76.000
69.94062 85.000
69.96057 92.000
69.98051 84.000
70.00046 81.000
70.02041 99.000
70.04035 108.000
70.06030 78.000
70.08025 72.000
70.10020 86.000
70.12014 71.000
70.14009 93.000
70.16004 90.000
70.17998 76.000
70.19993 75.000
70.21988 90.000
70.23982 93.000
70.25977 98.000
70.27972 93.000
70.29967 94.000
70.31961 85.000
70.33956 73.000
70.35951 87.000
70.37945 78.000
70.39940 75.000
70.41935 77.000
70.43929 85.000
70.45924 69.000
70.47919 76.000
70.49914 70.000
70.51908 97.000
70.53903 82.000
70.55898 67.000
70.57892 74.000
70.59887 67.000
70.61882 88.000
70.63876 86.000
70.65871 95.000
70.67866 80.000
70.69860 97.000
70.71855 86.000
70.73850 90.000
70.75845 84.000
70.77839 92.000
70.79834 84.000
70.81829 88.000
70.83823 78.000
70.85818 93.000
70.87813 89.000
70.89807 96.000
70.91802 86.000
70.93797 93.000
70.95792 97.000
70.97786 83.000
70.99781 88.000
71.01776 103.000
71.03770 98.000
71.05765 101.000
71.07760 79.000
71.09754 103.000
71.11749 79.000
71.13744 96.000
71.15738 119.000
71.17733 105.000
71.19728 114.000
71.21723 97.000
71.23717 99.000
71.25712 109.000
71.27707 91.000
71.29701 115.000
71.31696 120.000
71.33691 115.000
71.35685 113.000
71.37680 108.000
71.39675 125.000
71.41670 99.000
71.43664 87.000
71.45659 90.000
71.47654 105.000
71.49648 84.000
71.51643 103.000
71.53638 89.000
71.55632 81.000
71.57627 109.000
71.59622 107.000
71.61616 85.000
71.63611 98.000
71.65606 88.000
71.67601 93.000
71.69595 98.000
71.71590 92.000
71.73585 96.000
71.75579 93.000
71.77574 97.000
71.79569 95.000
71.81563 105.000
71.83558 103.000
71.85553 97.000
71.87548 109.000
71.89542 109.000
71.91537 115.000
71.93532 112.000
71.95526 116.000
71.97521 118.000
71.99516 131.000
72.01510 117.000
72.03505 140.000
72.05500 124.000
72.07495 120.000
72.09489 110.000
72.11484 113.000
72.13479 133.000
72.15473 104.000
72.17468 133.000
72.19463 142.000
72.21457 132.000
72.23452 112.000
72.25447 133.000
72.27441 128.000
72.29436 130.000
72.31431 136.000
72.33426 111.000
72.35420 134.000
72.37415 102.000
72.39410 107.000
72.41404 107.000
72.43399 106.000
72.45394 108.000
72.47388 91.000
72.49383 100.000
72.51378 110.000
72.53373 90.000
72.55367 103.000
72.57362 106.000
72.59357 91.000
72.61351 88.000
72.63346 95.000
72.65341 93.000
72.67335 92.000
72.69330 91.000
72.71325 95.000
72.73319 87.000
72.75314 103.000
72.77309 78.000
72.79304 102.000
72.81298 79.000
72.83293 78.000
72.85288 104.000
72.87282 72.000
72.89277 97.000
72.91272 102.000
72.93266 94.000
72.95261 85.000
72.97256 73.000
72.99251 90.000
73.01245 100.000
73.03240 93.000
73.05235 100.000
73.07229 91.000
73.09224 85.000
73.11219 78.000
73.13213 85.000
73.15208 91.000
73.17203 121.000
73.19197 90.000
73.21192 100.000
73.23187 85.000
73.25182 93.000
73.27176 105.000
73.29171 75.000
73.31166 97.000
73.33160 102.000
73.35155 92.000
73.37150 94.000
73.39144 95.000
73.41139 88.000
73.43134 91.000
73.45129 99.000
73.47123 123.000
73.49118 100.000
73.51113 96.000
73.53107 96.000
73.55102 75.000
73.57097 116.000
73.59091 118.000
73.61086 109.000
73.63081 113.000
73.65076 101.000
73.67070 110.000
73.69065 117.000
73.71060 121.000
73.73054 106.000
73.75049 110.000
73.77044 125.000
73.79038 121.000
73.81033 107.000
73.83028 125.000
73.85022 125.000
73.87017 107.000
73.89012 108.000
73.91007 112.000
73.93001 109.000
73.94996 109.000
73.96991 108.000
73.98985 122.000
74.00980 110.000
74.02975 103.000
74.04969 104.000
74.06964 119.000
74.08959 107.000
74.10954 110.000
74.12948 95.000
74.14943 95.000
74.16938 124.000
74.18932 108.000
74.20927 119.000
74.22922 113.000
74.24916 118.000
74.26911 142.000
74.28906 137.000
74.30900 162.000
74.32895 134.000
74.34890 129.000
74.36885 139.000
74.38879 138.000
74.40874 144.000
74.42869 115.000
74.44863 130.000
74.46858 108.000
74.48853 117.000
74.50847 109.000
74.52842 106.000
74.54837 112.000
74.56832 119.000
74.58826 96.000
74.60821 123.000
74.62816 117.000
74.64810 100.000
74.66805 97.000
74.68800 96.000
74.70794 99.000
74.72789 90.000
74.74784 124.000
74.76778 107.000
74.78773 90.000
74.80768 110.000
74.82763 92.000
74.84757 95.000
74.86752 98.000
74.88747 104.000
74.90741 96.000
74.92736 116.000
74.94731 84.000
74.96725 90.000
74.98720 82.000
75.00715 81.000
75.02710 95.000
75.04704 90.000
75.06699 86.000
75.08694 98.000
75.10688 88.000
75.12683 95.000
75.14678 105.000
75.16672 91.000
75.18667 100.000
75.20662 75.000
75.22657 107.000
75.24651 100.000
75.26646 96.000
75.28641 96.000
75.30635 107.000
75.32630 96.000
75.34625 103.000
75.36619 90.000
75.38614 97.000
75.40609 119.000
75.42603 106.000
75.44598 93.000
75.46593 102.000
75.48588 108.000
75.50582 79.000
75.52577 93.000
75.54572 86.000
75.56566 117.000
75.58561 81.000
75.60556 98.000
75.62550 74.000
75.64545 88.000
75.66540 83.000
75.68535 79.000
75.70529 90.000
75.72524 88.000
75.74519 93.000
75.76513 81.000
75.78508 87.000
75.80503 87.000
75.82497 62.000
75.84492 82.000
75.86487 103.000
75.88481 74.000
75.90476 97.000
75.92471 68.000
75.94466 87.000
75.96460 70.000
75.98455 80.000
76.00450 92.000
76.02444 66.000
76.04439 71.000
76.06434 80.000
76.08428 78.000
76.10423 79.000
76.12418 77.000
76.14413 71.000
76.16407 83.000
76.18402 57.000
76.20397 95.000
76.22391 82.000
76.24386 77.000
76.26381 70.000
76.28375 73.000
76.30370 72.000
76.32365 88.000
76.34359 78.000
76.36354 90.000
76.38349 98.000
76.40344 89.000
76.42338 74.000
76.44333 94.000
76.46328 87.000
76.48322 73.000
76.50317 58.000
76.52312 64.000
76.54306 77.000
76.56301 73.000
76.58296 72.000
76.60291 84.000
76.62285 108.000
76.64280 97.000
76.66275 102.000
76.68269 92.000
76.70264 97.000
76.72259 85.000
76.74253 85.000
76.76248 75.000
76.78243 69.000
76.80238 112.000
76.82232 90.000
76.84227 69.000
76.86222 89.000
76.88216 100.000
76.90211 81.000
76.92206 93.000
76.94200 103.000
76.96195 97.000
76.98190 93.000
77.00184 103.000
77.02179 103.000
77.04174 83.000
77.06169 102.000
77.08163 102.000
77.10158 91.000
77.12153 89.000
77.14147 106.000
77.16142 99.000
77.18137 112.000
77.20131 103.000
77.22126 116.000
77.24121 125.000
77.26116 137.000
77.28110 114.000
77.30105 107.000
77.32100 91.000
77.34094 100.000
77.36089 92.000
77.38084 110.000
77.40078 121.000
77.42073 115.000
77.44068 120.000
77.46062 106.000
77.48057 128.000
77.50052 109.000
77.52047 119.000
77.54041 105.000
77.56036 83.000
77.58031 126.000
77.60025 112.000
77.62020 112.000
77.64015 79.000
77.66009 115.000
77.68004 98.000
77.69999 115.000
77.71994 89.000
77.73988 92.000
77.75983 86.000
77.77978 91.000
77.79972 98.000
77.81967 85.000
77.83962 89.000
77.85956 84.000
77.87951 78.000
77.89946 100.000
77.91940 92.000
77.93935 93.000
77.95930 92.000
77.97925 100.000
77.99919 89.000
78.01914 71.000
78.03909 79.000
78.05903 106.000
78.07898 105.000
78.09893 83.000
78.11887 104.000
78.13882 85.000
78.15877 97.000
78.17872 88.000
78.19866 97.000
78.21861 79.000
78.23856 83.000
78.25850 70.000
78.27845 82.000
78.29840 95.000
78.31834 88.000
78.33829 106.000
78.35824 72.000
78.37819 82.000
78.39813 77.000
78.41808 84.000
78.43803 97.000
78.45797 83.000
78.47792 64.000
78.49787 77.000
78.51781 83.000
78.53776 95.000
78.55771 79.000
78.57765 78.000
78.59760 77.000
78.61755 84.000
78.63750 78.000
78.65744 80.000
78.67739 72.000
78.69734 69.000
78.71728 84.000
78.73723 76.000
78.75718 81.000
78.77712 84.000
78.79707 72.000
78.81702 86.000
78.83697 83.000
78.85691 90.000
78.87686 74.000
78.89681 88.000
78.91675 86.000
78.93670 72.000
78.95665 76.000
78.97659 84.000
78.99654 73.000
79.01649 86.000
79.03643 80.000
79.05638 83.000
79.07633 93.000
79.09628 77.000
79.11622 80.000
79.13617 92.000
79.15612 84.000
79.17606 93.000
79.19601 78.000
79.21596 68.000
79.23590 89.000
79.25585 76.000
79.27580 78.000
79.29575 81.000
79.31569 80.000
79.33564 91.000
79.35559 114.000
79.37553 92.000
79.39548 96.000
79.41543 82.000
79.43537 89.000
79.45532 90.000
79.47527 68.000
79.49521 70.000
79.51516 77.000
79.53511 83.000
79.55506 76.000
79.57500 87.000
79.59495 85.000
79.61490 93.000
79.63484 83.000
79.65479 106.000
79.67474 96.000
79.69468 89.000
79.71463 89.000
79.73458 78.000
79.75453 100.000
79.77447 75.000
79.79442 74.000
79.81437 108.000
79.83431 104.000
79.85426 74.000
79.87421 96.000
79.89415 75.000
79.91410 82.000
79.93405 85.000
79.95399 85.000
79.97394 87.000
79.99389 82.000
80.01384 84.000
80.03378 89.000
80.05373 77.000
80.07368 93.000
80.09362 96.000
80.11357 63.000
80.13352 81.000
80.15346 76.000
80.17341 94.000
80.19336 80.000
80.21331 89.000
80.23325 99.000
80.25320 88.000
80.27315 77.000
80.29309 72.000
80.31304 74.000
80.33299 72.000
80.35293 88.000
80.37288 72.000
80.39283 88.000
80.41278 105.000
80.43272 71.000
80.45267 88.000
80.47262 81.000
80.49256 78.000
80.51251 81.000
80.53246 84.000
80.55240 88.000
80.57235 71.000
80.59230 63.000
80.61224 79.000
80.63219 89.000
80.65214 95.000
80.67209 73.000
80.69203 72.000
80.71198 78.000
80.73193 84.000
80.75187 62.000
80.77182 82.000
80.79177 91.000
80.81171 77.000
80.83166 81.000
80.85161 100.000
80.87156 84.000
80.89150 90.000
80.91145 85.000
80.93140 77.000
80.95134 68.000
80.97129 66.000
80.99124 76.000
81.01118 112.000
81.03113 77.000
81.05108 97.000
81.07102 82.000
81.09097 78.000
81.11092 94.000
81.13087 83.000
81.15081 86.000
81.17076 83.000
81.19071 85.000
81.21065 88.000
81.23060 85.000
81.25055 87.000
81.27049 92.000
81.29044 83.000
81.31039 75.000
81.33034 73.000
81.35028 93.000
81.37023 92.000
81.39018 84.000
81.41012 91.000
81.43007 82.000
81.45002 70.000
81.46996 79.000
81.48991 75.000
81.50986 92.000
81.52980 80.000
81.54975 86.000
81.56970 92.000
81.58965 96.000
81.60959 96.000
81.62954 104.000
81.64949 76.000
81.66943 75.000
81.68938 61.000
81.70933 80.000
81.72927 65.000
81.74922 82.000
81.76917 71.000
81.78912 80.000
81.80906 91.000
81.82901 100.000
81.84896 76.000
81.86890 88.000
81.88885 94.000
81.90880 96.000
81.92874 70.000
81.94869 82.000
81.96864 81.000
81.98859 72.000
82.00853 87.000
82.02848 82.000
82.04843 98.000
82.06837 73.000
82.08832 86.000
82.10827 90.000
82.12821 101.000
82.14816 77.000
82.16811 96.000
82.18805 97.000
82.20800 81.000
82.22795 90.000
82.24790 96.000
82.26784 95.000
82.28779 99.000
82.30774 76.000
82.32768 92.000
82.34763 83.000
82.36758 76.000
82.38752 85.000
82.40747 80.000
82.42742 86.000
82.44737 72.000
82.46731 93.000
82.48726 93.000
82.50721 90.000
82.52715 87.000
82.54710 101.000
82.56705 78.000
82.58699 81.000
82.60694 78.000
82.62689 92.000
82.64683 83.000
82.66678 70.000
82.68673 77.000
82.70668 99.000
82.72662 77.000
82.74657 82.000
82.76652 83.000
82.78646 87.000
82.80641 73.000
82.82636 73.000
82.84630 84.000
82.86625 86.000
82.88620 75.000
82.90615 78.000
82.92609 80.000
82.94604 97.000
82.96599 75.000
82.98593 88.000
83.00588 84.000
83.02583 78.000
83.04577 80.000
83.06572 92.000
83.08567 78.000
83.10561 81.000
83.12556 82.000
83.14551 71.000
83.16546 80.000
83.18540 91.000
83.20535 93.000
83.22530 73.000
83.24524 103.000
83.26519 83.000
83.28514 74.000
83.30508 85.000
83.32503 93.000
83.34498 76.000
83.36493 74.000
83.38487 97.000
83.40482 79.000
83.42477 94.000
83.44471 83.000
83.46466 95.000
83.48461 74.000
83.50455 80.000
83.52450 88.000
83.54445 94.000
83.56440 66.000
83.58434 77.000
83.60429 76.000
83.62424 78.000
83.64418 76.000
83.66413 72.000
83.68408 82.000
83.70402 72.000
83.72397 78.000
83.74392 90.000
83.76386 82.000
83.78381 81.000
83.80376 100.000
83.82371 84.000
83.84365 109.000
83.86360 80.000
83.88355 78.000
83.90349 87.000
83.92344 79.000
83.94339 94.000
83.96333 87.000
83.98328 84.000
84.00323 70.000
84.02318 94.000
84.04312 72.000
84.06307 93.000
84.08302 74.000
84.10296 67.000
84.12291 79.000
84.14286 75.000
84.16280 86.000
84.18275 89.000
84.20270 78.000
84.22264 88.000
84.24259 77.000
84.26254 80.000
84.28249 82.000
84.30243 84.000
84.32238 84.000
84.34233 89.000
84.36227 77.000
84.38222 86.000
84.40217 91.000
84.42211 94.000
84.44206 71.000
84.46201 77.000
84.48196 94.000
84.50190 85.000
84.52185 88.000
84.54180 74.000
84.56174 75.000
84.58169 91.000
84.60164 69.000
84.62158 87.000
84.64153 75.000
84.66148 69.000
84.68142 80.000
84.70137 74.000
84.72132 87.000
84.74127 81.000
84.76121 83.000
84.78116 71.000
84.80111 87.000
84.82105 64.000
84.84100 91.000
84.86095 79.000
84.88089 86.000
84.90084 73.000
84.92079 74.000
84.94074 91.000
84.96068 85.000
84.98063 88.000
85.00058 87.000
85.02052 70.000
85.04047 68.000
85.06042 71.000
85.08036 71.000
85.10031 94.000
85.12026 87.000
85.14021 86.000
85.16015 85.000
85.18010 78.000
85.20005 80.000
85.21999 80.000
85.23994 67.000
85.25989 83.000
85.27983 81.000
85.29978 76.000
85.31973 104.000
85.33967 85.000
85.35962 59.000
85.37957 73.000
85.39952 93.000
85.41946 67.000
85.43941 68.000
85.45936 72.000
85.47930 80.000
85.49925 82.000
85.51920 65.000
85.53914 73.000
85.55909 62.000
85.57904 83.000
85.59899 92.000
85.61893 76.000
85.63888 80.000
85.65883 91.000
85.67877 71.000
85.69872 93.000
85.71867 80.000
85.73861 74.000
85.75856 95.000
85.77851 90.000
85.79845 93.000
85.81840 91.000
85.83835 94.000
85.85830 90.000
85.87824 86.000
85.89819 85.000
85.91814 100.000
85.93808 76.000
85.95803 105.000
85.97798 92.000
85.99792 85.000
86.01787 103.000
86.03782 87.000
86.05777 112.000
86.07771 81.000
86.09766 90.000
86.11761 103.000
86.13755 96.000
86.15750 115.000
86.17745 92.000
86.19739 79.000
86.21734 91.000
86.23729 88.000
86.25723 82.000
86.27718 101.000
86.29713 85.000
86.31708 103.000
86.33702 88.000
86.35697 102.000
86.37692 76.000
86.39686 79.000
86.41681 76.000
86.43676 93.000
86.45670 80.000
86.47665 85.000
86.49660 81.000
86.51655 77.000
86.53649 80.000
86.55644 94.000
86.57639 81.000
86.59633 94.000
86.61628 87.000
86.63623 98.000
86.65617 78.000
86.67612 73.000
86.69607 101.000
86.71602 63.000
86.73596 96.000
86.75591 88.000
86.77586 91.000
86.79580 97.000
86.81575 72.000
86.83570 94.000
86.85564 77.000
86.87559 75.000
86.89554 96.000
86.91548 98.000
86.93543 74.000
86.95538 92.000
86.97533 85.000
86.99527 89.000
87.01522 87.000
87.03517 83.000
87.05511 86.000
87.07506 86.000
87.09501 89.000
87.11495 88.000
87.13490 104.000
87.15485 106.000
87.17480 82.000
87.19474 99.000
87.21469 97.000
87.23464 112.000
87.25458 90.000
87.27453 98.000
87.29448 84.000
87.31442 115.000
87.33437 79.000
87.35432 80.000
87.37426 99.000
87.39421 97.000
87.41416 95.000
87.43411 96.000
87.45405 110.000
87.47400 88.000
87.49395 76.000
87.51389 91.000
87.53384 80.000
87.55379 65.000
87.57373 79.000
87.59368 94.000
87.61363 90.000
87.63358 88.000
87.65352 86.000
87.67347 65.000
87.69342 81.000
87.71336 77.000
87.73331 73.000
87.75326 79.000
87.77320 73.000
87.79315 80.000
87.81310 85.000
87.83304 72.000
87.85299 67.000
87.87294 72.000
87.89289 66.000
87.91283 62.000
87.93278 66.000
87.95273 82.000
87.97267 92.000
87.99262 65.000
88.01257 84.000
88.03251 83.000
88.05246 68.000
88.07241 79.000
88.09236 91.000
88.11230 79.000
88.13225 78.000
88.15220 77.000
88.17214 80.000
88.19209 70.000
88.21204 77.000
88.23198 70.000
88.25193 76.000
88.27188 74.000
88.29183 88.000
88.31177 91.000
88.33172 71.000
88.35167 66.000
88.37161 58.000
88.39156 87.000
88.41151 79.000
88.43145 84.000
88.45140 76.000
88.47135 68.000
88.49129 88.000
88.51124 82.000
88.53119 92.000
88.55114 73.000
88.57108 83.000
88.59103 81.000
88.61098 96.000
88.63092 72.000
88.65087 62.000
88.67082 79.000
88.69076 80.000
88.71071 79.000
88.73066 82.000
88.75061 84.000
88.77055 88.000
88.79050 87.000
88.81045 80.000
88.83039 78.000
88.85034 70.000
88.87029 87.000
88.89023 69.000
88.91018 73.000
88.93013 82.000
88.95007 89.000
88.97002 91.000
88.98997 76.000
89.00992 88.000
89.02986 80.000
89.04981 78.000
89.06976 87.000
89.08970 96.000
89.10965 79.000
89.12960 56.000
89.14954 84.000
89.16949 102.000
89.18944 84.000
89.20939 79.000
89.22933 66.000
89.24928 81.000
89.26923 89.000
89.28917 94.000
89.30912 89.000
89.32907 96.000
89.34901 80.000
89.36896 90.000
89.38891 85.000
89.40885 101.000
89.42880 91.000
89.44875 72.000
89.46870 101.000
89.48864 97.000
89.50859 83.000
89.52854 91.000
89.54848 98.000
89.56843 99.000
89.58838 83.000
89.60832 84.000
89.62827 106.000
89.64822 108.000
89.66817 98.000
89.68811 102.000
89.70806 129.000
89.72801 97.000
89.74795 90.000
89.76790 119.000
89.78785 124.000
89.80779 127.000
89.82774 107.000
89.84769 103.000
89.86764 120.000
89.88758 131.000
89.90753 124.000
89.92748 113.000
89.94742 125.000
89.96737 141.000
89.98732 139.000
90.00726 152.000
