10.00000 156.000
10.01995 146.000
10.03989 143.000
10.05984 145.000
10.07979 150.000
10.09973 145.000
10.11968 149.000
10.13963 141.000
10.15958 153.000
10.17952 145.000
10.19947 135.000
10.21942 140.000
10.23936 149.000
10.25931 158.000
10.27926 127.000
10.29920 141.000
10.31915 138.000
10.33910 156.000
10.35905 130.000
10.37899 175.000
10.39894 147.000
10.41889 165.000
10.43883 137.000
10.45878 126.000
10.47873 174.000
10.49867 155.000
10.51862 166.000
10.53857 169.000
10.55851 145.000
10.57846 141.000
10.59841 170.000
10.61836 139.000
10.63830 177.000
10.65825 154.000
10.67820 176.000
10.69814 147.000
10.71809 135.000
10.73804 160.000
10.75798 133.000
10.77793 141.000
10.79788 144.000
10.81783 164.000
10.83777 173.000
10.85772 155.000
10.87767 147.000
10.89761 163.000
10.91756 162.000
10.93751 157.000
10.95745 160.000
10.97740 148.000
10.99735 138.000
11.01730 153.000
11.03724 132.000
11.05719 158.000
11.07714 148.000
11.09708 141.000
11.11703 158.000
11.13698 166.000
11.15692 175.000
11.17687 160.000
11.19682 173.000
11.21676 173.000
11.23671 145.000
11.25666 173.000
11.27661 158.000
11.29655 172.000
11.31650 171.000
11.33645 152.000
11.35639 143.000
11.37634 155.000
11.39629 152.000
11.41623 176.000
11.43618 144.000
11.45613 164.000
11.47608 162.000
11.49602 153.000
11.51597 173.000
11.53592 166.000
11.55586 180.000
11.57581 148.000
11.59576 174.000
11.61570 151.000
11.63565 161.000
11.65560 198.000
11.67554 153.000
11.69549 156.000
11.71544 177.000
11.73539 167.000
11.75533 168.000
11.77528 149.000
11.79523 167.000
11.81517 154.000
11.83512 161.000
11.85507 152.000
11.87501 183.000
11.89496 159.000
11.91491 165.000
11.93486 178.000
11.95480 164.000
11.97475 183.000
11.99470 182.000
12.01464 179.000
12.03459 178.000
12.05454 159.000
12.07448 155.000
12.09443 202.000
12.11438 155.000
12.13432 150.000
12.15427 136.000
12.17422 139.000
12.19417 163.000
12.21411 150.000
12.23406 153.000
12.25401 156.000
12.27395 171.000
12.29390 178.000
12.31385 203.000
12.33379 160.000
12.35374 153.000
12.37369 157.000
12.39364 158.000
12.41358 152.000
12.43353 165.000
12.45348 162.000
12.47342 180.000
12.49337 172.000
12.51332 178.000
12.53326 166.000
12.55321 179.000
12.57316 151.000
12.59311 149.000
12.61305 203.000
12.63300 162.000
12.65295 155.000
12.67289 152.000
12.69284 156.000
12.71279 183.000
12.73273 196.000
12.75268 206.000
12.77263 173.000
12.79257 171.000
12.81252 155.000
12.83247 192.000
12.85242 188.000
12.87236 178.000
12.89231 182.000
12.91226 182.000
12.93220 182.000
12.95215 190.000
12.97210 168.000
12.99204 165.000
13.01199 189.000
13.03194 172.000
13.05189 186.000
13.07183 180.000
13.09178 180.000
13.11173 165.000
13.13167 181.000
13.15162 182.000
13.17157 191.000
13.19151 172.000
13.21146 167.000
13.23141 189.000
13.25135 162.000
13.27130 175.000
13.29125 188.000
13.31120 172.000
13.33114 177.000
13.35109 198.000
13.37104 198.000
13.39098 170.000
13.41093 148.000
13.43088 192.000
13.45082 179.000
13.47077 206.000
13.49072 187.000
13.51067 186.000
13.53061 180.000
13.55056 150.000
13.57051 172.000
13.59045 186.000
13.61040 205.000
13.63035 165.000
13.65029 187.000
13.67024 184.000
13.69019 193.000
13.71013 167.000
13.73008 186.000
13.75003 184.000
13.76998 192.000
13.78992 159.000
13.80987 195.000
13.82982 194.000
13.84976 170.000
13.86971 156.000
13.88966 202.000
13.90960 171.000
13.92955 161.000
13.94950 180.000
13.96945 176.000
13.98939 188.000
14.00934 196.000
14.02929 190.000
14.04923 173.000
14.06918 186.000
14.08913 183.000
14.10907 211.000
14.12902 185.000
14.14897 174.000
14.16892 184.000
14.18886 183.000
14.20881 188.000
14.22876 183.000
14.24870 210.000
14.26865 185.000
14.28860 181.000
14.30854 195.000
14.32849 206.000
14.34844 185.000
14.36838 204.000
14.38833 215.000
14.40828 177.000
14.42823 168.000
14.44817 187.000
14.46812 176.000
14.48807 204.000
14.50801 211.000
14.52796 182.000
14.54791 194.000
14.56785 187.000
14.58780 194.000
14.60775 179.000
14.62770 182.000
14.64764 199.000
14.66759 199.000
14.68754 195.000
14.70748 203.000
14.72743 182.000
14.74738 194.000
14.76732 182.000
14.78727 208.000
14.80722 209.000
14.82716 186.000
14.84711 200.000
14.86706 182.000
14.88701 187.000
14.90695 177.000
14.92690 206.000
14.94685 199.000
14.96679 194.000
14.98674 175.000
15.00669 197.000
15.02663 224.000
15.04658 202.000
15.06653 193.000
15.08648 169.000
15.10642 205.000
15.12637 194.000
15.14632 190.000
15.16626 195.000
15.18621 196.000
15.20616 178.000
15.22610 197.000
15.24605 182.000
15.26600 195.000
15.28594 216.000
15.30589 201.000
15.32584 209.000
15.34579 202.000
15.36573 218.000
15.38568 218.000
15.40563 203.000
15.42557 199.000
15.44552 207.000
15.46547 219.000
15.48541 205.000
15.50536 200.000
15.52531 213.000
15.54526 223.000
15.56520 225.000
15.58515 235.000
15.60510 226.000
15.62504 232.000
15.64499 228.000
15.66494 222.000
15.68488 212.000
15.70483 203.000
15.72478 212.000
15.74472 213.000
15.76467 212.000
15.78462 241.000
15.80457 214.000
15.82451 192.000
15.84446 224.000
15.86441 217.000
15.88435 183.000
15.90430 238.000
15.92425 209.000
15.94419 198.000
15.96414 212.000
15.98409 212.000
16.00404 253.000
16.02398 208.000
16.04393 223.000
16.06388 227.000
16.08382 186.000
16.10377 200.000
16.12372 250.000
16.14366 215.000
16.16361 193.000
16.18356 191.000
16.20351 226.000
16.22345 215.000
16.24340 219.000
16.26335 228.000
16.28329 212.000
16.30324 219.000
16.32319 237.000
16.34313 197.000
16.36308 242.000
16.38303 202.000
16.40297 216.000
16.42292 225.000
16.44287 199.000
16.46282 232.000
16.48276 211.000
16.50271 204.000
16.52266 194.000
16.54260 197.000
16.56255 232.000
16.58250 232.000
16.60244 229.000
16.62239 230.000
16.64234 236.000
16.66229 237.000
16.68223 242.000
16.70218 244.000
16.72213 223.000
16.74207 233.000
16.76202 243.000
16.78197 240.000
16.80191 223.000
16.82186 219.000
16.84181 247.000
16.86175 248.000
16.88170 221.000
16.90165 226.000
16.92160 223.000
16.94154 228.000
16.96149 214.000
16.98144 218.000
17.00138 232.000
17.02133 227.000
17.04128 221.000
17.06122 247.000
17.08117 212.000
17.10112 215.000
17.12107 213.000
17.14101 225.000
17.16096 199.000
17.18091 212.000
17.20085 244.000
17.22080 248.000
17.24075 212.000
17.26069 234.000
17.28064 241.000
17.30059 238.000
17.32053 216.000
17.34048 216.000
17.36043 236.000
17.38038 220.000
17.40032 231.000
17.42027 223.000
17.44022 219.000
17.46016 212.000
17.48011 230.000
17.50006 222.000
17.52000 243.000
17.53995 235.000
17.55990 235.000
17.57985 226.000
17.59979 251.000
17.61974 226.000
17.63969 229.000
17.65963 208.000
17.67958 253.000
17.69953 213.000
17.71947 206.000
17.73942 227.000
17.75937 257.000
17.77932 223.000
17.79926 241.000
17.81921 219.000
17.83916 247.000
17.85910 229.000
17.87905 209.000
17.89900 234.000
17.91894 237.000
17.93889 236.000
17.95884 226.000
17.97878 248.000
17.99873 250.000
18.01868 267.000
18.03863 279.000
18.05857 271.000
18.07852 262.000
18.09847 263.000
18.11841 271.000
18.13836 306.000
18.15831 267.000
18.17825 303.000
18.19820 269.000
18.21815 304.000
18.23810 297.000
18.25804 267.000
18.27799 275.000
18.29794 245.000
18.31788 263.000
18.33783 244.000
18.35778 281.000
18.37772 271.000
18.39767 258.000
18.41762 251.000
18.43756 239.000
18.45751 233.000
18.47746 238.000
18.49741 246.000
18.51735 251.000
18.53730 231.000
18.55725 241.000
18.57719 222.000
18.59714 222.000
18.61709 224.000
18.63703 272.000
18.65698 233.000
18.67693 218.000
18.69688 212.000
18.71682 253.000
18.73677 242.000
18.75672 251.000
18.77666 244.000
18.79661 251.000
18.81656 214.000
18.83650 247.000
18.85645 251.000
18.87640 242.000
18.89634 256.000
18.91629 215.000
18.93624 217.000
18.95619 216.000
18.97613 262.000
18.99608 245.000
19.01603 259.000
19.03597 212.000
19.05592 257.000
19.07587 228.000
19.09581 258.000
19.11576 253.000
19.13571 237.000
19.15566 242.000
19.17560 245.000
19.19555 246.000
19.21550 235.000
19.23544 231.000
19.25539 259.000
19.27534 223.000
19.29528 240.000
19.31523 250.000
19.33518 235.000
19.35513 243.000
19.37507 247.000
19.39502 266.000
19.41497 242.000
19.43491 234.000
19.45486 243.000
19.47481 242.000
19.49475 196.000
19.51470 234.000
19.53465 232.000
19.55459 236.000
19.57454 264.000
19.59449 250.000
19.61444 223.000
19.63438 216.000
19.65433 251.000
19.67428 238.000
19.69422 249.000
19.71417 222.000
19.73412 258.000
19.75406 262.000
19.77401 283.000
19.79396 277.000
19.81391 298.000
19.83385 259.000
19.85380 252.000
19.87375 266.000
19.89369 234.000
19.91364 266.000
19.93359 276.000
19.95353 238.000
19.97348 261.000
19.99343 253.000
20.01337 251.000
20.03332 286.000
20.05327 268.000
20.07322 278.000
20.09316 261.000
20.11311 297.000
20.13306 296.000
20.15300 339.000
20.17295 263.000
20.19290 341.000
20.21284 326.000
20.23279 343.000
20.25274 364.000
20.27269 380.000
20.29263 413.000
20.31258 364.000
20.33253 476.000
20.35247 451.000
20.37242 432.000
20.39237 495.000
20.41231 501.000
20.43226 480.000
20.45221 552.000
20.47215 579.000
20.49210 569.000
20.51205 591.000
20.53200 637.000
20.55194 708.000
20.57189 694.000
20.59184 633.000
20.61178 660.000
20.63173 597.000
20.65168 648.000
20.67162 626.000
20.69157 537.000
20.71152 519.000
20.73147 530.000
20.75141 433.000
20.77136 449.000
20.79131 438.000
20.81125 402.000
20.83120 404.000
20.85115 350.000
20.87109 373.000
20.89104 329.000
20.91099 357.000
20.93094 298.000
20.95088 320.000
20.97083 272.000
20.99078 256.000
21.01072 278.000
21.03067 281.000
21.05062 277.000
21.07056 256.000
21.09051 265.000
21.11046 274.000
21.13040 253.000
21.15035 245.000
21.17030 244.000
21.19025 253.000
21.21019 237.000
21.23014 258.000
21.25009 268.000
21.27003 255.000
21.28998 240.000
21.30993 249.000
21.32987 259.000
21.34982 230.000
21.36977 292.000
21.38972 269.000
21.40966 240.000
21.42961 246.000
21.44956 253.000
21.46950 252.000
21.48945 262.000
21.50940 243.000
21.52934 256.000
21.54929 252.000
21.56924 259.000
21.58918 260.000
21.60913 261.000
21.62908 250.000
21.64903 213.000
21.66897 238.000
21.68892 246.000
21.70887 233.000
21.72881 263.000
21.74876 247.000
21.76871 240.000
21.78865 265.000
21.80860 254.000
21.82855 232.000
21.84850 250.000
21.86844 263.000
21.88839 267.000
21.90834 239.000
21.92828 252.000
21.94823 276.000
21.96818 270.000
21.98812 241.000
22.00807 248.000
22.02802 287.000
22.04796 273.000
22.06791 242.000
22.08786 219.000
22.10781 239.000
22.12775 257.000
22.14770 228.000
22.16765 268.000
22.18759 265.000
22.20754 261.000
22.22749 257.000
22.24743 257.000
22.26738 261.000
22.28733 261.000
22.30728 243.000
22.32722 246.000
22.34717 241.000
22.36712 265.000
22.38706 258.000
22.40701 290.000
22.42696 244.000
22.44690 255.000
22.46685 261.000
22.48680 266.000
22.50675 297.000
22.52669 240.000
22.54664 254.000
22.56659 259.000
22.58653 250.000
22.60648 286.000
22.62643 260.000
22.64637 234.000
22.66632 267.000
22.68627 266.000
22.70621 280.000
22.72616 248.000
22.74611 251.000
22.76606 290.000
22.78600 284.000
22.80595 239.000
22.82590 283.000
22.84584 272.000
22.86579 258.000
22.88574 261.000
22.90568 263.000
22.92563 263.000
22.94558 255.000
22.96553 256.000
22.98547 289.000
23.00542 274.000
23.02537 247.000
23.04531 282.000
23.06526 284.000
23.08521 317.000
23.10515 279.000
23.12510 279.000
23.14505 256.000
23.16499 265.000
23.18494 240.000
23.20489 271.000
23.22484 287.000
23.24478 286.000
23.26473 287.000
23.28468 270.000
23.30462 276.000
23.32457 277.000
23.34452 258.000
23.36446 290.000
23.38441 252.000
23.40436 253.000
23.42431 261.000
23.44425 265.000
23.46420 266.000
23.48415 259.000
23.50409 250.000
23.52404 294.000
23.54399 265.000
23.56393 278.000
23.58388 282.000
23.60383 283.000
23.62377 281.000
23.64372 297.000
23.66367 265.000
23.68362 274.000
23.70356 265.000
23.72351 235.000
23.74346 283.000
23.76340 266.000
23.78335 267.000
23.80330 281.000
23.82324 267.000
23.84319 276.000
23.86314 270.000
23.88309 276.000
23.90303 269.000
23.92298 253.000
23.94293 258.000
23.96287 260.000
23.98282 271.000
24.00277 274.000
24.02271 267.000
24.04266 253.000
24.06261 262.000
24.08256 271.000
24.10250 270.000
24.12245 287.000
24.14240 272.000
24.16234 288.000
24.18229 248.000
24.20224 278.000
24.22218 286.000
24.24213 261.000
24.26208 254.000
24.28202 265.000
24.30197 271.000
24.32192 292.000
24.34187 297.000
24.36181 300.000
24.38176 294.000
24.40171 275.000
24.42165 265.000
24.44160 293.000
24.46155 304.000
24.48149 256.000
24.50144 294.000
24.52139 298.000
24.54134 329.000
24.56128 318.000
24.58123 266.000
24.60118 302.000
24.62112 319.000
24.64107 255.000
24.66102 290.000
24.68096 321.000
24.70091 283.000
24.72086 303.000
24.74080 307.000
24.76075 290.000
24.78070 338.000
24.80065 295.000
24.82059 299.000
24.84054 306.000
24.86049 283.000
24.88043 288.000
24.90038 285.000
24.92033 293.000
24.94027 282.000
24.96022 309.000
24.98017 274.000
25.00012 312.000
25.02006 279.000
25.04001 288.000
25.05996 268.000
25.07990 281.000
25.09985 263.000
25.11980 295.000
25.13974 282.000
25.15969 286.000
25.17964 294.000
25.19958 301.000
25.21953 293.000
25.23948 338.000
25.25943 291.000
25.27937 281.000
25.29932 244.000
25.31927 268.000
25.33921 329.000
25.35916 266.000
25.37911 293.000
25.39905 297.000
25.41900 279.000
25.43895 296.000
25.45890 282.000
25.47884 306.000
25.49879 271.000
25.51874 281.000
25.53868 304.000
25.55863 292.000
25.57858 286.000
25.59852 292.000
25.61847 278.000
25.63842 289.000
25.65837 271.000
25.67831 245.000
25.69826 302.000
25.71821 288.000
25.73815 282.000
25.75810 287.000
25.77805 295.000
25.79799 272.000
25.81794 277.000
25.83789 316.000
25.85783 290.000
25.87778 306.000
25.89773 325.000
25.91768 278.000
25.93762 271.000
25.95757 318.000
25.97752 296.000
25.99746 294.000
26.01741 301.000
26.03736 294.000
26.05730 300.000
26.07725 308.000
26.09720 304.000
26.11715 305.000
26.13709 313.000
26.15704 285.000
26.17699 302.000
26.19693 303.000
26.21688 308.000
26.23683 314.000
26.25677 296.000
26.27672 290.000
26.29667 298.000
26.31661 277.000
26.33656 310.000
26.35651 294.000
26.37646 320.000
26.39640 303.000
26.41635 292.000
26.43630 306.000
26.45624 275.000
26.47619 337.000
26.49614 314.000
26.51608 295.000
26.53603 326.000
26.55598 309.000
26.57593 306.000
26.59587 298.000
26.61582 330.000
26.63577 309.000
26.65571 307.000
26.67566 300.000
26.69561 319.000
26.71555 322.000
26.73550 299.000
26.75545 296.000
26.77539 283.000
26.79534 308.000
26.81529 302.000
26.83524 319.000
26.85518 298.000
26.87513 319.000
26.89508 298.000
26.91502 290.000
26.93497 303.000
26.95492 319.000
26.97486 322.000
26.99481 290.000
27.01476 306.000
27.03471 320.000
27.05465 295.000
27.07460 280.000
27.09455 307.000
27.11449 304.000
27.13444 301.000
27.15439 324.000
27.17433 292.000
27.19428 285.000
27.21423 303.000
27.23417 295.000
27.25412 302.000
27.27407 282.000
27.29402 323.000
27.31396 310.000
27.33391 296.000
27.35386 268.000
27.37380 283.000
27.39375 260.000
27.41370 291.000
27.43364 313.000
27.45359 328.000
27.47354 290.000
27.49349 318.000
27.51343 276.000
27.53338 325.000
27.55333 278.000
27.57327 313.000
27.59322 331.000
27.61317 290.000
27.63311 291.000
27.65306 308.000
27.67301 294.000
27.69296 317.000
27.71290 320.000
27.73285 315.000
27.75280 317.000
27.77274 343.000
27.79269 313.000
27.81264 310.000
27.83258 322.000
27.85253 346.000
27.87248 331.000
27.89242 315.000
27.91237 301.000
27.93232 300.000
27.95227 309.000
27.97221 315.000
27.99216 336.000
28.01211 300.000
28.03205 302.000
28.05200 325.000
28.07195 314.000
28.09189 340.000
28.11184 307.000
28.13179 309.000
28.15174 312.000
28.17168 324.000
28.19163 315.000
28.21158 313.000
28.23152 298.000
28.25147 330.000
28.27142 326.000
28.29136 295.000
28.31131 321.000
28.33126 319.000
28.35120 303.000
28.37115 340.000
28.39110 336.000
28.41105 315.000
28.43099 339.000
28.45094 328.000
28.47089 295.000
28.49083 329.000
28.51078 329.000
28.53073 328.000
28.55067 299.000
28.57062 304.000
28.59057 303.000
28.61052 347.000
28.63046 353.000
28.65041 323.000
28.67036 315.000
28.69030 333.000
28.71025 333.000
28.73020 336.000
28.75014 321.000
28.77009 336.000
28.79004 348.000
28.80998 320.000
28.82993 325.000
28.84988 373.000
28.86983 359.000
28.88977 335.000
28.90972 351.000
28.92967 326.000
28.94961 363.000
28.96956 357.000
28.98951 351.000
29.00945 357.000
29.02940 400.000
29.04935 383.000
29.06930 376.000
29.08924 388.000
29.10919 371.000
29.12914 401.000
29.14908 398.000
29.16903 382.000
29.18898 362.000
29.20892 372.000
29.22887 425.000
29.24882 435.000
29.26877 412.000
29.28871 381.000
29.30866 367.000
29.32861 382.000
29.34855 356.000
29.36850 367.000
29.38845 372.000
29.40839 369.000
29.42834 359.000
29.44829 331.000
29.46823 345.000
29.48818 318.000
29.50813 304.000
29.52808 331.000
29.54802 340.000
29.56797 339.000
29.58792 340.000
29.60786 334.000
29.62781 330.000
29.64776 354.000
29.66770 362.000
29.68765 349.000
29.70760 356.000
29.72755 347.000
29.74749 342.000
29.76744 382.000
29.78739 378.000
29.80733 353.000
29.82728 382.000
29.84723 408.000
29.86717 419.000
29.88712 409.000
29.90707 443.000
29.92701 435.000
29.94696 446.000
29.96691 481.000
29.98686 541.000
30.00680 567.000
30.02675 543.000
30.04670 588.000
30.06664 577.000
30.08659 555.000
30.10654 542.000
30.12648 573.000
30.14643 516.000
30.16638 450.000
30.18633 443.000
30.20627 410.000
30.22622 375.000
30.24617 382.000
30.26611 367.000
30.28606 374.000
30.30601 304.000
30.32595 350.000
30.34590 332.000
30.36585 361.000
30.38579 364.000
30.40574 350.000
30.42569 333.000
30.44564 325.000
30.46558 338.000
30.48553 325.000
30.50548 328.000
30.52542 358.000
30.54537 370.000
30.56532 362.000
30.58526 299.000
30.60521 311.000
30.62516 339.000
30.64511 356.000
30.66505 338.000
30.68500 345.000
30.70495 363.000
30.72489 326.000
30.74484 327.000
30.76479 334.000
30.78473 308.000
30.80468 335.000
30.82463 321.000
30.84458 340.000
30.86452 308.000
30.88447 316.000
30.90442 346.000
30.92436 333.000
30.94431 320.000
30.96426 371.000
30.98420 342.000
31.00415 342.000
31.02410 322.000
31.04404 312.000
31.06399 367.000
31.08394 357.000
31.10389 312.000
31.12383 306.000
31.14378 308.000
31.16373 331.000
31.18367 308.000
31.20362 337.000
31.22357 328.000
31.24351 333.000
31.26346 358.000
31.28341 330.000
31.30336 339.000
31.32330 357.000
31.34325 356.000
31.36320 311.000
31.38314 321.000
31.40309 334.000
31.42304 349.000
31.44298 327.000
31.46293 328.000
31.48288 328.000
31.50282 342.000
31.52277 340.000
31.54272 328.000
31.56267 332.000
31.58261 316.000
31.60256 328.000
31.62251 343.000
31.64245 336.000
31.66240 328.000
31.68235 313.000
31.70229 325.000
31.72224 337.000
31.74219 324.000
31.76214 338.000
31.78208 327.000
31.80203 326.000
31.82198 352.000
31.84192 350.000
31.86187 324.000
31.88182 345.000
31.90176 339.000
31.92171 336.000
31.94166 285.000
31.96160 313.000
31.98155 323.000
32.00150 395.000
32.02145 324.000
32.04139 322.000
32.06134 333.000
32.08129 356.000
32.10123 338.000
32.12118 358.000
32.14113 357.000
32.16107 394.000
32.18102 361.000
32.20097 355.000
32.22092 370.000
32.24086 361.000
32.26081 385.000
32.28076 395.000
32.30070 362.000
32.32065 352.000
32.34060 350.000
32.36054 373.000
32.38049 330.000
32.40044 357.000
32.42039 363.000
32.44033 346.000
32.46028 370.000
32.48023 323.000
32.50017 372.000
32.52012 355.000
32.54007 379.000
32.56001 341.000
32.57996 310.000
32.59991 376.000
32.61985 350.000
32.63980 366.000
32.65975 378.000
32.67970 327.000
32.69964 340.000
32.71959 317.000
32.73954 320.000
32.75948 328.000
32.77943 332.000
32.79938 320.000
32.81932 324.000
32.83927 353.000
32.85922 330.000
32.87917 366.000
32.89911 358.000
32.91906 332.000
32.93901 347.000
32.95895 353.000
32.97890 342.000
32.99885 359.000
33.01879 385.000
33.03874 359.000
33.05869 340.000
33.07863 370.000
33.09858 377.000
33.11853 373.000
33.13848 366.000
33.15842 383.000
33.17837 363.000
33.19832 388.000
33.21826 396.000
33.23821 411.000
33.25816 366.000
33.27810 374.000
33.29805 396.000
33.31800 364.000
33.33795 367.000
33.35789 388.000
33.37784 376.000
33.39779 373.000
33.41773 398.000
33.43768 376.000
33.45763 399.000
33.47757 356.000
33.49752 405.000
33.51747 374.000
33.53741 418.000
33.55736 393.000
33.57731 423.000
33.59726 471.000
33.61720 390.000
33.63715 428.000
33.65710 435.000
33.67704 460.000
33.69699 467.000
33.71694 485.000
33.73688 474.000
33.75683 553.000
33.77678 572.000
33.79673 588.000
33.81667 603.000
33.83662 674.000
33.85657 720.000
33.87651 748.000
33.89646 821.000
33.91641 759.000
33.93635 764.000
33.95630 823.000
33.97625 893.000
33.99620 908.000
34.01614 996.000
34.03609 963.000
34.05604 988.000
34.07598 966.000
34.09593 1011.000
34.11588 948.000
34.13582 935.000
34.15577 814.000
34.17572 825.000
34.19566 761.000
34.21561 755.000
34.23556 735.000
34.25551 666.000
34.27545 668.000
34.29540 672.000
34.31535 572.000
34.33529 581.000
34.35524 550.000
34.37519 556.000
34.39513 533.000
34.41508 520.000
34.43503 513.000
34.45498 492.000
34.47492 508.000
34.49487 504.000
34.51482 499.000
34.53476 531.000
34.55471 473.000
34.57466 463.000
34.59460 473.000
34.61455 466.000
34.63450 456.000
34.65444 475.000
34.67439 422.000
34.69434 429.000
34.71429 450.000
34.73423 429.000
34.75418 463.000
34.77413 414.000
34.79407 443.000
34.81402 442.000
34.83397 393.000
34.85391 447.000
34.87386 444.000
34.89381 435.000
34.91376 462.000
34.93370 458.000
34.95365 471.000
34.97360 500.000
34.99354 502.000
35.01349 530.000
35.03344 515.000
35.05338 539.000
35.07333 676.000
35.09328 635.000
35.11322 697.000
35.13317 730.000
35.15312 811.000
35.17307 867.000
35.19301 956.000
35.21296 928.000
35.23291 1023.000
35.25285 1120.000
35.27280 1278.000
35.29275 1345.000
35.31269 1421.000
35.33264 1503.000
35.35259 1533.000
35.37254 1642.000
35.39248 1667.000
35.41243 1574.000
35.43238 1761.000
35.45232 1760.000
35.47227 1625.000
35.49222 1518.000
35.51216 1491.000
35.53211 1282.000
35.55206 1149.000
35.57201 1096.000
35.59195 984.000
35.61190 859.000
35.63185 837.000
35.65179 762.000
35.67174 664.000
35.69169 630.000
35.71163 629.000
35.73158 569.000
35.75153 589.000
35.77147 562.000
35.79142 536.000
35.81137 522.000
35.83132 554.000
35.85126 560.000
35.87121 543.000
35.89116 522.000
35.91110 524.000
35.93105 506.000
35.95100 542.000
35.97094 499.000
35.99089 544.000
36.01084 514.000
36.03079 565.000
36.05073 516.000
36.07068 557.000
36.09063 553.000
36.11057 542.000
36.13052 530.000
36.15047 582.000
36.17041 573.000
36.19036 562.000
36.21031 599.000
36.23025 555.000
36.25020 569.000
36.27015 548.000
36.29010 583.000
36.31004 578.000
36.32999 558.000
36.34994 591.000
36.36988 631.000
36.38983 603.000
36.40978 618.000
36.42972 596.000
36.44967 623.000
36.46962 634.000
36.48957 681.000
36.50951 645.000
36.52946 662.000
36.54941 649.000
36.56935 625.000
36.58930 679.000
36.60925 695.000
36.62919 685.000
36.64914 708.000
36.66909 685.000
36.68903 674.000
36.70898 721.000
36.72893 768.000
36.74888 692.000
36.76882 779.000
36.78877 770.000
36.80872 813.000
36.82866 838.000
36.84861 906.000
36.86856 810.000
36.88850 855.000
36.90845 828.000
36.92840 764.000
36.94835 773.000
36.96829 720.000
36.98824 692.000
37.00819 679.000
37.02813 621.000
37.04808 594.000
37.06803 550.000
37.08797 576.000
37.10792 525.000
37.12787 523.000
37.14781 450.000
37.16776 471.000
37.18771 404.000
37.20766 395.000
37.22760 396.000
37.24755 369.000
37.26750 409.000
37.28744 408.000
37.30739 327.000
37.32734 391.000
37.34728 379.000
37.36723 370.000
37.38718 358.000
37.40713 377.000
37.42707 373.000
37.44702 353.000
37.46697 365.000
37.48691 364.000
37.50686 362.000
37.52681 349.000
37.54675 339.000
37.56670 341.000
37.58665 371.000
37.60660 367.000
37.62654 332.000
37.64649 362.000
37.66644 358.000
37.68638 321.000
37.70633 372.000
37.72628 400.000
37.74622 332.000
37.76617 356.000
37.78612 328.000
37.80606 388.000
37.82601 356.000
37.84596 363.000
37.86591 393.000
37.88585 396.000
37.90580 404.000
37.92575 389.000
37.94569 389.000
37.96564 358.000
37.98559 349.000
38.00553 379.000
38.02548 390.000
38.04543 412.000
38.06538 419.000
38.08532 392.000
38.10527 431.000
38.12522 379.000
38.14516 459.000
38.16511 442.000
38.18506 447.000
38.20500 478.000
38.22495 488.000
38.24490 513.000
38.26484 488.000
38.28479 554.000
38.30474 572.000
38.32469 625.000
38.34463 660.000
38.36458 612.000
38.38453 707.000
38.40447 746.000
38.42442 730.000
38.44437 781.000
38.46431 760.000
38.48426 735.000
38.50421 758.000
38.52416 724.000
38.54410 728.000
38.56405 723.000
38.58400 667.000
38.60394 672.000
38.62389 676.000
38.64384 614.000
38.66378 624.000
38.68373 610.000
38.70368 606.000
38.72362 612.000
38.74357 569.000
38.76352 566.000
38.78347 591.000
38.80341 557.000
38.82336 566.000
38.84331 516.000
38.86325 501.000
38.88320 471.000
38.90315 533.000
38.92309 509.000
38.94304 432.000
38.96299 472.000
38.98294 444.000
39.00288 453.000
39.02283 436.000
39.04278 389.000
39.06272 420.000
39.08267 420.000
39.10262 389.000
39.12256 398.000
39.14251 408.000
39.16246 399.000
39.18241 356.000
39.20235 424.000
39.22230 384.000
39.24225 371.000
39.26219 381.000
39.28214 364.000
39.30209 357.000
39.32203 362.000
39.34198 374.000
39.36193 385.000
39.38187 365.000
39.40182 324.000
39.42177 370.000
39.44172 391.000
39.46166 356.000
39.48161 343.000
39.50156 328.000
39.52150 367.000
39.54145 340.000
39.56140 325.000
39.58134 393.000
39.60129 351.000
39.62124 359.000
39.64119 345.000
39.66113 342.000
39.68108 368.000
39.70103 354.000
39.72097 329.000
39.74092 337.000
39.76087 362.000
39.78081 339.000
39.80076 388.000
39.82071 366.000
39.84065 374.000
39.86060 340.000
39.88055 351.000
39.90050 357.000
39.92044 335.000
39.94039 340.000
39.96034 351.000
39.98028 343.000
40.00023 334.000
40.02018 381.000
40.04012 357.000
40.06007 383.000
40.08002 373.000
40.09997 361.000
40.11991 360.000
40.13986 350.000
40.15981 380.000
40.17975 319.000
40.19970 333.000
40.21965 357.000
40.23959 364.000
40.25954 372.000
40.27949 361.000
40.29943 337.000
40.31938 353.000
40.33933 375.000
40.35928 378.000
40.37922 361.000
40.39917 381.000
40.41912 359.000
40.43906 358.000
40.45901 365.000
40.47896 340.000
40.49890 384.000
40.51885 390.000
40.53880 390.000
40.55875 380.000
40.57869 404.000
40.59864 357.000
40.61859 368.000
40.63853 394.000
40.65848 392.000
40.67843 376.000
40.69837 383.000
40.71832 393.000
40.73827 399.000
40.75822 391.000
40.77816 366.000
40.79811 417.000
40.81806 391.000
40.83800 404.000
40.85795 385.000
40.87790 374.000
40.89784 371.000
40.91779 370.000
40.93774 352.000
40.95768 354.000
40.97763 380.000
40.99758 379.000
41.01753 396.000
41.03747 402.000
41.05742 371.000
41.07737 376.000
41.09731 430.000
41.11726 413.000
41.13721 393.000
41.15715 388.000
41.17710 405.000
41.19705 418.000
41.21700 398.000
41.23694 389.000
41.25689 407.000
41.27684 392.000
41.29678 415.000
41.31673 440.000
41.33668 408.000
41.35662 465.000
41.37657 406.000
41.39652 465.000
41.41646 450.000
41.43641 474.000
41.45636 443.000
41.47631 423.000
41.49625 436.000
41.51620 467.000
41.53615 471.000
41.55609 507.000
41.57604 435.000
41.59599 486.000
41.61593 476.000
41.63588 472.000
41.65583 465.000
41.67578 505.000
41.69572 483.000
41.71567 519.000
41.73562 498.000
41.75556 455.000
41.77551 523.000
41.79546 490.000
41.81540 460.000
41.83535 482.000
41.85530 511.000
41.87524 524.000
41.89519 492.000
41.91514 465.000
41.93509 505.000
41.95503 489.000
41.97498 489.000
41.99493 510.000
42.01487 509.000
42.03482 502.000
42.05477 519.000
42.07471 532.000
42.09466 506.000
42.11461 508.000
42.13456 528.000
42.15450 509.000
42.17445 512.000
42.19440 470.000
42.21434 512.000
42.23429 552.000
42.25424 511.000
42.27418 515.000
42.29413 530.000
42.31408 570.000
42.33403 555.000
42.35397 573.000
42.37392 517.000
42.39387 540.000
42.41381 563.000
42.43376 579.000
42.45371 588.000
42.47365 591.000
42.49360 579.000
42.51355 594.000
42.53349 630.000
42.55344 574.000
42.57339 641.000
42.59334 676.000
42.61328 620.000
42.63323 702.000
42.65318 696.000
42.67312 688.000
42.69307 668.000
42.71302 723.000
42.73296 737.000
42.75291 749.000
42.77286 802.000
42.79281 813.000
42.81275 868.000
42.83270 945.000
42.85265 891.000
42.87259 942.000
42.89254 884.000
42.91249 914.000
42.93243 863.000
42.95238 898.000
42.97233 847.000
42.99227 947.000
43.01222 918.000
43.03217 904.000
43.05212 866.000
43.07206 858.000
43.09201 841.000
43.11196 863.000
43.13190 781.000
43.15185 759.000
43.17180 749.000
43.19174 675.000
43.21169 579.000
43.23164 622.000
43.25159 569.000
43.27153 512.000
43.29148 520.000
43.31143 462.000
43.33137 472.000
43.35132 440.000
43.37127 386.000
43.39121 414.000
43.41116 392.000
43.43111 387.000
43.45105 353.000
43.47100 368.000
43.49095 370.000
43.51090 347.000
43.53084 323.000
43.55079 344.000
43.57074 347.000
43.59068 345.000
43.61063 364.000
43.63058 379.000
43.65052 391.000
43.67047 339.000
43.69042 347.000
43.71037 341.000
43.73031 346.000
43.75026 337.000
43.77021 346.000
43.79015 352.000
43.81010 309.000
43.83005 325.000
43.84999 283.000
43.86994 317.000
43.88989 328.000
43.90984 308.000
43.92978 320.000
43.94973 342.000
43.96968 323.000
43.98962 305.000
44.00957 280.000
44.02952 328.000
44.04946 318.000
44.06941 299.000
44.08936 330.000
44.10930 328.000
44.12925 317.000
44.14920 283.000
44.16915 311.000
44.18909 346.000
44.20904 319.000
44.22899 342.000
44.24893 306.000
44.26888 289.000
44.28883 324.000
44.30877 316.000
44.32872 296.000
44.34867 306.000
44.36862 309.000
44.38856 310.000
44.40851 325.000
44.42846 316.000
44.44840 282.000
44.46835 322.000
44.48830 328.000
44.50824 321.000
44.52819 361.000
44.54814 344.000
44.56808 309.000
44.58803 304.000
44.60798 353.000
44.62793 293.000
44.64787 317.000
44.66782 338.000
44.68777 322.000
44.70771 318.000
44.72766 316.000
44.74761 324.000
44.76755 302.000
44.78750 345.000
44.80745 335.000
44.82740 347.000
44.84734 306.000
44.86729 324.000
44.88724 309.000
44.90718 322.000
44.92713 328.000
44.94708 325.000
44.96702 321.000
44.98697 342.000
45.00692 303.000
45.02686 321.000
45.04681 348.000
45.06676 319.000
45.08671 341.000
45.10665 302.000
45.12660 313.000
45.14655 358.000
45.16649 338.000
45.18644 332.000
45.20639 344.000
45.22633 305.000
45.24628 346.000
45.26623 331.000
45.28618 345.000
45.30612 322.000
45.32607 350.000
45.34602 328.000
45.36596 334.000
45.38591 330.000
45.40586 328.000
45.42580 343.000
45.44575 313.000
45.46570 296.000
45.48565 287.000
45.50559 321.000
45.52554 322.000
45.54549 347.000
45.56543 368.000
45.58538 308.000
45.60533 333.000
45.62527 309.000
45.64522 313.000
45.66517 324.000
45.68511 324.000
45.70506 295.000
45.72501 334.000
45.74496 304.000
45.76490 310.000
45.78485 326.000
45.80480 299.000
45.82474 268.000
45.84469 334.000
45.86464 296.000
45.88458 328.000
45.90453 320.000
45.92448 323.000
45.94443 334.000
45.96437 306.000
45.98432 299.000
46.00427 328.000
46.02421 298.000
46.04416 293.000
46.06411 302.000
46.08405 328.000
46.10400 299.000
46.12395 327.000
46.14389 311.000
46.16384 326.000
46.18379 298.000
46.20374 318.000
46.22368 292.000
46.24363 282.000
46.26358 287.000
46.28352 333.000
46.30347 302.000
46.32342 304.000
46.34336 298.000
46.36331 306.000
46.38326 305.000
46.40321 305.000
46.42315 314.000
46.44310 301.000
46.46305 299.000
46.48299 276.000
46.50294 311.000
46.52289 291.000
46.54283 298.000
46.56278 265.000
46.58273 357.000
46.60267 272.000
46.62262 283.000
46.64257 323.000
46.66252 309.000
46.68246 317.000
46.70241 264.000
46.72236 291.000
46.74230 294.000
46.76225 334.000
46.78220 304.000
46.80214 281.000
46.82209 287.000
46.84204 300.000
46.86199 311.000
46.88193 312.000
46.90188 308.000
46.92183 333.000
46.94177 311.000
46.96172 276.000
46.98167 306.000
47.00161 320.000
47.02156 297.000
47.04151 312.000
47.06146 299.000
47.08140 311.000
47.10135 306.000
47.12130 317.000
47.14124 283.000
47.16119 338.000
47.18114 347.000
47.20108 302.000
47.22103 314.000
47.24098 311.000
47.26092 301.000
47.28087 279.000
47.30082 298.000
47.32077 282.000
47.34071 328.000
47.36066 284.000
47.38061 338.000
47.40055 304.000
47.42050 298.000
47.44045 320.000
47.46039 321.000
47.48034 306.000
47.50029 333.000
47.52024 321.000
47.54018 342.000
47.56013 331.000
47.58008 335.000
47.60002 298.000
47.61997 311.000
47.63992 317.000
47.65986 346.000
47.67981 337.000
47.69976 365.000
47.71970 329.000
47.73965 312.000
47.75960 310.000
47.77955 354.000
47.79949 365.000
47.81944 347.000
47.83939 351.000
47.85933 356.000
47.87928 321.000
47.89923 353.000
47.91917 330.000
47.93912 332.000
47.95907 312.000
47.97902 304.000
47.99896 319.000
48.01891 348.000
48.03886 327.000
48.05880 328.000
48.07875 303.000
48.09870 343.000
48.11864 323.000
48.13859 334.000
48.15854 344.000
48.17848 319.000
48.19843 327.000
48.21838 322.000
48.23833 354.000
48.25827 350.000
48.27822 350.000
48.29817 376.000
48.31811 346.000
48.33806 361.000
48.35801 355.000
48.37795 382.000
48.39790 337.000
48.41785 348.000
48.43780 349.000
48.45774 361.000
48.47769 375.000
48.49764 379.000
48.51758 367.000
48.53753 373.000
48.55748 376.000
48.57742 431.000
48.59737 394.000
48.61732 429.000
48.63726 403.000
48.65721 477.000
48.67716 402.000
48.69711 413.000
48.71705 411.000
48.73700 403.000
48.75695 381.000
48.77689 408.000
48.79684 412.000
48.81679 388.000
48.83673 418.000
48.85668 385.000
48.87663 366.000
48.89658 381.000
48.91652 373.000
48.93647 376.000
48.95642 360.000
48.97636 356.000
48.99631 394.000
49.01626 374.000
49.03620 381.000
49.05615 359.000
49.07610 379.000
49.09605 411.000
49.11599 360.000
49.13594 348.000
49.15589 363.000
49.17583 343.000
49.19578 369.000
49.21573 320.000
49.23567 357.000
49.25562 343.000
49.27557 311.000
49.29551 361.000
49.31546 382.000
49.33541 331.000
49.35536 359.000
49.37530 357.000
49.39525 327.000
49.41520 308.000
49.43514 275.000
49.45509 292.000
49.47504 307.000
49.49498 309.000
49.51493 318.000
49.53488 296.000
49.55483 284.000
49.57477 331.000
49.59472 325.000
49.61467 330.000
49.63461 321.000
49.65456 309.000
49.67451 313.000
49.69445 342.000
49.71440 314.000
49.73435 303.000
49.75429 288.000
49.77424 292.000
49.79419 307.000
49.81414 307.000
49.83408 325.000
49.85403 286.000
49.87398 325.000
49.89392 262.000
49.91387 313.000
49.93382 302.000
49.95376 305.000
49.97371 313.000
49.99366 309.000
50.01361 310.000
50.03355 331.000
50.05350 313.000
50.07345 290.000
50.09339 307.000
50.11334 283.000
50.13329 285.000
50.15323 303.000
50.17318 307.000
50.19313 273.000
50.21307 269.000
50.23302 275.000
50.25297 280.000
50.27292 295.000
50.29286 287.000
50.31281 285.000
50.33276 266.000
50.35270 302.000
50.37265 283.000
50.39260 288.000
50.41254 302.000
50.43249 329.000
50.45244 314.000
50.47239 288.000
50.49233 299.000
50.51228 273.000
50.53223 280.000
50.55217 295.000
50.57212 302.000
50.59207 284.000
50.61201 295.000
50.63196 275.000
50.65191 301.000
50.67186 270.000
50.69180 272.000
50.71175 282.000
50.73170 287.000
50.75164 273.000
50.77159 285.000
50.79154 266.000
50.81148 282.000
50.83143 276.000
50.85138 321.000
50.87132 277.000
50.89127 292.000
50.91122 288.000
50.93117 295.000
50.95111 293.000
50.97106 287.000
50.99101 328.000
51.01095 301.000
51.03090 310.000
51.05085 301.000
51.07079 326.000
51.09074 285.000
51.11069 309.000
51.13064 299.000
51.15058 280.000
51.17053 290.000
51.19048 304.000
51.21042 325.000
51.23037 280.000
51.25032 310.000
51.27026 301.000
51.29021 318.000
51.31016 306.000
51.33010 303.000
51.35005 284.000
51.37000 278.000
51.38995 311.000
51.40989 283.000
51.42984 275.000
51.44979 311.000
51.46973 292.000
51.48968 291.000
51.50963 280.000
51.52957 300.000
51.54952 257.000
51.56947 303.000
51.58942 298.000
51.60936 285.000
51.62931 300.000
51.64926 301.000
51.66920 310.000
51.68915 339.000
51.70910 303.000
51.72904 322.000
51.74899 311.000
51.76894 297.000
51.78888 285.000
51.80883 313.000
51.82878 310.000
51.84873 305.000
51.86867 319.000
51.88862 329.000
51.90857 307.000
51.92851 306.000
51.94846 340.000
51.96841 285.000
51.98835 298.000
52.00830 326.000
52.02825 302.000
52.04820 291.000
52.06814 301.000
52.08809 318.000
52.10804 315.000
52.12798 309.000
52.14793 310.000
52.16788 303.000
52.18782 299.000
52.20777 317.000
52.22772 261.000
52.24767 306.000
52.26761 300.000
52.28756 308.000
52.30751 289.000
52.32745 327.000
52.34740 265.000
52.36735 313.000
52.38729 265.000
52.40724 287.000
52.42719 263.000
52.44713 289.000
52.46708 303.000
52.48703 254.000
52.50698 305.000
52.52692 318.000
52.54687 283.000
52.56682 287.000
52.58676 281.000
52.60671 319.000
52.62666 280.000
52.64660 275.000
52.66655 310.000
52.68650 288.000
52.70645 306.000
52.72639 295.000
52.74634 312.000
52.76629 307.000
52.78623 282.000
52.80618 295.000
52.82613 312.000
52.84607 306.000
52.86602 275.000
52.88597 324.000
52.90591 326.000
52.92586 329.000
52.94581 317.000
52.96576 332.000
52.98570 363.000
53.00565 363.000
53.02560 362.000
53.04554 328.000
53.06549 347.000
53.08544 340.000
53.10538 357.000
53.12533 334.000
53.14528 347.000
53.16523 359.000
53.18517 368.000
53.20512 341.000
53.22507 312.000
53.24501 322.000
53.26496 286.000
53.28491 377.000
53.30485 325.000
53.32480 321.000
53.34475 316.000
53.36469 335.000
53.38464 344.000
53.40459 317.000
53.42454 307.000
53.44448 339.000
53.46443 359.000
53.48438 361.000
53.50432 367.000
53.52427 370.000
53.54422 367.000
53.56416 403.000
53.58411 379.000
53.60406 370.000
53.62401 376.000
53.64395 383.000
53.66390 339.000
53.68385 371.000
53.70379 372.000
53.72374 358.000
53.74369 354.000
53.76363 353.000
53.78358 346.000
53.80353 307.000
53.82348 366.000
53.84342 328.000
53.86337 292.000
53.88332 330.000
53.90326 296.000
53.92321 336.000
53.94316 318.000
53.96310 273.000
53.98305 292.000
54.00300 301.000
54.02294 299.000
54.04289 328.000
54.06284 287.000
54.08279 316.000
54.10273 313.000
54.12268 308.000
54.14263 272.000
54.16257 294.000
54.18252 313.000
54.20247 296.000
54.22241 311.000
54.24236 308.000
54.26231 331.000
54.28226 281.000
54.30220 316.000
54.32215 340.000
54.34210 314.000
54.36204 310.000
54.38199 301.000
54.40194 303.000
54.42188 303.000
54.44183 314.000
54.46178 310.000
54.48172 300.000
54.50167 310.000
54.52162 315.000
54.54157 299.000
54.56151 278.000
54.58146 287.000
54.60141 290.000
54.62135 303.000
54.64130 319.000
54.66125 319.000
54.68119 284.000
54.70114 291.000
54.72109 317.000
54.74104 310.000
54.76098 272.000
54.78093 302.000
54.80088 290.000
54.82082 292.000
54.84077 307.000
54.86072 261.000
54.88066 316.000
54.90061 309.000
54.92056 314.000
54.94050 272.000
54.96045 301.000
54.98040 305.000
55.00035 290.000
55.02029 300.000
55.04024 260.000
55.06019 297.000
55.08013 273.000
55.10008 286.000
55.12003 326.000
55.13997 308.000
55.15992 322.000
55.17987 293.000
55.19982 313.000
55.21976 302.000
55.23971 310.000
55.25966 276.000
55.27960 326.000
55.29955 298.000
55.31950 270.000
55.33944 296.000
55.35939 282.000
55.37934 295.000
55.39929 296.000
55.41923 294.000
55.43918 314.000
55.45913 293.000
55.47907 309.000
55.49902 310.000
55.51897 305.000
55.53891 310.000
55.55886 318.000
55.57881 299.000
55.59875 293.000
55.61870 267.000
55.63865 283.000
55.65860 326.000
55.67854 272.000
55.69849 276.000
55.71844 316.000
55.73838 315.000
55.75833 293.000
55.77828 335.000
55.79822 271.000
55.81817 306.000
55.83812 301.000
55.85807 308.000
55.87801 281.000
55.89796 279.000
55.91791 296.000
55.93785 280.000
55.95780 292.000
55.97775 333.000
55.99769 309.000
56.01764 276.000
56.03759 282.000
56.05753 307.000
56.07748 294.000
56.09743 288.000
56.11738 297.000
56.13732 321.000
56.15727 304.000
56.17722 277.000
56.19716 313.000
56.21711 303.000
56.23706 295.000
56.25700 300.000
56.27695 275.000
56.29690 298.000
56.31685 307.000
56.33679 299.000
56.35674 314.000
56.37669 313.000
56.39663 311.000
56.41658 304.000
56.43653 301.000
56.45647 324.000
56.47642 259.000
56.49637 300.000
56.51631 314.000
56.53626 307.000
56.55621 299.000
56.57616 302.000
56.59610 299.000
56.61605 289.000
56.63600 323.000
56.65594 278.000
56.67589 299.000
56.69584 314.000
56.71578 311.000
56.73573 305.000
56.75568 278.000
56.77563 306.000
56.79557 329.000
56.81552 323.000
56.83547 330.000
56.85541 312.000
56.87536 318.000
56.89531 320.000
56.91525 348.000
56.93520 408.000
56.95515 373.000
56.97510 387.000
56.99504 431.000
57.01499 448.000
57.03494 519.000
57.05488 494.000
57.07483 477.000
57.09478 553.000
57.11472 580.000
57.13467 552.000
57.15462 564.000
57.17456 556.000
57.19451 512.000
57.21446 539.000
57.23441 524.000
57.25435 496.000
57.27430 461.000
57.29425 451.000
57.31419 459.000
57.33414 424.000
57.35409 411.000
57.37403 366.000
57.39398 372.000
57.41393 363.000
57.43388 325.000
57.45382 342.000
57.47377 351.000
57.49372 332.000
57.51366 353.000
57.53361 330.000
57.55356 319.000
57.57350 311.000
57.59345 359.000
57.61340 310.000
57.63334 312.000
57.65329 318.000
57.67324 307.000
57.69319 327.000
57.71313 311.000
57.73308 334.000
57.75303 303.000
57.77297 332.000
57.79292 351.000
57.81287 345.000
57.83281 323.000
57.85276 311.000
57.87271 355.000
57.89266 326.000
57.91260 340.000
57.93255 320.000
57.95250 326.000
57.97244 328.000
57.99239 333.000
58.01234 385.000
58.03228 310.000
58.05223 378.000
58.07218 325.000
58.09212 338.000
58.11207 351.000
58.13202 340.000
58.15197 360.000
58.17191 390.000
58.19186 315.000
58.21181 363.000
58.23175 375.000
58.25170 316.000
58.27165 333.000
58.29159 325.000
58.31154 359.000
58.33149 314.000
58.35144 331.000
58.37138 332.000
58.39133 321.000
58.41128 319.000
58.43122 317.000
58.45117 336.000
58.47112 345.000
58.49106 318.000
58.51101 324.000
58.53096 301.000
58.55090 347.000
58.57085 321.000
58.59080 323.000
58.61075 311.000
58.63069 311.000
58.65064 304.000
58.67059 345.000
58.69053 319.000
58.71048 342.000
58.73043 296.000
58.75037 288.000
58.77032 320.000
58.79027 305.000
58.81022 323.000
58.83016 329.000
58.85011 327.000
58.87006 304.000
58.89000 285.000
58.90995 305.000
58.92990 283.000
58.94984 285.000
58.96979 308.000
58.98974 341.000
59.00969 325.000
59.02963 312.000
59.04958 317.000
59.06953 293.000
59.08947 337.000
59.10942 335.000
59.12937 329.000
59.14931 319.000
59.16926 305.000
59.18921 326.000
59.20915 313.000
59.22910 308.000
59.24905 329.000
59.26900 327.000
59.28894 297.000
59.30889 332.000
59.32884 347.000
59.34878 329.000
59.36873 362.000
59.38868 308.000
59.40862 312.000
59.42857 325.000
59.44852 294.000
59.46847 326.000
59.48841 342.000
59.50836 307.000
59.52831 356.000
59.54825 335.000
59.56820 373.000
59.58815 327.000
59.60809 345.000
59.62804 324.000
59.64799 335.000
59.66793 330.000
59.68788 336.000
59.70783 329.000
59.72778 322.000
59.74772 400.000
59.76767 352.000
59.78762 339.000
59.80756 331.000
59.82751 343.000
59.84746 359.000
59.86740 356.000
59.88735 331.000
59.90730 342.000
59.92725 336.000
59.94719 335.000
59.96714 338.000
59.98709 301.000
60.00703 344.000
60.02698 325.000
60.04693 326.000
60.06687 348.000
60.08682 348.000
60.10677 338.000
60.12671 326.000
60.14666 334.000
60.16661 328.000
60.18656 371.000
60.20650 341.000
60.22645 344.000
60.24640 314.000
60.26634 340.000
60.28629 327.000
60.30624 314.000
60.32618 315.000
60.34613 332.000
60.36608 331.000
60.38603 331.000
60.40597 370.000
60.42592 340.000
60.44587 327.000
60.46581 327.000
60.48576 325.000
60.50571 321.000
60.52565 347.000
60.54560 374.000
60.56555 345.000
60.58550 372.000
60.60544 352.000
60.62539 321.000
60.64534 339.000
60.66528 381.000
60.68523 379.000
60.70518 362.000
60.72512 361.000
60.74507 391.000
60.76502 414.000
60.78496 393.000
60.80491 378.000
60.82486 373.000
60.84481 417.000
60.86475 411.000
60.88470 438.000
60.90465 396.000
60.92459 396.000
60.94454 435.000
60.96449 432.000
60.98443 436.000
61.00438 479.000
61.02433 425.000
61.04428 480.000
61.06422 488.000
61.08417 471.000
61.10412 513.000
61.12406 490.000
61.14401 499.000
61.16396 546.000
61.18390 528.000
61.20385 489.000
61.22380 511.000
61.24374 549.000
61.26369 525.000
61.28364 540.000
61.30359 529.000
61.32353 564.000
61.34348 554.000
61.36343 573.000
61.38337 519.000
61.40332 537.000
61.42327 518.000
61.44321 511.000
61.46316 515.000
61.48311 500.000
61.50306 517.000
61.52300 517.000
61.54295 533.000
61.56290 474.000
61.58284 515.000
61.60279 484.000
61.62274 514.000
61.64268 506.000
61.66263 485.000
61.68258 476.000
61.70252 500.000
61.72247 430.000
61.74242 475.000
61.76237 525.000
61.78231 509.000
61.80226 477.000
61.82221 475.000
61.84215 464.000
61.86210 455.000
61.88205 419.000
61.90199 516.000
61.92194 463.000
61.94189 496.000
61.96184 463.000
61.98178 470.000
62.00173 489.000
62.02168 495.000
62.04162 463.000
62.06157 490.000
62.08152 533.000
62.10146 478.000
62.12141 524.000
62.14136 496.000
62.16131 531.000
62.18125 515.000
62.20120 562.000
62.22115 559.000
62.24109 518.000
62.26104 540.000
62.28099 565.000
62.30093 594.000
62.32088 606.000
62.34083 622.000
62.36077 625.000
62.38072 613.000
62.40067 587.000
62.42062 585.000
62.44056 628.000
62.46051 627.000
62.48046 604.000
62.50040 653.000
62.52035 578.000
62.54030 599.000
62.56024 626.000
62.58019 614.000
62.60014 608.000
62.62009 643.000
62.64003 662.000
62.65998 668.000
62.67993 707.000
62.69987 763.000
62.71982 762.000
62.73977 783.000
62.75971 782.000
62.77966 805.000
62.79961 706.000
62.81955 697.000
62.83950 696.000
62.85945 689.000
62.87940 623.000
62.89934 540.000
62.91929 534.000
62.93924 563.000
62.95918 501.000
62.97913 476.000
62.99908 445.000
63.01902 420.000
63.03897 443.000
63.05892 382.000
63.07887 394.000
63.09881 366.000
63.11876 414.000
63.13871 369.000
63.15865 367.000
63.17860 347.000
63.19855 338.000
63.21849 318.000
63.23844 350.000
63.25839 339.000
63.27833 330.000
63.29828 349.000
63.31823 325.000
63.33818 339.000
63.35812 331.000
63.37807 310.000
63.39802 301.000
63.41796 330.000
63.43791 314.000
63.45786 332.000
63.47780 341.000
63.49775 320.000
63.51770 307.000
63.53765 329.000
63.55759 297.000
63.57754 309.000
63.59749 348.000
63.61743 284.000
63.63738 289.000
63.65733 294.000
63.67727 297.000
63.69722 321.000
63.71717 321.000
63.73712 302.000
63.75706 262.000
63.77701 332.000
63.79696 324.000
63.81690 292.000
63.83685 287.000
63.85680 321.000
63.87674 283.000
63.89669 272.000
63.91664 292.000
63.93658 340.000
63.95653 329.000
63.97648 299.000
63.99643 312.000
64.01637 328.000
64.03632 322.000
64.05627 297.000
64.07621 279.000
64.09616 305.000
64.11611 289.000
64.13605 290.000
64.15600 320.000
64.17595 269.000
64.19590 318.000
64.21584 330.000
64.23579 304.000
64.25574 293.000
64.27568 303.000
64.29563 311.000
64.31558 286.000
64.33552 322.000
64.35547 326.000
64.37542 288.000
64.39536 284.000
64.41531 320.000
64.43526 322.000
64.45521 312.000
64.47515 330.000
64.49510 273.000
64.51505 334.000
64.53499 331.000
64.55494 275.000
64.57489 301.000
64.59483 295.000
64.61478 287.000
64.63473 293.000
64.65468 316.000
64.67462 281.000
64.69457 341.000
64.71452 342.000
64.73446 318.000
64.75441 276.000
64.77436 303.000
64.79430 298.000
64.81425 333.000
64.83420 309.000
64.85414 330.000
64.87409 308.000
64.89404 301.000
64.91399 334.000
64.93393 326.000
64.95388 330.000
64.97383 316.000
64.99377 297.000
65.01372 329.000
65.03367 318.000
65.05361 334.000
65.07356 324.000
65.09351 330.000
65.11346 340.000
65.13340 319.000
65.15335 350.000
65.17330 313.000
65.19324 316.000
65.21319 333.000
65.23314 378.000
65.25308 367.000
65.27303 362.000
65.29298 352.000
65.31293 334.000
65.33287 349.000
65.35282 368.000
65.37277 353.000
65.39271 340.000
65.41266 388.000
65.43261 381.000
65.45255 366.000
65.47250 344.000
65.49245 365.000
65.51239 356.000
65.53234 370.000
65.55229 372.000
65.57224 353.000
65.59218 383.000
65.61213 407.000
65.63208 383.000
65.65202 387.000
65.67197 326.000
65.69192 369.000
65.71186 368.000
65.73181 338.000
65.75176 376.000
65.77171 330.000
65.79165 347.000
65.81160 323.000
65.83155 351.000
65.85149 358.000
65.87144 353.000
65.89139 355.000
65.91133 365.000
65.93128 337.000
65.95123 377.000
65.97117 384.000
65.99112 370.000
66.01107 316.000
66.03102 373.000
66.05096 371.000
66.07091 376.000
66.09086 364.000
66.11080 407.000
66.13075 377.000
66.15070 374.000
66.17064 381.000
66.19059 359.000
66.21054 365.000
66.23049 356.000
66.25043 354.000
66.27038 368.000
66.29033 365.000
66.31027 367.000
66.33022 343.000
66.35017 337.000
66.37011 338.000
66.39006 355.000
66.41001 340.000
66.42995 337.000
66.44990 332.000
66.46985 343.000
66.48980 346.000
66.50974 321.000
66.52969 314.000
66.54964 292.000
66.56958 318.000
66.58953 322.000
66.60948 335.000
66.62942 328.000
66.64937 290.000
66.66932 319.000
66.68927 320.000
66.70921 318.000
66.72916 287.000
66.74911 327.000
66.76905 291.000
66.78900 300.000
66.80895 310.000
66.82889 302.000
66.84884 310.000
66.86879 331.000
66.88874 312.000
66.90868 290.000
66.92863 326.000
66.94858 295.000
66.96852 306.000
66.98847 279.000
67.00842 303.000
67.02836 300.000
67.04831 319.000
67.06826 297.000
67.08820 317.000
67.10815 337.000
67.12810 287.000
67.14805 282.000
67.16799 301.000
67.18794 301.000
67.20789 308.000
67.22783 309.000
67.24778 287.000
67.26773 300.000
67.28767 305.000
67.30762 347.000
67.32757 332.000
67.34752 339.000
67.36746 306.000
67.38741 303.000
67.40736 317.000
67.42730 326.000
67.44725 324.000
67.46720 344.000
67.48714 341.000
67.50709 363.000
67.52704 321.000
67.54698 328.000
67.56693 333.000
67.58688 350.000
67.60683 336.000
67.62677 373.000
67.64672 340.000
67.66667 361.000
67.68661 332.000
67.70656 388.000
67.72651 327.000
67.74645 365.000
67.76640 338.000
67.78635 341.000
67.80630 368.000
67.82624 361.000
67.84619 360.000
67.86614 378.000
67.88608 343.000
67.90603 334.000
67.92598 324.000
67.94592 353.000
67.96587 323.000
67.98582 335.000
68.00576 337.000
68.02571 323.000
68.04566 384.000
68.06561 341.000
68.08555 316.000
68.10550 339.000
68.12545 346.000
68.14539 321.000
68.16534 321.000
68.18529 329.000
68.20523 320.000
68.22518 336.000
68.24513 317.000
68.26508 330.000
68.28502 303.000
68.30497 334.000
68.32492 339.000
68.34486 321.000
68.36481 300.000
68.38476 303.000
68.40470 324.000
68.42465 298.000
68.44460 310.000
68.46455 293.000
68.48449 267.000
68.50444 318.000
68.52439 290.000
68.54433 305.000
68.56428 300.000
68.58423 300.000
68.60417 280.000
68.62412 293.000
68.64407 273.000
68.66401 300.000
68.68396 325.000
68.70391 321.000
68.72386 278.000
68.74380 312.000
68.76375 310.000
68.78370 318.000
68.80364 315.000
68.82359 314.000
68.84354 298.000
68.86348 318.000
68.88343 290.000
68.90338 317.000
68.92333 300.000
68.94327 302.000
68.96322 299.000
68.98317 305.000
69.00311 301.000
69.02306 279.000
69.04301 296.000
69.06295 287.000
69.08290 298.000
69.10285 303.000
69.12279 295.000
69.14274 285.000
69.16269 285.000
69.18264 288.000
69.20258 274.000
69.22253 299.000
69.24248 304.000
69.26242 287.000
69.28237 309.000
69.30232 286.000
69.32226 295.000
69.34221 287.000
69.36216 289.000
69.38211 280.000
69.40205 325.000
69.42200 322.000
69.44195 334.000
69.46189 302.000
69.48184 280.000
69.50179 301.000
69.52173 295.000
69.54168 277.000
69.56163 294.000
69.58157 289.000
69.60152 301.000
69.62147 298.000
69.64142 297.000
69.66136 283.000
69.68131 277.000
69.70126 310.000
69.72120 265.000
69.74115 266.000
69.76110 301.000
69.78104 303.000
69.80099 259.000
69.82094 268.000
69.84089 294.000
69.86083 308.000
69.88078 310.000
69.90073 339.000
69.92067 285.000
69.94062 305.000
69.96057 302.000
69.98051 301.000
70.00046 300.000
70.02041 267.000
70.04035 278.000
70.06030 285.000
70.08025 277.000
70.10020 317.000
70.12014 289.000
70.14009 280.000
70.16004 281.000
70.17998 306.000
70.19993 287.000
70.21988 309.000
70.23982 279.000
70.25977 286.000
70.27972 282.000
70.29967 289.000
70.31961 267.000
70.33956 307.000
70.35951 292.000
70.37945 291.000
70.39940 299.000
70.41935 266.000
70.43929 322.000
70.45924 311.000
70.47919 325.000
70.49914 281.000
70.51908 296.000
70.53903 300.000
70.55898 266.000
70.57892 290.000
70.59887 290.000
70.61882 335.000
70.63876 290.000
70.65871 315.000
70.67866 278.000
70.69860 279.000
70.71855 300.000
70.73850 306.000
70.75845 293.000
70.77839 305.000
70.79834 291.000
70.81829 362.000
70.83823 325.000
70.85818 287.000
70.87813 301.000
70.89807 292.000
70.91802 307.000
70.93797 309.000
70.95792 265.000
70.97786 316.000
70.99781 305.000
71.01776 342.000
71.03770 312.000
71.05765 306.000
71.07760 329.000
71.09754 303.000
71.11749 287.000
71.13744 330.000
71.15738 301.000
71.17733 311.000
71.19728 318.000
71.21723 358.000
71.23717 303.000
71.25712 341.000
71.27707 324.000
71.29701 316.000
71.31696 344.000
71.33691 336.000
71.35685 336.000
71.37680 316.000
71.39675 349.000
71.41670 340.000
71.43664 344.000
71.45659 303.000
71.47654 307.000
71.49648 297.000
71.51643 302.000
71.53638 343.000
71.55632 333.000
71.57627 332.000
71.59622 294.000
71.61616 297.000
71.63611 301.000
71.65606 325.000
71.67601 333.000
71.69595 318.000
71.71590 307.000
71.73585 293.000
71.75579 315.000
71.77574 349.000
71.79569 329.000
71.81563 322.000
71.83558 327.000
71.85553 317.000
71.87548 331.000
71.89542 324.000
71.91537 308.000
71.93532 345.000
71.95526 295.000
71.97521 326.000
71.99516 336.000
72.01510 324.000
72.03505 358.000
72.05500 333.000
72.07495 349.000
72.09489 319.000
72.11484 374.000
72.13479 356.000
72.15473 375.000
72.17468 374.000
72.19463 332.000
72.21457 361.000
72.23452 349.000
72.25447 361.000
72.27441 320.000
72.29436 337.000
72.31431 375.000
72.33426 306.000
72.35420 360.000
72.37415 324.000
72.39410 348.000
72.41404 334.000
72.43399 338.000
72.45394 321.000
72.47388 353.000
72.49383 337.000
72.51378 327.000
72.53373 341.000
72.55367 314.000
72.57362 329.000
72.59357 316.000
72.61351 306.000
72.63346 308.000
72.65341 307.000
72.67335 326.000
72.69330 296.000
72.71325 325.000
72.73319 356.000
72.75314 288.000
72.77309 278.000
72.79304 329.000
72.81298 311.000
72.83293 321.000
72.85288 290.000
72.87282 306.000
72.89277 304.000
72.91272 335.000
72.93266 271.000
72.95261 307.000
72.97256 318.000
72.99251 288.000
73.01245 319.000
73.03240 307.000
73.05235 295.000
73.07229 334.000
73.09224 327.000
73.11219 334.000
73.13213 306.000
73.15208 300.000
73.17203 295.000
73.19197 323.000
73.21192 305.000
73.23187 309.000
73.25182 318.000
73.27176 245.000
73.29171 315.000
73.31166 356.000
73.33160 300.000
73.35155 319.000
73.37150 315.000
73.39144 302.000
73.41139 295.000
73.43134 310.000
73.45129 317.000
73.47123 294.000
73.49118 312.000
73.51113 290.000
73.53107 324.000
73.55102 296.000
73.57097 320.000
73.59091 316.000
73.61086 311.000
73.63081 323.000
73.65076 313.000
73.67070 301.000
73.69065 288.000
73.71060 317.000
73.73054 301.000
73.75049 315.000
73.77044 310.000
73.79038 305.000
73.81033 341.000
73.83028 301.000
73.85022 289.000
73.87017 293.000
73.89012 285.000
73.91007 315.000
73.93001 311.000
73.94996 273.000
73.96991 334.000
73.98985 332.000
74.00980 332.000
74.02975 318.000
74.04969 290.000
74.06964 331.000
74.08959 320.000
74.10954 292.000
74.12948 336.000
74.14943 338.000
74.16938 303.000
74.18932 377.000
74.20927 342.000
74.22922 401.000
74.24916 366.000
74.26911 378.000
74.28906 386.000
74.30900 393.000
74.32895 393.000
74.34890 409.000
74.36885 396.000
74.38879 384.000
74.40874 395.000
74.42869 398.000
74.44863 388.000
74.46858 376.000
74.48853 325.000
74.50847 380.000
74.52842 400.000
74.54837 373.000
74.56832 399.000
74.58826 369.000
74.60821 360.000
74.62816 408.000
74.64810 407.000
74.66805 371.000
74.68800 413.000
74.70794 363.000
74.72789 404.000
74.74784 370.000
74.76778 385.000
74.78773 410.000
74.80768 399.000
74.82763 400.000
74.84757 401.000
74.86752 371.000
74.88747 413.000
74.90741 386.000
74.92736 432.000
74.94731 422.000
74.96725 397.000
74.98720 425.000
75.00715 436.000
75.02710 384.000
75.04704 429.000
75.06699 399.000
75.08694 392.000
75.10688 420.000
75.12683 395.000
75.14678 357.000
75.16672 370.000
75.18667 404.000
75.20662 365.000
75.22657 368.000
75.24651 347.000
75.26646 376.000
75.28641 354.000
75.30635 388.000
75.32630 359.000
75.34625 309.000
75.36619 352.000
75.38614 393.000
75.40609 311.000
75.42603 344.000
75.44598 349.000
75.46593 328.000
75.48588 354.000
75.50582 328.000
75.52577 343.000
75.54572 342.000
75.56566 317.000
75.58561 297.000
75.60556 301.000
75.62550 349.000
75.64545 309.000
75.66540 310.000
75.68535 316.000
75.70529 329.000
75.72524 308.000
75.74519 321.000
75.76513 301.000
75.78508 352.000
75.80503 313.000
75.82497 341.000
75.84492 302.000
75.86487 303.000
75.88481 291.000
75.90476 314.000
75.92471 297.000
75.94466 332.000
75.96460 295.000
75.98455 301.000
76.00450 293.000
76.02444 298.000
76.04439 282.000
76.06434 312.000
76.08428 312.000
76.10423 290.000
76.12418 320.000
76.14413 343.000
76.16407 324.000
76.18402 311.000
76.20397 309.000
76.22391 291.000
76.24386 316.000
76.26381 322.000
76.28375 296.000
76.30370 263.000
76.32365 308.000
76.34359 317.000
76.36354 308.000
76.38349 318.000
76.40344 310.000
76.42338 295.000
76.44333 317.000
76.46328 270.000
76.48322 298.000
76.50317 293.000
76.52312 323.000
76.54306 281.000
76.56301 303.000
76.58296 296.000
76.60291 305.000
76.62285 291.000
76.64280 314.000
76.66275 317.000
76.68269 311.000
76.70264 288.000
76.72259 295.000
76.74253 307.000
76.76248 304.000
76.78243 279.000
76.80238 283.000
76.82232 274.000
76.84227 281.000
76.86222 314.000
76.88216 290.000
76.90211 309.000
76.92206 304.000
76.94200 281.000
76.96195 316.000
76.98190 315.000
77.00184 297.000
77.02179 338.000
77.04174 280.000
77.06169 297.000
77.08163 304.000
77.10158 314.000
77.12153 306.000
77.14147 320.000
77.16142 295.000
77.18137 326.000
77.20131 345.000
77.22126 318.000
77.24121 301.000
77.26116 284.000
77.28110 295.000
77.30105 264.000
77.32100 304.000
77.34094 308.000
77.36089 304.000
77.38084 290.000
77.40078 309.000
77.42073 330.000
77.44068 281.000
77.46062 270.000
77.48057 315.000
77.50052 297.000
77.52047 323.000
77.54041 299.000
77.56036 311.000
77.58031 295.000
77.60025 337.000
77.62020 299.000
77.64015 288.000
77.66009 294.000
77.68004 309.000
77.69999 290.000
77.71994 319.000
77.73988 314.000
77.75983 298.000
77.77978 292.000
77.79972 332.000
77.81967 282.000
77.83962 299.000
77.85956 357.000
77.87951 295.000
77.89946 320.000
77.91940 298.000
77.93935 311.000
77.95930 334.000
77.97925 319.000
77.99919 340.000
78.01914 300.000
78.03909 292.000
78.05903 288.000
78.07898 278.000
78.09893 313.000
78.11887 351.000
78.13882 304.000
78.15877 316.000
78.17872 337.000
78.19866 326.000
78.21861 315.000
78.23856 293.000
78.25850 337.000
78.27845 333.000
78.29840 295.000
78.31834 314.000
78.33829 286.000
78.35824 334.000
78.37819 315.000
78.39813 327.000
78.41808 326.000
78.43803 322.000
78.45797 330.000
78.47792 312.000
78.49787 316.000
78.51781 326.000
78.53776 318.000
78.55771 340.000
78.57765 329.000
78.59760 330.000
78.61755 322.000
78.63750 363.000
78.65744 350.000
78.67739 347.000
78.69734 373.000
78.71728 374.000
78.73723 327.000
78.75718 376.000
78.77712 344.000
78.79707 365.000
78.81702 333.000
78.83697 318.000
78.85691 353.000
78.87686 367.000
78.89681 361.000
78.91675 345.000
78.93670 362.000
78.95665 367.000
78.97659 355.000
78.99654 365.000
79.01649 353.000
79.03643 342.000
79.05638 348.000
79.07633 346.000
79.09628 322.000
79.11622 325.000
79.13617 328.000
79.15612 333.000
79.17606 345.000
79.19601 318.000
79.21596 334.000
79.23590 349.000
79.25585 331.000
79.27580 300.000
79.29575 318.000
79.31569 328.000
79.33564 302.000
79.35559 277.000
79.37553 325.000
79.39548 312.000
79.41543 307.000
79.43537 334.000
79.45532 276.000
79.47527 299.000
79.49521 284.000
79.51516 290.000
79.53511 282.000
79.55506 293.000
79.57500 299.000
79.59495 309.000
79.61490 293.000
79.63484 290.000
79.65479 305.000
79.67474 278.000
79.69468 286.000
79.71463 286.000
79.73458 300.000
79.75453 290.000
79.77447 286.000
79.79442 263.000
79.81437 290.000
79.83431 315.000
79.85426 276.000
79.87421 272.000
79.89415 278.000
79.91410 278.000
79.93405 289.000
79.95399 288.000
79.97394 317.000
79.99389 322.000
80.01384 264.000
80.03378 295.000
80.05373 282.000
80.07368 290.000
80.09362 288.000
80.11357 285.000
80.13352 322.000
80.15346 282.000
80.17341 306.000
80.19336 293.000
80.21331 277.000
80.23325 292.000
80.25320 311.000
80.27315 298.000
80.29309 271.000
80.31304 266.000
80.33299 274.000
80.35293 269.000
80.37288 284.000
80.39283 292.000
80.41278 303.000
80.43272 297.000
80.45267 299.000
80.47262 261.000
80.49256 282.000
80.51251 289.000
80.53246 285.000
80.55240 299.000
80.57235 284.000
80.59230 311.000
80.61224 262.000
80.63219 282.000
80.65214 302.000
80.67209 302.000
80.69203 281.000
80.71198 308.000
80.73193 312.000
80.75187 314.000
80.77182 284.000
80.79177 279.000
80.81171 266.000
80.83166 253.000
80.85161 283.000
80.87156 310.000
80.89150 275.000
80.91145 300.000
80.93140 258.000
80.95134 294.000
80.97129 278.000
80.99124 256.000
81.01118 253.000
81.03113 288.000
81.05108 289.000
81.07102 284.000
81.09097 312.000
81.11092 269.000
81.13087 271.000
81.15081 279.000
81.17076 289.000
81.19071 263.000
81.21065 274.000
81.23060 244.000
81.25055 309.000
81.27049 307.000
81.29044 263.000
81.31039 295.000
81.33034 243.000
81.35028 271.000
81.37023 309.000
81.39018 269.000
81.41012 263.000
81.43007 256.000
81.45002 297.000
81.46996 245.000
81.48991 280.000
81.50986 297.000
81.52980 290.000
81.54975 277.000
81.56970 305.000
81.58965 280.000
81.60959 262.000
81.62954 274.000
81.64949 308.000
81.66943 302.000
81.68938 268.000
81.70933 292.000
81.72927 306.000
81.74922 276.000
81.76917 280.000
81.78912 281.000
81.80906 313.000
81.82901 302.000
81.84896 282.000
81.86890 293.000
81.88885 286.000
81.90880 311.000
81.92874 298.000
81.94869 316.000
81.96864 298.000
81.98859 305.000
82.00853 303.000
82.02848 286.000
82.04843 293.000
82.06837 312.000
82.08832 291.000
82.10827 317.000
82.12821 290.000
82.14816 312.000
82.16811 342.000
82.18805 285.000
82.20800 273.000
82.22795 280.000
82.24790 314.000
82.26784 333.000
82.28779 303.000
82.30774 299.000
82.32768 303.000
82.34763 297.000
82.36758 311.000
82.38752 301.000
82.40747 274.000
82.42742 274.000
82.44737 312.000
82.46731 326.000
82.48726 324.000
82.50721 323.000
82.52715 367.000
82.54710 319.000
82.56705 308.000
82.58699 294.000
82.60694 287.000
82.62689 324.000
82.64683 317.000
82.66678 309.000
82.68673 289.000
82.70668 283.000
82.72662 301.000
82.74657 298.000
82.76652 290.000
82.78646 326.000
82.80641 313.000
82.82636 292.000
82.84630 284.000
82.86625 275.000
82.88620 290.000
82.90615 315.000
82.92609 317.000
82.94604 295.000
82.96599 327.000
82.98593 259.000
83.00588 308.000
83.02583 310.000
83.04577 303.000
83.06572 283.000
83.08567 305.000
83.10561 288.000
83.12556 336.000
83.14551 287.000
83.16546 323.000
83.18540 317.000
83.20535 291.000
83.22530 254.000
83.24524 324.000
83.26519 329.000
83.28514 269.000
83.30508 275.000
83.32503 295.000
83.34498 292.000
83.36493 328.000
83.38487 315.000
83.40482 310.000
83.42477 266.000
83.44471 272.000
83.46466 299.000
83.48461 274.000
83.50455 266.000
83.52450 299.000
83.54445 276.000
83.56440 300.000
83.58434 284.000
83.60429 286.000
83.62424 317.000
83.64418 282.000
83.66413 313.000
83.68408 281.000
83.70402 314.000
83.72397 294.000
83.74392 314.000
83.76386 305.000
83.78381 279.000
83.80376 295.000
83.82371 274.000
83.84365 299.000
83.86360 279.000
83.88355 292.000
83.90349 296.000
83.92344 275.000
83.94339 283.000
83.96333 289.000
83.98328 279.000
84.00323 270.000
84.02318 293.000
84.04312 269.000
84.06307 327.000
84.08302 305.000
84.10296 302.000
84.12291 279.000
84.14286 277.000
84.16280 262.000
84.18275 304.000
84.20270 257.000
84.22264 286.000
84.24259 293.000
84.26254 339.000
84.28249 293.000
84.30243 256.000
84.32238 303.000
84.34233 283.000
84.36227 313.000
84.38222 289.000
84.40217 282.000
84.42211 277.000
84.44206 282.000
84.46201 298.000
84.48196 249.000
84.50190 257.000
84.52185 276.000
84.54180 281.000
84.56174 295.000
84.58169 276.000
84.60164 284.000
84.62158 291.000
84.64153 277.000
84.66148 293.000
84.68142 258.000
84.70137 287.000
84.72132 301.000
84.74127 288.000
84.76121 279.000
84.78116 280.000
84.80111 271.000
84.82105 263.000
84.84100 268.000
84.86095 257.000
84.88089 304.000
84.90084 284.000
84.92079 261.000
84.94074 272.000
84.96068 244.000
84.98063 261.000
85.00058 268.000
85.02052 304.000
85.04047 292.000
85.06042 276.000
85.08036 298.000
85.10031 266.000
85.12026 270.000
85.14021 290.000
85.16015 282.000
85.18010 274.000
85.20005 271.000
85.21999 280.000
85.23994 268.000
85.25989 243.000
85.27983 288.000
85.29978 296.000
85.31973 275.000
85.33967 282.000
85.35962 315.000
85.37957 276.000
85.39952 270.000
85.41946 277.000
85.43941 274.000
85.45936 303.000
85.47930 268.000
85.49925 275.000
85.51920 269.000
85.53914 268.000
85.55909 286.000
85.57904 277.000
85.59899 308.000
85.61893 282.000
85.63888 259.000
85.65883 274.000
85.67877 301.000
85.69872 291.000
85.71867 296.000
85.73861 269.000
85.75856 315.000
85.77851 284.000
85.79845 273.000
85.81840 288.000
85.83835 281.000
85.85830 279.000
85.87824 258.000
85.89819 270.000
85.91814 297.000
85.93808 268.000
85.95803 288.000
85.97798 277.000
85.99792 267.000
86.01787 289.000
86.03782 300.000
86.05777 278.000
86.07771 260.000
86.09766 278.000
86.11761 276.000
86.13755 283.000
86.15750 304.000
86.17745 280.000
86.19739 274.000
86.21734 296.000
86.23729 289.000
86.25723 253.000
86.27718 295.000
86.29713 274.000
86.31708 277.000
86.33702 284.000
86.35697 291.000
86.37692 275.000
86.39686 270.000
86.41681 291.000
86.43676 286.000
86.45670 269.000
86.47665 319.000
86.49660 279.000
86.51655 295.000
86.53649 279.000
86.55644 300.000
86.57639 247.000
86.59633 306.000
86.61628 292.000
86.63623 269.000
86.65617 263.000
86.67612 258.000
86.69607 312.000
86.71602 316.000
86.73596 281.000
86.75591 265.000
86.77586 288.000
86.79580 263.000
86.81575 267.000
86.83570 280.000
86.85564 273.000
86.87559 286.000
86.89554 292.000
86.91548 270.000
86.93543 287.000
86.95538 303.000
86.97533 301.000
86.99527 268.000
87.01522 312.000
87.03517 294.000
87.05511 287.000
87.07506 289.000
87.09501 295.000
87.11495 280.000
87.13490 303.000
87.15485 257.000
87.17480 297.000
87.19474 286.000
87.21469 315.000
87.23464 290.000
87.25458 272.000
87.27453 305.000
87.29448 316.000
87.31442 286.000
87.33437 303.000
87.35432 287.000
87.37426 284.000
87.39421 256.000
87.41416 290.000
87.43411 271.000
87.45405 292.000
87.47400 313.000
87.49395 298.000
87.51389 302.000
87.53384 262.000
87.55379 316.000
87.57373 332.000
87.59368 284.000
87.61363 281.000
87.63358 263.000
87.65352 292.000
87.67347 311.000
87.69342 304.000
87.71336 265.000
87.73331 271.000
87.75326 271.000
87.77320 296.000
87.79315 293.000
87.81310 274.000
87.83304 292.000
87.85299 311.000
87.87294 279.000
87.89289 267.000
87.91283 269.000
87.93278 292.000
87.95273 274.000
87.97267 277.000
87.99262 279.000
88.01257 251.000
88.03251 283.000
88.05246 293.000
88.07241 298.000
88.09236 271.000
88.11230 272.000
88.13225 279.000
88.15220 278.000
88.17214 268.000
88.19209 293.000
88.21204 267.000
88.23198 285.000
88.25193 281.000
88.27188 269.000
88.29183 253.000
88.31177 302.000
88.33172 293.000
88.35167 279.000
88.37161 289.000
88.39156 291.000
88.41151 271.000
88.43145 292.000
88.45140 274.000
88.47135 279.000
88.49129 303.000
88.51124 261.000
88.53119 294.000
88.55114 293.000
88.57108 302.000
88.59103 295.000
88.61098 299.000
88.63092 284.000
88.65087 285.000
88.67082 293.000
88.69076 274.000
88.71071 284.000
88.73066 259.000
88.75061 282.000
88.77055 298.000
88.79050 298.000
88.81045 287.000
88.83039 260.000
88.85034 298.000
88.87029 272.000
88.89023 290.000
88.91018 286.000
88.93013 282.000
88.95007 289.000
88.97002 278.000
88.98997 265.000
89.00992 312.000
89.02986 299.000
89.04981 283.000
89.06976 320.000
89.08970 286.000
89.10965 301.000
89.12960 320.000
89.14954 295.000
89.16949 286.000
89.18944 302.000
89.20939 280.000
89.22933 274.000
89.24928 284.000
89.26923 286.000
89.28917 312.000
89.30912 304.000
89.32907 278.000
89.34901 308.000
89.36896 287.000
89.38891 298.000
89.40885 335.000
89.42880 285.000
89.44875 295.000
89.46870 321.000
89.48864 295.000
89.50859 343.000
89.52854 302.000
89.54848 287.000
89.56843 270.000
89.58838 307.000
89.60832 234.000
89.62827 304.000
89.64822 276.000
89.66817 274.000
89.68811 288.000
89.70806 289.000
89.72801 307.000
89.74795 296.000
89.76790 280.000
89.78785 333.000
89.80779 293.000
89.82774 293.000
89.84769 290.000
89.86764 290.000
89.88758 326.000
89.90753 291.000
89.92748 330.000
89.94742 292.000
89.96737 316.000
89.98732 321.000
90.00726 299.000
