10.00000 105.000
10.01995 100.000
10.03989 109.000
10.05984 103.000
10.07979 93.000
10.09973 98.000
10.11968 99.000
10.13963 100.000
10.15958 112.000
10.17952 92.000
10.19947 109.000
10.21942 119.000
10.23936 104.000
10.25931 91.000
10.27926 123.000
10.29920 100.000
10.31915 112.000
10.33910 123.000
10.35905 112.000
10.37899 104.000
10.39894 104.000
10.41889 96.000
10.43883 111.000
10.45878 107.000
10.47873 96.000
10.49867 101.000
10.51862 91.000
10.53857 107.000
10.55851 108.000
10.57846 101.000
10.59841 102.000
10.61836 93.000
10.63830 88.000
10.65825 98.000
10.67820 102.000
10.69814 110.000
10.71809 103.000
10.73804 97.000
10.75798 91.000
10.77793 111.000
10.79788 107.000
10.81783 81.000
10.83777 78.000
10.85772 107.000
10.87767 100.000
10.89761 96.000
10.91756 98.000
10.93751 96.000
10.95745 91.000
10.97740 105.000
10.99735 122.000
11.01730 117.000
11.03724 109.000
11.05719 91.000
11.07714 98.000
11.09708 115.000
11.11703 111.000
11.13698 92.000
11.15692 100.000
11.17687 105.000
11.19682 112.000
11.21676 109.000
11.23671 85.000
11.25666 117.000
11.27661 102.000
11.29655 123.000
11.31650 116.000
11.33645 98.000
11.35639 108.000
11.37634 102.000
11.39629 96.000
11.41623 90.000
11.43618 133.000
11.45613 111.000
11.47608 106.000
11.49602 112.000
11.51597 110.000
11.53592 98.000
11.55586 95.000
11.57581 105.000
11.59576 109.000
11.61570 104.000
11.63565 117.000
11.65560 85.000
11.67554 104.000
11.69549 86.000
11.71544 111.000
11.73539 108.000
11.75533 121.000
11.77528 79.000
11.79523 119.000
11.81517 108.000
11.83512 92.000
11.85507 126.000
11.87501 109.000
11.89496 91.000
11.91491 113.000
11.93486 121.000
11.95480 107.000
11.97475 86.000
11.99470 112.000
12.01464 113.000
12.03459 105.000
12.05454 104.000
12.07448 108.000
12.09443 101.000
12.11438 117.000
12.13432 97.000
12.15427 107.000
12.17422 108.000
12.19417 107.000
12.21411 117.000
12.23406 134.000
12.25401 105.000
12.27395 121.000
12.29390 96.000
12.31385 118.000
12.33379 99.000
12.35374 120.000
12.37369 109.000
12.39364 106.000
12.41358 109.000
12.43353 107.000
12.45348 105.000
12.47342 109.000
12.49337 96.000
12.51332 116.000
12.53326 89.000
12.55321 112.000
12.57316 121.000
12.59311 104.000
12.61305 107.000
12.63300 112.000
12.65295 114.000
12.67289 118.000
12.69284 87.000
12.71279 103.000
12.73273 115.000
12.75268 86.000
12.77263 85.000
12.79257 102.000
12.81252 111.000
12.83247 102.000
12.85242 115.000
12.87236 121.000
12.89231 91.000
12.91226 117.000
12.93220 116.000
12.95215 98.000
12.97210 94.000
12.99204 106.000
13.01199 97.000
13.03194 109.000
13.05189 109.000
13.07183 103.000
13.09178 134.000
13.11173 116.000
13.13167 93.000
13.15162 109.000
13.17157 91.000
13.19151 120.000
13.21146 105.000
13.23141 104.000
13.25135 111.000
13.27130 106.000
13.29125 95.000
13.31120 102.000
13.33114 113.000
13.35109 88.000
13.37104 136.000
13.39098 110.000
13.41093 115.000
13.43088 100.000
13.45082 104.000
13.47077 113.000
13.49072 125.000
13.51067 111.000
13.53061 127.000
13.55056 116.000
13.57051 102.000
13.59045 102.000
13.61040 119.000
13.63035 132.000
13.65029 117.000
13.67024 121.000
13.69019 112.000
13.71013 100.000
13.73008 103.000
13.75003 131.000
13.76998 99.000
13.78992 107.000
13.80987 108.000
13.82982 120.000
13.84976 118.000
13.86971 122.000
13.88966 114.000
13.90960 114.000
13.92955 140.000
13.94950 108.000
13.96945 126.000
13.98939 139.000
14.00934 123.000
14.02929 95.000
14.04923 122.000
14.06918 155.000
14.08913 130.000
14.10907 146.000
14.12902 144.000
14.14897 134.000
14.16892 129.000
14.18886 118.000
14.20881 135.000
14.22876 149.000
14.24870 130.000
14.26865 120.000
14.28860 123.000
14.30854 129.000
14.32849 118.000
14.34844 127.000
14.36838 112.000
14.38833 115.000
14.40828 142.000
14.42823 126.000
14.44817 108.000
14.46812 126.000
14.48807 153.000
14.50801 122.000
14.52796 142.000
14.54791 123.000
14.56785 120.000
14.58780 136.000
14.60775 135.000
14.62770 140.000
14.64764 154.000
14.66759 151.000
14.68754 179.000
14.70748 139.000
14.72743 160.000
14.74738 151.000
14.76732 155.000
14.78727 153.000
14.80722 185.000
14.82716 187.000
14.84711 151.000
14.86706 167.000
14.88701 193.000
14.90695 200.000
14.92690 234.000
14.94685 240.000
14.96679 226.000
14.98674 267.000
15.00669 271.000
15.02663 250.000
15.04658 272.000
15.06653 270.000
15.08648 234.000
15.10642 261.000
15.12637 279.000
15.14632 273.000
15.16626 309.000
15.18621 287.000
15.20616 330.000
15.22610 315.000
15.24605 345.000
15.26600 380.000
15.28594 362.000
15.30589 399.000
15.32584 441.000
15.34579 448.000
15.36573 526.000
15.38568 680.000
15.40563 682.000
15.42557 819.000
15.44552 972.000
15.46547 1252.000
15.48541 1594.000
15.50536 2289.000
15.52531 3274.000
15.54526 5057.000
15.56520 7291.000
15.58515 10763.000
15.60510 13850.000
15.62504 17312.000
15.64499 19511.000
15.66494 20546.000
15.68488 17138.000
15.70483 12067.000
15.72478 7422.000
15.74472 3776.000
15.76467 2114.000
15.78462 1255.000
15.80457 921.000
15.82451 684.000
15.84446 646.000
15.86441 518.000
15.88435 413.000
15.90430 409.000
15.92425 418.000
15.94419 341.000
15.96414 341.000
15.98409 318.000
16.00404 305.000
16.02398 258.000
16.04393 260.000
16.06388 279.000
16.08382 240.000
16.10377 228.000
16.12372 250.000
16.14366 243.000
16.16361 233.000
16.18356 209.000
16.20351 222.000
16.22345 193.000
16.24340 206.000
16.26335 213.000
16.28329 199.000
16.30324 192.000
16.32319 182.000
16.34313 178.000
16.36308 156.000
16.38303 184.000
16.40297 164.000
16.42292 152.000
16.44287 171.000
16.46282 176.000
16.48276 175.000
16.50271 167.000
16.52266 142.000
16.54260 132.000
16.56255 123.000
16.58250 143.000
16.60244 146.000
16.62239 133.000
16.64234 122.000
16.66229 125.000
16.68223 139.000
16.70218 133.000
16.72213 138.000
16.74207 128.000
16.76202 147.000
16.78197 122.000
16.80191 129.000
16.82186 138.000
16.84181 143.000
16.86175 111.000
16.88170 107.000
16.90165 124.000
16.92160 138.000
16.94154 113.000
16.96149 115.000
16.98144 118.000
17.00138 130.000
17.02133 129.000
17.04128 121.000
17.06122 125.000
17.08117 118.000
17.10112 103.000
17.12107 124.000
17.14101 116.000
17.16096 108.000
17.18091 116.000
17.20085 115.000
17.22080 106.000
17.24075 117.000
17.26069 107.000
17.28064 94.000
17.30059 103.000
17.32053 100.000
17.34048 118.000
17.36043 100.000
17.38038 95.000
17.40032 107.000
17.42027 109.000
17.44022 102.000
17.46016 107.000
17.48011 124.000
17.50006 94.000
17.52000 90.000
17.53995 110.000
17.55990 100.000
17.57985 88.000
17.59979 116.000
17.61974 112.000
17.63969 91.000
17.65963 109.000
17.67958 107.000
17.69953 118.000
17.71947 88.000
17.73942 113.000
17.75937 100.000
17.77932 89.000
17.79926 100.000
17.81921 89.000
17.83916 107.000
17.85910 119.000
17.87905 93.000
17.89900 107.000
17.91894 94.000
17.93889 91.000
17.95884 115.000
17.97878 111.000
17.99873 124.000
18.01868 90.000
18.03863 99.000
18.05857 103.000
18.07852 95.000
18.09847 107.000
18.11841 104.000
18.13836 108.000
18.15831 121.000
18.17825 117.000
18.19820 101.000
18.21815 128.000
18.23810 134.000
18.25804 145.000
18.27799 141.000
18.29794 142.000
18.31788 152.000
18.33783 144.000
18.35778 118.000
18.37772 110.000
18.39767 130.000
18.41762 97.000
18.43756 103.000
18.45751 107.000
18.47746 90.000
18.49741 99.000
18.51735 106.000
18.53730 113.000
18.55725 96.000
18.57719 117.000
18.59714 106.000
18.61709 92.000
18.63703 107.000
18.65698 109.000
18.67693 101.000
18.69688 100.000
18.71682 94.000
18.73677 87.000
18.75672 92.000
18.77666 94.000
18.79661 115.000
18.81656 95.000
18.83650 98.000
18.85645 112.000
18.87640 109.000
18.89634 99.000
18.91629 95.000
18.93624 106.000
18.95619 101.000
18.97613 101.000
18.99608 119.000
19.01603 101.000
19.03597 75.000
19.05592 110.000
19.07587 109.000
19.09581 101.000
19.11576 124.000
19.13571 112.000
19.15566 100.000
19.17560 103.000
19.19555 98.000
19.21550 91.000
19.23544 115.000
19.25539 74.000
19.27534 78.000
19.29528 88.000
19.31523 91.000
19.33518 110.000
19.35513 106.000
19.37507 90.000
19.39502 99.000
19.41497 76.000
19.43491 91.000
19.45486 108.000
19.47481 85.000
19.49475 88.000
19.51470 121.000
19.53465 120.000
19.55459 87.000
19.57454 106.000
19.59449 101.000
19.61444 90.000
19.63438 101.000
19.65433 112.000
19.67428 108.000
19.69422 106.000
19.71417 111.000
19.73412 103.000
19.75406 105.000
19.77401 109.000
19.79396 93.000
19.81391 92.000
19.83385 87.000
19.85380 102.000
19.87375 83.000
19.89369 93.000
19.91364 94.000
19.93359 84.000
19.95353 98.000
19.97348 106.000
19.99343 116.000
20.01337 112.000
20.03332 79.000
20.05327 98.000
20.07322 97.000
20.09316 98.000
20.11311 98.000
20.13306 113.000
20.15300 95.000
20.17295 94.000
20.19290 84.000
20.21284 96.000
20.23279 97.000
20.25274 98.000
20.27269 110.000
20.29263 89.000
20.31258 95.000
20.33253 85.000
20.35247 98.000
20.37242 96.000
20.39237 81.000
20.41231 108.000
20.43226 84.000
20.45221 110.000
20.47215 97.000
20.49210 105.000
20.51205 107.000
20.53200 112.000
20.55194 102.000
20.57189 87.000
20.59184 98.000
20.61178 123.000
20.63173 109.000
20.65168 114.000
20.67162 100.000
20.69157 116.000
20.71152 112.000
20.73147 110.000
20.75141 103.000
20.77136 96.000
20.79131 98.000
20.81125 96.000
20.83120 111.000
20.85115 91.000
20.87109 101.000
20.89104 94.000
20.91099 104.000
20.93094 106.000
20.95088 97.000
20.97083 97.000
20.99078 124.000
21.01072 116.000
21.03067 111.000
21.05062 117.000
21.07056 105.000
21.09051 101.000
21.11046 92.000
21.13040 106.000
21.15035 115.000
21.17030 91.000
21.19025 109.000
21.21019 103.000
21.23014 112.000
21.25009 87.000
21.27003 101.000
21.28998 120.000
21.30993 108.000
21.32987 97.000
21.34982 106.000
21.36977 85.000
21.38972 84.000
21.40966 84.000
21.42961 86.000
21.44956 96.000
21.46950 107.000
21.48945 115.000
21.50940 96.000
21.52934 86.000
21.54929 112.000
21.56924 92.000
21.58918 105.000
21.60913 98.000
21.62908 100.000
21.64903 100.000
21.66897 84.000
21.68892 101.000
21.70887 75.000
21.72881 109.000
21.74876 103.000
21.76871 110.000
21.78865 110.000
21.80860 98.000
21.82855 96.000
21.84850 94.000
21.86844 97.000
21.88839 104.000
21.90834 108.000
21.92828 99.000
21.94823 103.000
21.96818 98.000
21.98812 119.000
22.00807 98.000
22.02802 101.000
22.04796 111.000
22.06791 97.000
22.08786 94.000
22.10781 97.000
22.12775 107.000
22.14770 110.000
22.16765 109.000
22.18759 98.000
22.20754 103.000
22.22749 92.000
22.24743 94.000
22.26738 111.000
22.28733 101.000
22.30728 103.000
22.32722 95.000
22.34717 104.000
22.36712 97.000
22.38706 82.000
22.40701 110.000
22.42696 86.000
22.44690 97.000
22.46685 86.000
22.48680 91.000
22.50675 92.000
22.52669 91.000
22.54664 100.000
22.56659 83.000
22.58653 97.000
22.60648 104.000
22.62643 91.000
22.64637 112.000
22.66632 92.000
22.68627 98.000
22.70621 121.000
22.72616 125.000
22.74611 100.000
22.76606 86.000
22.78600 110.000
22.80595 99.000
22.82590 113.000
22.84584 103.000
22.86579 111.000
22.88574 90.000
22.90568 119.000
22.92563 91.000
22.94558 99.000
22.96553 130.000
22.98547 103.000
23.00542 89.000
23.02537 106.000
23.04531 119.000
23.06526 78.000
23.08521 122.000
23.10515 78.000
23.12510 100.000
23.14505 108.000
23.16499 100.000
23.18494 89.000
23.20489 111.000
23.22484 116.000
23.24478 109.000
23.26473 95.000
23.28468 111.000
23.30462 91.000
23.32457 113.000
23.34452 99.000
23.36446 100.000
23.38441 93.000
23.40436 101.000
23.42431 94.000
23.44425 101.000
23.46420 97.000
23.48415 106.000
23.50409 129.000
23.52404 98.000
23.54399 82.000
23.56393 92.000
23.58388 93.000
23.60383 106.000
23.62377 98.000
23.64372 120.000
23.66367 118.000
23.68362 98.000
23.70356 109.000
23.72351 106.000
23.74346 99.000
23.76340 112.000
23.78335 79.000
23.80330 92.000
23.82324 106.000
23.84319 96.000
23.86314 94.000
23.88309 91.000
23.90303 87.000
23.92298 90.000
23.94293 83.000
23.96287 98.000
23.98282 100.000
24.00277 98.000
24.02271 109.000
24.04266 112.000
24.06261 90.000
24.08256 88.000
24.10250 90.000
24.12245 114.000
24.14240 103.000
24.16234 96.000
24.18229 86.000
24.20224 103.000
24.22218 93.000
24.24213 99.000
24.26208 108.000
24.28202 104.000
24.30197 122.000
24.32192 108.000
24.34187 96.000
24.36181 92.000
24.38176 102.000
24.40171 104.000
24.42165 100.000
24.44160 112.000
24.46155 103.000
24.48149 97.000
24.50144 123.000
24.52139 91.000
24.54134 97.000
24.56128 112.000
24.58123 99.000
24.60118 102.000
24.62112 108.000
24.64107 119.000
24.66102 125.000
24.68096 95.000
24.70091 115.000
24.72086 100.000
24.74080 93.000
24.76075 85.000
24.78070 94.000
24.80065 94.000
24.82059 93.000
24.84054 116.000
24.86049 102.000
24.88043 101.000
24.90038 101.000
24.92033 94.000
24.94027 99.000
24.96022 105.000
24.98017 98.000
25.00012 99.000
25.02006 105.000
25.04001 84.000
25.05996 131.000
25.07990 120.000
25.09985 122.000
25.11980 112.000
25.13974 97.000
25.15969 94.000
25.17964 96.000
25.19958 103.000
25.21953 110.000
25.23948 88.000
25.25943 103.000
25.27937 98.000
25.29932 109.000
25.31927 108.000
25.33921 114.000
25.35916 99.000
25.37911 104.000
25.39905 113.000
25.41900 115.000
25.43895 117.000
25.45890 96.000
25.47884 107.000
25.49879 108.000
25.51874 108.000
25.53868 83.000
25.55863 123.000
25.57858 108.000
25.59852 103.000
25.61847 104.000
25.63842 116.000
25.65837 112.000
25.67831 111.000
25.69826 82.000
25.71821 102.000
25.73815 93.000
25.75810 87.000
25.77805 123.000
25.79799 122.000
25.81794 99.000
25.83789 113.000
25.85783 96.000
25.87778 99.000
25.89773 119.000
25.91768 100.000
25.93762 123.000
25.95757 93.000
25.97752 112.000
25.99746 106.000
26.01741 124.000
26.03736 115.000
26.05730 95.000
26.07725 108.000
26.09720 105.000
26.11715 113.000
26.13709 97.000
26.15704 92.000
26.17699 102.000
26.19693 122.000
26.21688 112.000
26.23683 107.000
26.25677 99.000
26.27672 102.000
26.29667 116.000
26.31661 110.000
26.33656 111.000
26.35651 120.000
26.37646 124.000
26.39640 109.000
26.41635 103.000
26.43630 96.000
26.45624 104.000
26.47619 125.000
26.49614 108.000
26.51608 122.000
26.53603 117.000
26.55598 103.000
26.57593 76.000
26.59587 113.000
26.61582 105.000
26.63577 120.000
26.65571 108.000
26.67566 97.000
26.69561 105.000
26.71555 98.000
26.73550 114.000
26.75545 108.000
26.77539 106.000
26.79534 114.000
26.81529 98.000
26.83524 104.000
26.85518 86.000
26.87513 92.000
26.89508 94.000
26.91502 102.000
26.93497 121.000
26.95492 93.000
26.97486 112.000
26.99481 100.000
27.01476 117.000
27.03471 98.000
27.05465 110.000
27.07460 99.000
27.09455 102.000
27.11449 97.000
27.13444 107.000
27.15439 101.000
27.17433 123.000
27.19428 95.000
27.21423 113.000
27.23417 100.000
27.25412 116.000
27.27407 97.000
27.29402 132.000
27.31396 118.000
27.33391 125.000
27.35386 84.000
27.37380 87.000
27.39375 123.000
27.41370 78.000
27.43364 105.000
27.45359 90.000
27.47354 110.000
27.49349 107.000
27.51343 110.000
27.53338 110.000
27.55333 116.000
27.57327 116.000
27.59322 120.000
27.61317 104.000
27.63311 110.000
27.65306 112.000
27.67301 100.000
27.69296 96.000
27.71290 107.000
27.73285 91.000
27.75280 112.000
27.77274 88.000
27.79269 91.000
27.81264 124.000
27.83258 119.000
27.85253 104.000
27.87248 96.000
27.89242 101.000
27.91237 94.000
27.93232 102.000
27.95227 92.000
27.97221 93.000
27.99216 123.000
28.01211 106.000
28.03205 95.000
28.05200 104.000
28.07195 115.000
28.09189 116.000
28.11184 89.000
28.13179 103.000
28.15174 126.000
28.17168 90.000
28.19163 105.000
28.21158 116.000
28.23152 99.000
28.25147 105.000
28.27142 113.000
28.29136 95.000
28.31131 108.000
28.33126 104.000
28.35120 107.000
28.37115 116.000
28.39110 121.000
28.41105 108.000
28.43099 81.000
28.45094 117.000
28.47089 97.000
28.49083 104.000
28.51078 114.000
28.53073 112.000
28.55067 113.000
28.57062 119.000
28.59057 107.000
28.61052 116.000
28.63046 105.000
28.65041 79.000
28.67036 107.000
28.69030 124.000
28.71025 98.000
28.73020 132.000
28.75014 111.000
28.77009 108.000
28.79004 101.000
28.80998 106.000
28.82993 122.000
28.84988 116.000
28.86983 118.000
28.88977 101.000
28.90972 119.000
28.92967 94.000
28.94961 95.000
28.96956 114.000
28.98951 97.000
29.00945 104.000
29.02940 118.000
29.04935 97.000
29.06930 91.000
29.08924 105.000
29.10919 112.000
29.12914 106.000
29.14908 96.000
29.16903 105.000
29.18898 116.000
29.20892 109.000
29.22887 97.000
29.24882 108.000
29.26877 103.000
29.28871 96.000
29.30866 104.000
29.32861 104.000
29.34855 117.000
29.36850 109.000
29.38845 94.000
29.40839 130.000
29.42834 102.000
29.44829 92.000
29.46823 90.000
29.48818 98.000
29.50813 111.000
29.52808 115.000
29.54802 111.000
29.56797 104.000
29.58792 100.000
29.60786 132.000
29.62781 118.000
29.64776 98.000
29.66770 115.000
29.68765 117.000
29.70760 98.000
29.72755 89.000
29.74749 110.000
29.76744 120.000
29.78739 108.000
29.80733 106.000
29.82728 112.000
29.84723 120.000
29.86717 122.000
29.88712 103.000
29.90707 124.000
29.92701 131.000
29.94696 145.000
29.96691 109.000
29.98686 138.000
30.00680 158.000
30.02675 160.000
30.04670 161.000
30.06664 176.000
30.08659 174.000
30.10654 167.000
30.12648 182.000
30.14643 159.000
30.16638 189.000
30.18633 151.000
30.20627 164.000
30.22622 159.000
30.24617 126.000
30.26611 120.000
30.28606 121.000
30.30601 130.000
30.32595 121.000
30.34590 123.000
30.36585 111.000
30.38579 107.000
30.40574 131.000
30.42569 111.000
30.44564 104.000
30.46558 104.000
30.48553 127.000
30.50548 122.000
30.52542 110.000
30.54537 113.000
30.56532 99.000
30.58526 139.000
30.60521 116.000
30.62516 107.000
30.64511 115.000
30.66505 123.000
30.68500 123.000
30.70495 101.000
30.72489 102.000
30.74484 114.000
30.76479 124.000
30.78473 128.000
30.80468 130.000
30.82463 129.000
30.84458 107.000
30.86452 115.000
30.88447 112.000
30.90442 123.000
30.92436 126.000
30.94431 132.000
30.96426 112.000
30.98420 124.000
31.00415 113.000
31.02410 122.000
31.04404 114.000
31.06399 133.000
31.08394 118.000
31.10389 127.000
31.12383 108.000
31.14378 146.000
31.16373 127.000
31.18367 125.000
31.20362 133.000
31.22357 152.000
31.24351 135.000
31.26346 130.000
31.28341 139.000
31.30336 142.000
31.32330 138.000
31.34325 133.000
31.36320 139.000
31.38314 153.000
31.40309 151.000
31.42304 174.000
31.44298 148.000
31.46293 193.000
31.48288 195.000
31.50282 241.000
31.52277 242.000
31.54272 298.000
31.56267 395.000
31.58261 526.000
31.60256 747.000
31.62251 972.000
31.64245 1216.000
31.66240 1525.000
31.68235 1588.000
31.70229 1596.000
31.72224 1308.000
31.74219 1175.000
31.76214 986.000
31.78208 864.000
31.80203 623.000
31.82198 433.000
31.84192 339.000
31.86187 234.000
31.88182 215.000
31.90176 181.000
31.92171 171.000
31.94166 144.000
31.96160 173.000
31.98155 140.000
32.00150 147.000
32.02145 108.000
32.04139 134.000
32.06134 139.000
32.08129 128.000
32.10123 121.000
32.12118 120.000
32.14113 123.000
32.16107 129.000
32.18102 114.000
32.20097 134.000
32.22092 131.000
32.24086 106.000
32.26081 124.000
32.28076 123.000
32.30070 125.000
32.32065 134.000
32.34060 121.000
32.36054 139.000
32.38049 145.000
32.40044 145.000
32.42039 142.000
32.44033 106.000
32.46028 121.000
32.48023 131.000
32.50017 127.000
32.52012 121.000
32.54007 112.000
32.56001 118.000
32.57996 98.000
32.59991 121.000
32.61985 109.000
32.63980 109.000
32.65975 107.000
32.67970 110.000
32.69964 116.000
32.71959 108.000
32.73954 102.000
32.75948 118.000
32.77943 120.000
32.79938 99.000
32.81932 107.000
32.83927 113.000
32.85922 104.000
32.87917 109.000
32.89911 123.000
32.91906 106.000
32.93901 98.000
32.95895 92.000
32.97890 111.000
32.99885 109.000
33.01879 101.000
33.03874 102.000
33.05869 113.000
33.07863 105.000
33.09858 107.000
33.11853 112.000
33.13848 102.000
33.15842 107.000
33.17837 99.000
33.19832 102.000
33.21826 116.000
33.23821 121.000
33.25816 121.000
33.27810 113.000
33.29805 103.000
33.31800 120.000
33.33795 114.000
33.35789 108.000
33.37784 104.000
33.39779 112.000
33.41773 95.000
33.43768 123.000
33.45763 140.000
33.47757 99.000
33.49752 103.000
33.51747 105.000
33.53741 100.000
33.55736 115.000
33.57731 135.000
33.59726 113.000
33.61720 112.000
33.63715 106.000
33.65710 132.000
33.67704 104.000
33.69699 90.000
33.71694 128.000
33.73688 91.000
33.75683 109.000
33.77678 129.000
33.79673 108.000
33.81667 112.000
33.83662 103.000
33.85657 102.000
33.87651 113.000
33.89646 118.000
33.91641 112.000
33.93635 95.000
33.95630 115.000
33.97625 119.000
33.99620 98.000
34.01614 108.000
34.03609 123.000
34.05604 113.000
34.07598 125.000
34.09593 98.000
34.11588 107.000
34.13582 124.000
34.15577 128.000
34.17572 111.000
34.19566 128.000
34.21561 117.000
34.23556 113.000
34.25551 114.000
34.27545 113.000
34.29540 118.000
34.31535 136.000
34.33529 114.000
34.35524 133.000
34.37519 120.000
34.39513 123.000
34.41508 129.000
34.43503 92.000
34.45498 141.000
34.47492 117.000
34.49487 104.000
34.51482 102.000
34.53476 133.000
34.55471 123.000
34.57466 102.000
34.59460 116.000
34.61455 139.000
34.63450 119.000
34.65444 128.000
34.67439 128.000
34.69434 129.000
34.71429 137.000
34.73423 142.000
34.75418 135.000
34.77413 118.000
34.79407 120.000
34.81402 115.000
34.83397 106.000
34.85391 119.000
34.87386 115.000
34.89381 111.000
34.91376 130.000
34.93370 115.000
34.95365 111.000
34.97360 120.000
34.99354 138.000
35.01349 107.000
35.03344 127.000
35.05338 117.000
35.07333 121.000
35.09328 131.000
35.11322 118.000
35.13317 125.000
35.15312 167.000
35.17307 140.000
35.19301 134.000
35.21296 157.000
35.23291 149.000
35.25285 143.000
35.27280 187.000
35.29275 185.000
35.31269 201.000
35.33264 242.000
35.35259 245.000
35.37254 283.000
35.39248 334.000
35.41243 352.000
35.43238 380.000
35.45232 428.000
35.47227 470.000
35.49222 456.000
35.51216 485.000
35.53211 473.000
35.55206 424.000
35.57201 421.000
35.59195 347.000
35.61190 363.000
35.63185 367.000
35.65179 395.000
35.67174 450.000
35.69169 509.000
35.71163 589.000
35.73158 825.000
35.75153 964.000
35.77147 1093.000
35.79142 1108.000
35.81137 1044.000
35.83132 948.000
35.85126 845.000
35.87121 715.000
35.89116 659.000
35.91110 521.000
35.93105 416.000
35.95100 308.000
35.97094 240.000
35.99089 255.000
36.01084 172.000
36.03079 176.000
36.05073 158.000
36.07068 155.000
36.09063 174.000
36.11057 145.000
36.13052 118.000
36.15047 164.000
36.17041 151.000
36.19036 121.000
36.21031 134.000
36.23025 134.000
36.25020 143.000
36.27015 120.000
36.29010 148.000
36.31004 134.000
36.32999 119.000
36.34994 134.000
36.36988 128.000
36.38983 136.000
36.40978 134.000
36.42972 134.000
36.44967 125.000
36.46962 113.000
36.48957 110.000
36.50951 123.000
36.52946 109.000
36.54941 141.000
36.56935 150.000
36.58930 156.000
36.60925 165.000
36.62919 177.000
36.64914 198.000
36.66909 209.000
36.68903 228.000
36.70898 197.000
36.72893 220.000
36.74888 193.000
36.76882 173.000
36.78877 163.000
36.80872 167.000
36.82866 165.000
36.84861 158.000
36.86856 135.000
36.88850 124.000
36.90845 120.000
36.92840 110.000
36.94835 138.000
36.96829 122.000
36.98824 136.000
37.00819 134.000
37.02813 127.000
37.04808 130.000
37.06803 137.000
37.08797 134.000
37.10792 142.000
37.12787 135.000
37.14781 153.000
37.16776 144.000
37.18771 128.000
37.20766 127.000
37.22760 146.000
37.24755 131.000
37.26750 96.000
37.28744 122.000
37.30739 125.000
37.32734 119.000
37.34728 143.000
37.36723 120.000
37.38718 99.000
37.40713 116.000
37.42707 117.000
37.44702 115.000
37.46697 122.000
37.48691 127.000
37.50686 134.000
37.52681 119.000
37.54675 116.000
37.56670 125.000
37.58665 119.000
37.60660 128.000
37.62654 134.000
37.64649 127.000
37.66644 126.000
37.68638 113.000
37.70633 119.000
37.72628 115.000
37.74622 116.000
37.76617 106.000
37.78612 131.000
37.80606 126.000
37.82601 133.000
37.84596 111.000
37.86591 123.000
37.88585 140.000
37.90580 113.000
37.92575 130.000
37.94569 121.000
37.96564 128.000
37.98559 142.000
38.00553 135.000
38.02548 141.000
38.04543 130.000
38.06538 129.000
38.08532 122.000
38.10527 123.000
38.12522 117.000
38.14516 123.000
38.16511 139.000
38.18506 121.000
38.20500 127.000
38.22495 148.000
38.24490 133.000
38.26484 129.000
38.28479 137.000
38.30474 144.000
38.32469 143.000
38.34463 139.000
38.36458 144.000
38.38453 143.000
38.40447 143.000
38.42442 146.000
38.44437 141.000
38.46431 150.000
38.48426 177.000
38.50421 173.000
38.52416 214.000
38.54410 207.000
38.56405 226.000
38.58400 250.000
38.60394 229.000
38.62389 274.000
38.64384 280.000
38.66378 243.000
38.68373 239.000
38.70368 239.000
38.72362 216.000
38.74357 207.000
38.76352 205.000
38.78347 178.000
38.80341 185.000
38.82336 193.000
38.84331 193.000
38.86325 200.000
38.88320 216.000
38.90315 199.000
38.92309 194.000
38.94304 215.000
38.96299 249.000
38.98294 238.000
39.00288 237.000
39.02283 261.000
39.04278 266.000
39.06272 271.000
39.08267 329.000
39.10262 384.000
39.12256 429.000
39.14251 517.000
39.16246 592.000
39.18241 741.000
39.20235 947.000
39.22230 1192.000
39.24225 1395.000
39.26219 1698.000
39.28214 1898.000
39.30209 1974.000
39.32203 1895.000
39.34198 1670.000
39.36193 1559.000
39.38187 1417.000
39.40182 1345.000
39.42177 1153.000
39.44172 863.000
39.46166 669.000
39.48161 558.000
39.50156 442.000
39.52150 365.000
39.54145 309.000
39.56140 323.000
39.58134 240.000
39.60129 246.000
39.62124 229.000
39.64119 245.000
39.66113 226.000
39.68108 185.000
39.70103 170.000
39.72097 171.000
39.74092 189.000
39.76087 168.000
39.78081 181.000
39.80076 147.000
39.82071 149.000
39.84065 165.000
39.86060 158.000
39.88055 140.000
39.90050 147.000
39.92044 151.000
39.94039 132.000
39.96034 140.000
39.98028 130.000
40.00023 124.000
40.02018 127.000
40.04012 136.000
40.06007 127.000
40.08002 111.000
40.09997 131.000
40.11991 141.000
40.13986 131.000
40.15981 127.000
40.17975 104.000
40.19970 111.000
40.21965 139.000
40.23959 131.000
40.25954 105.000
40.27949 147.000
40.29943 118.000
40.31938 121.000
40.33933 125.000
40.35928 144.000
40.37922 145.000
40.39917 114.000
40.41912 102.000
40.43906 105.000
40.45901 99.000
40.47896 128.000
40.49890 114.000
40.51885 117.000
40.53880 100.000
40.55875 123.000
40.57869 124.000
40.59864 102.000
40.61859 101.000
40.63853 100.000
40.65848 99.000
40.67843 111.000
40.69837 132.000
40.71832 110.000
40.73827 102.000
40.75822 113.000
40.77816 118.000
40.79811 123.000
40.81806 108.000
40.83800 110.000
40.85795 103.000
40.87790 127.000
40.89784 120.000
40.91779 91.000
40.93774 109.000
40.95768 113.000
40.97763 108.000
40.99758 126.000
41.01753 115.000
41.03747 110.000
41.05742 113.000
41.07737 120.000
41.09731 98.000
41.11726 128.000
41.13721 107.000
41.15715 113.000
41.17710 103.000
41.19705 106.000
41.21700 107.000
41.23694 122.000
41.25689 112.000
41.27684 116.000
41.29678 119.000
41.31673 105.000
41.33668 100.000
41.35662 113.000
41.37657 114.000
41.39652 121.000
41.41646 107.000
41.43641 120.000
41.45636 118.000
41.47631 99.000
41.49625 117.000
41.51620 138.000
41.53615 120.000
41.55609 110.000
41.57604 116.000
41.59599 126.000
41.61593 119.000
41.63588 100.000
41.65583 94.000
41.67578 113.000
41.69572 97.000
41.71567 113.000
41.73562 112.000
41.75556 106.000
41.77551 106.000
41.79546 115.000
41.81540 108.000
41.83535 115.000
41.85530 115.000
41.87524 105.000
41.89519 111.000
41.91514 109.000
41.93509 117.000
41.95503 111.000
41.97498 96.000
41.99493 94.000
42.01487 139.000
42.03482 106.000
42.05477 94.000
42.07471 111.000
42.09466 104.000
42.11461 104.000
42.13456 121.000
42.15450 116.000
42.17445 131.000
42.19440 105.000
42.21434 107.000
42.23429 105.000
42.25424 104.000
42.27418 123.000
42.29413 110.000
42.31408 107.000
42.33403 132.000
42.35397 102.000
42.37392 100.000
42.39387 110.000
42.41381 100.000
42.43376 124.000
42.45371 94.000
42.47365 119.000
42.49360 112.000
42.51355 112.000
42.53349 104.000
42.55344 121.000
42.57339 110.000
42.59334 119.000
42.61328 98.000
42.63323 114.000
42.65318 117.000
42.67312 108.000
42.69307 131.000
42.71302 129.000
42.73296 111.000
42.75291 119.000
42.77286 117.000
42.79281 112.000
42.81275 129.000
42.83270 128.000
42.85265 139.000
42.87259 129.000
42.89254 114.000
42.91249 153.000
42.93243 136.000
42.95238 148.000
42.97233 134.000
42.99227 143.000
43.01222 163.000
43.03217 162.000
43.05212 158.000
43.07206 181.000
43.09201 182.000
43.11196 230.000
43.13190 222.000
43.15185 280.000
43.17180 281.000
43.19174 300.000
43.21169 335.000
43.23164 328.000
43.25159 443.000
43.27153 488.000
43.29148 637.000
43.31143 669.000
43.33137 796.000
43.35132 827.000
43.37127 779.000
43.39121 692.000
43.41116 623.000
43.43111 614.000
43.45105 587.000
43.47100 498.000
43.49095 447.000
43.51090 396.000
43.53084 335.000
43.55079 307.000
43.57074 265.000
43.59068 230.000
43.61063 214.000
43.63058 152.000
43.65052 187.000
43.67047 155.000
43.69042 137.000
43.71037 131.000
43.73031 151.000
43.75026 159.000
43.77021 140.000
43.79015 152.000
43.81010 129.000
43.83005 124.000
43.84999 133.000
43.86994 120.000
43.88989 144.000
43.90984 119.000
43.92978 118.000
43.94973 117.000
43.96968 134.000
43.98962 122.000
44.00957 124.000
44.02952 106.000
44.04946 109.000
44.06941 121.000
44.08936 93.000
44.10930 107.000
44.12925 114.000
44.14920 97.000
44.16915 121.000
44.18909 121.000
44.20904 121.000
44.22899 101.000
44.24893 131.000
44.26888 101.000
44.28883 130.000
44.30877 109.000
44.32872 138.000
44.34867 88.000
44.36862 108.000
44.38856 103.000
44.40851 94.000
44.42846 119.000
44.44840 111.000
44.46835 104.000
44.48830 88.000
44.50824 107.000
44.52819 101.000
44.54814 103.000
44.56808 115.000
44.58803 121.000
44.60798 114.000
44.62793 112.000
44.64787 97.000
44.66782 98.000
44.68777 113.000
44.70771 106.000
44.72766 103.000
44.74761 113.000
44.76755 112.000
44.78750 132.000
44.80745 103.000
44.82740 125.000
44.84734 106.000
44.86729 92.000
44.88724 99.000
44.90718 101.000
44.92713 121.000
44.94708 96.000
44.96702 118.000
44.98697 96.000
45.00692 122.000
45.02686 128.000
45.04681 88.000
45.06676 105.000
45.08671 99.000
45.10665 109.000
45.12660 103.000
45.14655 120.000
45.16649 99.000
45.18644 92.000
45.20639 126.000
45.22633 118.000
45.24628 121.000
45.26623 112.000
45.28618 83.000
45.30612 99.000
45.32607 109.000
45.34602 114.000
45.36596 102.000
45.38591 118.000
45.40586 100.000
45.42580 82.000
45.44575 105.000
45.46570 121.000
45.48565 104.000
45.50559 119.000
45.52554 94.000
45.54549 103.000
45.56543 104.000
45.58538 129.000
45.60533 88.000
45.62527 93.000
45.64522 103.000
45.66517 122.000
45.68511 101.000
45.70506 118.000
45.72501 118.000
45.74496 114.000
45.76490 101.000
45.78485 91.000
45.80480 109.000
45.82474 102.000
45.84469 108.000
45.86464 108.000
45.88458 100.000
45.90453 114.000
45.92448 94.000
45.94443 103.000
45.96437 101.000
45.98432 116.000
46.00427 125.000
46.02421 105.000
46.04416 115.000
46.06411 109.000
46.08405 110.000
46.10400 113.000
46.12395 105.000
46.14389 110.000
46.16384 116.000
46.18379 115.000
46.20374 121.000
46.22368 110.000
46.24363 107.000
46.26358 107.000
46.28352 115.000
46.30347 117.000
46.32342 102.000
46.34336 115.000
46.36331 114.000
46.38326 105.000
46.40321 113.000
46.42315 95.000
46.44310 87.000
46.46305 115.000
46.48299 115.000
46.50294 116.000
46.52289 104.000
46.54283 139.000
46.56278 119.000
46.58273 102.000
46.60267 107.000
46.62262 120.000
46.64257 113.000
46.66252 97.000
46.68246 101.000
46.70241 120.000
46.72236 93.000
46.74230 106.000
46.76225 119.000
46.78220 113.000
46.80214 121.000
46.82209 111.000
46.84204 105.000
46.86199 103.000
46.88193 110.000
46.90188 108.000
46.92183 96.000
46.94177 105.000
46.96172 110.000
46.98167 113.000
47.00161 131.000
47.02156 97.000
47.04151 100.000
47.06146 110.000
47.08140 106.000
47.10135 100.000
47.12130 99.000
47.14124 116.000
47.16119 89.000
47.18114 125.000
47.20108 101.000
47.22103 109.000
47.24098 96.000
47.26092 111.000
47.28087 104.000
47.30082 114.000
47.32077 116.000
47.34071 112.000
47.36066 122.000
47.38061 96.000
47.40055 100.000
47.42050 102.000
47.44045 106.000
47.46039 110.000
47.48034 134.000
47.50029 104.000
47.52024 111.000
47.54018 104.000
47.56013 133.000
47.58008 127.000
47.60002 127.000
47.61997 120.000
47.63992 120.000
47.65986 111.000
47.67981 126.000
47.69976 123.000
47.71970 134.000
47.73965 131.000
47.75960 150.000
47.77955 123.000
47.79949 134.000
47.81944 118.000
47.83939 135.000
47.85933 147.000
47.87928 125.000
47.89923 136.000
47.91917 143.000
47.93912 157.000
47.95907 160.000
47.97902 152.000
47.99896 165.000
48.01891 146.000
48.03886 155.000
48.05880 152.000
48.07875 146.000
48.09870 192.000
48.11864 167.000
48.13859 193.000
48.15854 198.000
48.17848 186.000
48.19843 220.000
48.21838 242.000
48.23833 238.000
48.25827 253.000
48.27822 277.000
48.29817 290.000
48.31811 371.000
48.33806 401.000
48.35801 429.000
48.37795 479.000
48.39790 514.000
48.41785 563.000
48.43780 666.000
48.45774 808.000
48.47769 967.000
48.49764 1229.000
48.51758 1381.000
48.53753 1531.000
48.55748 1778.000
48.57742 1761.000
48.59737 1649.000
48.61732 1572.000
48.63726 1412.000
48.65721 1308.000
48.67716 1297.000
48.69711 1160.000
48.71705 1080.000
48.73700 904.000
48.75695 789.000
48.77689 667.000
48.79684 594.000
48.81679 460.000
48.83673 398.000
48.85668 365.000
48.87663 363.000
48.89658 295.000
48.91652 277.000
48.93647 270.000
48.95642 248.000
48.97636 245.000
48.99631 221.000
49.01626 214.000
49.03620 202.000
49.05615 172.000
49.07610 148.000
49.09605 157.000
49.11599 176.000
49.13594 164.000
49.15589 131.000
49.17583 154.000
49.19578 160.000
49.21573 136.000
49.23567 158.000
49.25562 134.000
49.27557 119.000
49.29551 133.000
49.31546 123.000
49.33541 147.000
49.35536 134.000
49.37530 132.000
49.39525 120.000
49.41520 121.000
49.43514 138.000
49.45509 106.000
49.47504 137.000
49.49498 120.000
49.51493 105.000
49.53488 116.000
49.55483 120.000
49.57477 94.000
49.59472 135.000
49.61467 95.000
49.63461 125.000
49.65456 93.000
49.67451 119.000
49.69445 101.000
49.71440 111.000
49.73435 114.000
49.75429 139.000
49.77424 117.000
49.79419 130.000
49.81414 117.000
49.83408 123.000
49.85403 127.000
49.87398 134.000
49.89392 119.000
49.91387 115.000
49.93382 111.000
49.95376 126.000
49.97371 121.000
49.99366 101.000
50.01361 102.000
50.03355 100.000
50.05350 97.000
50.07345 105.000
50.09339 108.000
50.11334 113.000
50.13329 123.000
50.15323 103.000
50.17318 130.000
50.19313 105.000
50.21307 108.000
50.23302 107.000
50.25297 124.000
50.27292 111.000
50.29286 101.000
50.31281 110.000
50.33276 111.000
50.35270 112.000
50.37265 96.000
50.39260 115.000
50.41254 113.000
50.43249 97.000
50.45244 93.000
50.47239 126.000
50.49233 122.000
50.51228 98.000
50.53223 107.000
50.55217 108.000
50.57212 104.000
50.59207 106.000
50.61201 120.000
50.63196 101.000
50.65191 111.000
50.67186 106.000
50.69180 95.000
50.71175 98.000
50.73170 91.000
50.75164 102.000
50.77159 92.000
50.79154 88.000
50.81148 104.000
50.83143 103.000
50.85138 109.000
50.87132 97.000
50.89127 108.000
50.91122 93.000
50.93117 103.000
50.95111 104.000
50.97106 98.000
50.99101 103.000
51.01095 88.000
51.03090 95.000
51.05085 109.000
51.07079 111.000
51.09074 104.000
51.11069 93.000
51.13064 105.000
51.15058 109.000
51.17053 114.000
51.19048 83.000
51.21042 105.000
51.23037 109.000
51.25032 106.000
51.27026 103.000
51.29021 95.000
51.31016 85.000
51.33010 98.000
51.35005 112.000
51.37000 111.000
51.38995 91.000
51.40989 98.000
51.42984 106.000
51.44979 106.000
51.46973 112.000
51.48968 127.000
51.50963 104.000
51.52957 98.000
51.54952 113.000
51.56947 88.000
51.58942 105.000
51.60936 77.000
51.62931 103.000
51.64926 81.000
51.66920 105.000
51.68915 126.000
51.70910 88.000
51.72904 99.000
51.74899 100.000
51.76894 110.000
51.78888 97.000
51.80883 92.000
51.82878 99.000
51.84873 88.000
51.86867 101.000
51.88862 104.000
51.90857 114.000
51.92851 94.000
51.94846 83.000
51.96841 112.000
51.98835 91.000
52.00830 124.000
52.02825 102.000
52.04820 99.000
52.06814 97.000
52.08809 94.000
52.10804 102.000
52.12798 99.000
52.14793 107.000
52.16788 108.000
52.18782 91.000
52.20777 91.000
52.22772 82.000
52.24767 90.000
52.26761 90.000
52.28756 92.000
52.30751 88.000
52.32745 102.000
52.34740 95.000
52.36735 92.000
52.38729 90.000
52.40724 99.000
52.42719 126.000
52.44713 98.000
52.46708 104.000
52.48703 107.000
52.50698 99.000
52.52692 97.000
52.54687 103.000
52.56682 98.000
52.58676 109.000
52.60671 97.000
52.62666 115.000
52.64660 101.000
52.66655 80.000
52.68650 98.000
52.70645 87.000
52.72639 104.000
52.74634 112.000
52.76629 98.000
52.78623 111.000
52.80618 92.000
52.82613 104.000
52.84607 104.000
52.86602 101.000
52.88597 102.000
52.90591 98.000
52.92586 99.000
52.94581 96.000
52.96576 103.000
52.98570 101.000
53.00565 80.000
53.02560 98.000
53.04554 102.000
53.06549 96.000
53.08544 125.000
53.10538 114.000
53.12533 108.000
53.14528 98.000
53.16523 112.000
53.18517 110.000
53.20512 109.000
53.22507 115.000
53.24501 102.000
53.26496 100.000
53.28491 97.000
53.30485 115.000
53.32480 108.000
53.34475 103.000
53.36469 111.000
53.38464 118.000
53.40459 117.000
53.42454 93.000
53.44448 106.000
53.46443 92.000
53.48438 133.000
53.50432 98.000
53.52427 109.000
53.54422 108.000
53.56416 96.000
53.58411 107.000
53.60406 101.000
53.62401 104.000
53.64395 121.000
53.66390 112.000
53.68385 109.000
53.70379 101.000
53.72374 93.000
53.74369 100.000
53.76363 107.000
53.78358 101.000
53.80353 83.000
53.82348 90.000
53.84342 108.000
53.86337 93.000
53.88332 102.000
53.90326 109.000
53.92321 93.000
53.94316 96.000
53.96310 87.000
53.98305 100.000
54.00300 77.000
54.02294 101.000
54.04289 91.000
54.06284 103.000
54.08279 104.000
54.10273 114.000
54.12268 104.000
54.14263 90.000
54.16257 84.000
54.18252 95.000
54.20247 107.000
54.22241 90.000
54.24236 81.000
54.26231 103.000
54.28226 93.000
54.30220 97.000
54.32215 100.000
54.34210 112.000
54.36204 99.000
54.38199 96.000
54.40194 98.000
54.42188 89.000
54.44183 103.000
54.46178 89.000
54.48172 104.000
54.50167 96.000
54.52162 100.000
54.54157 94.000
54.56151 96.000
54.58146 98.000
54.60141 98.000
54.62135 112.000
54.64130 88.000
54.66125 90.000
54.68119 98.000
54.70114 97.000
54.72109 117.000
54.74104 98.000
54.76098 122.000
54.78093 107.000
54.80088 91.000
54.82082 117.000
54.84077 89.000
54.86072 86.000
54.88066 94.000
54.90061 109.000
54.92056 99.000
54.94050 96.000
54.96045 100.000
54.98040 72.000
55.00035 100.000
55.02029 89.000
55.04024 102.000
55.06019 92.000
55.08013 79.000
55.10008 98.000
55.12003 95.000
55.13997 90.000
55.15992 93.000
55.17987 110.000
55.19982 92.000
55.21976 92.000
55.23971 88.000
55.25966 84.000
55.27960 100.000
55.29955 98.000
55.31950 100.000
55.33944 96.000
55.35939 99.000
55.37934 113.000
55.39929 94.000
55.41923 76.000
55.43918 102.000
55.45913 83.000
55.47907 103.000
55.49902 94.000
55.51897 101.000
55.53891 87.000
55.55886 90.000
55.57881 84.000
55.59875 110.000
55.61870 100.000
55.63865 102.000
55.65860 101.000
55.67854 90.000
55.69849 103.000
55.71844 104.000
55.73838 100.000
55.75833 81.000
55.77828 96.000
55.79822 99.000
55.81817 89.000
55.83812 99.000
55.85807 93.000
55.87801 83.000
55.89796 111.000
55.91791 84.000
55.93785 106.000
55.95780 115.000
55.97775 92.000
55.99769 84.000
56.01764 90.000
56.03759 94.000
56.05753 108.000
56.07748 94.000
56.09743 99.000
56.11738 86.000
56.13732 103.000
56.15727 101.000
56.17722 87.000
56.19716 91.000
56.21711 103.000
56.23706 114.000
56.25700 116.000
56.27695 92.000
56.29690 110.000
56.31685 105.000
56.33679 91.000
56.35674 76.000
56.37669 89.000
56.39663 87.000
56.41658 117.000
56.43653 101.000
56.45647 100.000
56.47642 93.000
56.49637 97.000
56.51631 105.000
56.53626 106.000
56.55621 110.000
56.57616 75.000
56.59610 100.000
56.61605 89.000
56.63600 102.000
56.65594 102.000
56.67589 104.000
56.69584 122.000
56.71578 110.000
56.73573 97.000
56.75568 103.000
56.77563 88.000
56.79557 119.000
56.81552 94.000
56.83547 109.000
56.85541 106.000
56.87536 122.000
56.89531 97.000
56.91525 101.000
56.93520 106.000
56.95515 84.000
56.97510 129.000
56.99504 116.000
57.01499 112.000
57.03494 108.000
57.05488 116.000
57.07483 117.000
57.09478 120.000
57.11472 132.000
57.13467 133.000
57.15462 144.000
57.17456 143.000
57.19451 149.000
57.21446 113.000
57.23441 128.000
57.25435 115.000
57.27430 140.000
57.29425 120.000
57.31419 138.000
57.33414 122.000
57.35409 106.000
57.37403 106.000
57.39398 117.000
57.41393 94.000
57.43388 115.000
57.45382 110.000
57.47377 117.000
57.49372 101.000
57.51366 102.000
57.53361 112.000
57.55356 117.000
57.57350 110.000
57.59345 115.000
57.61340 110.000
57.63334 100.000
57.65329 99.000
57.67324 93.000
57.69319 102.000
57.71313 99.000
57.73308 93.000
57.75303 104.000
57.77297 115.000
57.79292 98.000
57.81287 94.000
57.83281 91.000
57.85276 126.000
57.87271 88.000
57.89266 114.000
57.91260 105.000
57.93255 86.000
57.95250 89.000
57.97244 102.000
57.99239 109.000
58.01234 97.000
58.03228 111.000
58.05223 111.000
58.07218 103.000
58.09212 99.000
58.11207 103.000
58.13202 111.000
58.15197 99.000
58.17191 127.000
58.19186 112.000
58.21181 125.000
58.23175 114.000
58.25170 132.000
58.27165 115.000
58.29159 93.000
58.31154 106.000
58.33149 106.000
58.35144 116.000
58.37138 118.000
58.39133 119.000
58.41128 88.000
58.43122 96.000
58.45117 117.000
58.47112 108.000
58.49106 93.000
58.51101 93.000
58.53096 98.000
58.55090 116.000
58.57085 126.000
58.59080 112.000
58.61075 112.000
58.63069 102.000
58.65064 92.000
58.67059 115.000
58.69053 101.000
58.71048 108.000
58.73043 94.000
58.75037 96.000
58.77032 110.000
58.79027 89.000
58.81022 97.000
58.83016 92.000
58.85011 111.000
58.87006 118.000
58.89000 104.000
58.90995 99.000
58.92990 99.000
58.94984 108.000
58.96979 93.000
58.98974 91.000
59.00969 90.000
59.02963 95.000
59.04958 105.000
59.06953 85.000
59.08947 120.000
59.10942 87.000
59.12937 94.000
59.14931 121.000
59.16926 107.000
59.18921 110.000
59.20915 111.000
59.22910 102.000
59.24905 110.000
59.26900 102.000
59.28894 124.000
59.30889 114.000
59.32884 94.000
59.34878 96.000
59.36873 113.000
59.38868 88.000
59.40862 99.000
59.42857 101.000
59.44852 120.000
59.46847 110.000
59.48841 90.000
59.50836 101.000
59.52831 84.000
59.54825 97.000
59.56820 112.000
59.58815 92.000
59.60809 94.000
59.62804 103.000
59.64799 106.000
59.66793 92.000
59.68788 105.000
59.70783 96.000
59.72778 108.000
59.74772 91.000
59.76767 93.000
59.78762 105.000
59.80756 101.000
59.82751 117.000
59.84746 84.000
59.86740 95.000
59.88735 117.000
59.90730 108.000
59.92725 104.000
59.94719 101.000
59.96714 97.000
59.98709 107.000
60.00703 105.000
60.02698 98.000
60.04693 82.000
60.06687 84.000
60.08682 92.000
60.10677 113.000
60.12671 108.000
60.14666 94.000
60.16661 117.000
60.18656 89.000
60.20650 99.000
60.22645 111.000
60.24640 120.000
60.26634 95.000
60.28629 104.000
60.30624 111.000
60.32618 118.000
60.34613 104.000
60.36608 104.000
60.38603 114.000
60.40597 97.000
60.42592 116.000
60.44587 104.000
60.46581 87.000
60.48576 118.000
60.50571 108.000
60.52565 103.000
60.54560 101.000
60.56555 106.000
60.58550 111.000
60.60544 105.000
60.62539 115.000
60.64534 101.000
60.66528 109.000
60.68523 108.000
60.70518 121.000
60.72512 97.000
60.74507 107.000
60.76502 129.000
60.78496 154.000
60.80491 107.000
60.82486 122.000
60.84481 127.000
60.86475 128.000
60.88470 135.000
60.90465 120.000
60.92459 108.000
60.94454 122.000
60.96449 109.000
60.98443 127.000
61.00438 131.000
61.02433 114.000
61.04428 115.000
61.06422 126.000
61.08417 109.000
61.10412 157.000
61.12406 127.000
61.14401 127.000
61.16396 143.000
61.18390 129.000
61.20385 134.000
61.22380 157.000
61.24374 169.000
61.26369 152.000
61.28364 148.000
61.30359 165.000
61.32353 179.000
61.34348 186.000
61.36343 212.000
61.38337 204.000
61.40332 225.000
61.42327 243.000
61.44321 289.000
61.46316 286.000
61.48311 335.000
61.50306 330.000
61.52300 392.000
61.54295 432.000
61.56290 543.000
61.58284 594.000
61.60279 650.000
61.62274 715.000
61.64268 777.000
61.66263 742.000
61.68258 773.000
61.70252 671.000
61.72247 679.000
61.74242 602.000
61.76237 605.000
61.78231 571.000
61.80226 509.000
61.82221 563.000
61.84215 470.000
61.86210 431.000
61.88205 420.000
61.90199 386.000
61.92194 321.000
61.94189 307.000
61.96184 288.000
61.98178 221.000
62.00173 234.000
62.02168 199.000
62.04162 192.000
62.06157 177.000
62.08152 150.000
62.10146 180.000
62.12141 157.000
62.14136 163.000
62.16131 144.000
62.18125 145.000
62.20120 176.000
62.22115 138.000
62.24109 121.000
62.26104 135.000
62.28099 149.000
62.30093 151.000
62.32088 123.000
62.34083 124.000
62.36077 114.000
62.38072 123.000
62.40067 123.000
62.42062 133.000
62.44056 119.000
62.46051 129.000
62.48046 154.000
62.50040 139.000
62.52035 130.000
62.54030 148.000
62.56024 132.000
62.58019 137.000
62.60014 133.000
62.62009 149.000
62.64003 123.000
62.65998 159.000
62.67993 164.000
62.69987 134.000
62.71982 153.000
62.73977 158.000
62.75971 143.000
62.77966 147.000
62.79961 153.000
62.81955 182.000
62.83950 133.000
62.85945 135.000
62.87940 123.000
62.89934 123.000
62.91929 151.000
62.93924 154.000
62.95918 141.000
62.97913 123.000
62.99908 115.000
63.01902 119.000
63.03897 129.000
63.05892 122.000
63.07887 108.000
63.09881 125.000
63.11876 138.000
63.13871 122.000
63.15865 108.000
63.17860 119.000
63.19855 120.000
63.21849 115.000
63.23844 130.000
63.25839 120.000
63.27833 110.000
63.29828 104.000
63.31823 104.000
63.33818 118.000
63.35812 131.000
63.37807 105.000
63.39802 92.000
63.41796 98.000
63.43791 104.000
63.45786 102.000
63.47780 107.000
63.49775 119.000
63.51770 121.000
63.53765 110.000
63.55759 115.000
63.57754 109.000
63.59749 129.000
63.61743 115.000
63.63738 107.000
63.65733 106.000
63.67727 118.000
63.69722 101.000
63.71717 122.000
63.73712 125.000
63.75706 116.000
63.77701 121.000
63.79696 135.000
63.81690 128.000
63.83685 129.000
63.85680 113.000
63.87674 110.000
63.89669 110.000
63.91664 104.000
63.93658 122.000
63.95653 117.000
63.97648 128.000
63.99643 122.000
64.01637 130.000
64.03632 138.000
64.05627 143.000
64.07621 132.000
64.09616 167.000
64.11611 175.000
64.13605 165.000
64.15600 194.000
64.17595 198.000
64.19590 206.000
64.21584 241.000
64.23579 263.000
64.25574 315.000
64.27568 383.000
64.29563 510.000
64.31558 535.000
64.33552 573.000
64.35547 537.000
64.37542 544.000
64.39536 557.000
64.41531 490.000
64.43526 447.000
64.45521 440.000
64.47515 428.000
64.49510 426.000
64.51505 394.000
64.53499 416.000
64.55494 395.000
64.57489 335.000
64.59483 315.000
64.61478 286.000
64.63473 241.000
64.65468 209.000
64.67462 220.000
64.69457 189.000
64.71452 182.000
64.73446 158.000
64.75441 150.000
64.77436 141.000
64.79430 119.000
64.81425 128.000
64.83420 143.000
64.85414 121.000
64.87409 115.000
64.89404 106.000
64.91399 137.000
64.93393 122.000
64.95388 130.000
64.97383 111.000
64.99377 122.000
65.01372 113.000
65.03367 123.000
65.05361 97.000
65.07356 126.000
65.09351 117.000
65.11346 118.000
65.13340 116.000
65.15335 132.000
65.17330 117.000
65.19324 99.000
65.21319 113.000
65.23314 106.000
65.25308 96.000
65.27303 108.000
65.29298 101.000
65.31293 99.000
65.33287 98.000
65.35282 99.000
65.37277 99.000
65.39271 99.000
65.41266 119.000
65.43261 119.000
65.45255 119.000
65.47250 116.000
65.49245 89.000
65.51239 111.000
65.53234 108.000
65.55229 119.000
65.57224 127.000
65.59218 103.000
65.61213 130.000
65.63208 111.000
65.65202 118.000
65.67197 130.000
65.69192 129.000
65.71186 114.000
65.73181 121.000
65.75176 127.000
65.77171 89.000
65.79165 115.000
65.81160 126.000
65.83155 129.000
65.85149 127.000
65.87144 134.000
65.89139 109.000
65.91133 124.000
65.93128 113.000
65.95123 135.000
65.97117 127.000
65.99112 144.000
66.01107 124.000
66.03102 130.000
66.05096 134.000
66.07091 161.000
66.09086 143.000
66.11080 130.000
66.13075 139.000
66.15070 173.000
66.17064 200.000
66.19059 202.000
66.21054 258.000
66.23049 231.000
66.25043 237.000
66.27038 251.000
66.29033 266.000
66.31027 239.000
66.33022 222.000
66.35017 233.000
66.37011 221.000
66.39006 235.000
66.41001 220.000
66.42995 256.000
66.44990 231.000
66.46985 217.000
66.48980 234.000
66.50974 212.000
66.52969 215.000
66.54964 218.000
66.56958 246.000
66.58953 230.000
66.60948 280.000
66.62942 344.000
66.64937 343.000
66.66932 402.000
66.68927 406.000
66.70921 439.000
66.72916 437.000
66.74911 403.000
66.76905 394.000
66.78900 357.000
66.80895 338.000
66.82889 333.000
66.84884 335.000
66.86879 334.000
66.88874 310.000
66.90868 334.000
66.92863 262.000
66.94858 246.000
66.96852 226.000
66.98847 235.000
67.00842 211.000
67.02836 186.000
67.04831 167.000
67.06826 167.000
67.08820 140.000
67.10815 118.000
67.12810 155.000
67.14805 132.000
67.16799 132.000
67.18794 137.000
67.20789 95.000
67.22783 118.000
67.24778 124.000
67.26773 115.000
67.28767 116.000
67.30762 123.000
67.32757 101.000
67.34752 119.000
67.36746 117.000
67.38741 113.000
67.40736 112.000
67.42730 128.000
67.44725 99.000
67.46720 122.000
67.48714 123.000
67.50709 110.000
67.52704 124.000
67.54698 94.000
67.56693 103.000
67.58688 101.000
67.60683 123.000
67.62677 110.000
67.64672 92.000
67.66667 138.000
67.68661 117.000
67.70656 109.000
67.72651 109.000
67.74645 94.000
67.76640 110.000
67.78635 93.000
67.80630 103.000
67.82624 121.000
67.84619 113.000
67.86614 122.000
67.88608 121.000
67.90603 148.000
67.92598 117.000
67.94592 119.000
67.96587 111.000
67.98582 121.000
68.00576 112.000
68.02571 97.000
68.04566 123.000
68.06561 97.000
68.08555 98.000
68.10550 111.000
68.12545 111.000
68.14539 97.000
68.16534 111.000
68.18529 79.000
68.20523 108.000
68.22518 110.000
68.24513 105.000
68.26508 101.000
68.28502 116.000
68.30497 85.000
68.32492 80.000
68.34486 104.000
68.36481 99.000
68.38476 103.000
68.40470 115.000
68.42465 94.000
68.44460 111.000
68.46455 98.000
68.48449 104.000
68.50444 104.000
68.52439 104.000
68.54433 96.000
68.56428 79.000
68.58423 91.000
68.60417 107.000
68.62412 107.000
68.64407 80.000
68.66401 90.000
68.68396 81.000
68.70391 99.000
68.72386 100.000
68.74380 112.000
68.76375 100.000
68.78370 109.000
68.80364 92.000
68.82359 91.000
68.84354 104.000
68.86348 76.000
68.88343 103.000
68.90338 85.000
68.92333 86.000
68.94327 94.000
68.96322 94.000
68.98317 91.000
69.00311 114.000
69.02306 88.000
69.04301 83.000
69.06295 111.000
69.08290 109.000
69.10285 109.000
69.12279 95.000
69.14274 84.000
69.16269 106.000
69.18264 92.000
69.20258 93.000
69.22253 103.000
69.24248 107.000
69.26242 93.000
69.28237 113.000
69.30232 104.000
69.32226 105.000
69.34221 91.000
69.36216 109.000
69.38211 118.000
69.40205 91.000
69.42200 106.000
69.44195 113.000
69.46189 116.000
69.48184 90.000
69.50179 123.000
69.52173 108.000
69.54168 84.000
69.56163 99.000
69.58157 107.000
69.60152 88.000
69.62147 104.000
69.64142 98.000
69.66136 73.000
69.68131 100.000
69.70126 92.000
69.72120 98.000
69.74115 92.000
69.76110 77.000
69.78104 99.000
69.80099 85.000
69.82094 105.000
69.84089 93.000
69.86083 103.000
69.88078 96.000
69.90073 90.000
69.92067 112.000
69.94062 93.000
69.96057 87.000
69.98051 92.000
70.00046 100.000
70.02041 103.000
70.04035 97.000
70.06030 91.000
70.08025 110.000
70.10020 98.000
70.12014 98.000
70.14009 83.000
70.16004 95.000
70.17998 104.000
70.19993 84.000
70.21988 108.000
70.23982 96.000
70.25977 118.000
70.27972 109.000
70.29967 96.000
70.31961 111.000
70.33956 90.000
70.35951 97.000
70.37945 89.000
70.39940 85.000
70.41935 88.000
70.43929 104.000
70.45924 106.000
70.47919 107.000
70.49914 115.000
70.51908 80.000
70.53903 106.000
70.55898 109.000
70.57892 91.000
70.59887 103.000
70.61882 92.000
70.63876 89.000
70.65871 94.000
70.67866 88.000
70.69860 94.000
70.71855 93.000
70.73850 115.000
70.75845 107.000
70.77839 91.000
70.79834 85.000
70.81829 90.000
70.83823 100.000
70.85818 85.000
70.87813 107.000
70.89807 98.000
70.91802 91.000
70.93797 100.000
70.95792 96.000
70.97786 87.000
70.99781 90.000
71.01776 86.000
71.03770 110.000
71.05765 89.000
71.07760 100.000
71.09754 108.000
71.11749 78.000
71.13744 100.000
71.15738 96.000
71.17733 112.000
71.19728 116.000
71.21723 96.000
71.23717 92.000
71.25712 94.000
71.27707 84.000
71.29701 98.000
71.31696 71.000
71.33691 106.000
71.35685 87.000
71.37680 68.000
71.39675 114.000
71.41670 94.000
71.43664 97.000
71.45659 101.000
71.47654 76.000
71.49648 100.000
71.51643 106.000
71.53638 110.000
71.55632 95.000
71.57627 92.000
71.59622 85.000
71.61616 103.000
71.63611 88.000
71.65606 100.000
71.67601 89.000
71.69595 98.000
71.71590 100.000
71.73585 103.000
71.75579 99.000
71.77574 109.000
71.79569 81.000
71.81563 89.000
71.83558 77.000
71.85553 109.000
71.87548 103.000
71.89542 87.000
71.91537 95.000
71.93532 119.000
71.95526 93.000
71.97521 84.000
71.99516 102.000
72.01510 91.000
72.03505 99.000
72.05500 82.000
72.07495 116.000
72.09489 97.000
72.11484 108.000
72.13479 96.000
72.15473 90.000
72.17468 110.000
72.19463 96.000
72.21457 93.000
72.23452 99.000
72.25447 105.000
72.27441 102.000
72.29436 120.000
72.31431 115.000
72.33426 101.000
72.35420 127.000
72.37415 115.000
72.39410 97.000
72.41404 94.000
72.43399 112.000
72.45394 99.000
72.47388 92.000
72.49383 87.000
72.51378 93.000
72.53373 93.000
72.55367 82.000
72.57362 114.000
72.59357 107.000
72.61351 77.000
72.63346 105.000
72.65341 100.000
72.67335 125.000
72.69330 98.000
72.71325 85.000
72.73319 92.000
72.75314 100.000
72.77309 98.000
72.79304 89.000
72.81298 116.000
72.83293 88.000
72.85288 101.000
72.87282 102.000
72.89277 86.000
72.91272 104.000
72.93266 111.000
72.95261 91.000
72.97256 108.000
72.99251 91.000
73.01245 119.000
73.03240 102.000
73.05235 98.000
73.07229 100.000
73.09224 108.000
73.11219 86.000
73.13213 117.000
73.15208 86.000
73.17203 113.000
73.19197 83.000
73.21192 102.000
73.23187 111.000
73.25182 106.000
73.27176 129.000
73.29171 115.000
73.31166 120.000
73.33160 138.000
73.35155 110.000
73.37150 129.000
73.39144 131.000
73.41139 137.000
73.43134 154.000
73.45129 177.000
73.47123 197.000
73.49118 240.000
73.51113 241.000
73.53107 232.000
73.55102 253.000
73.57097 213.000
73.59091 243.000
73.61086 182.000
73.63081 187.000
73.65076 201.000
73.67070 206.000
73.69065 188.000
73.71060 173.000
73.73054 180.000
73.75049 187.000
73.77044 174.000
73.79038 173.000
73.81033 161.000
73.83028 144.000
73.85022 149.000
73.87017 134.000
73.89012 130.000
73.91007 135.000
73.93001 132.000
73.94996 125.000
73.96991 121.000
73.98985 126.000
74.00980 129.000
74.02975 111.000
74.04969 110.000
74.06964 129.000
74.08959 107.000
74.10954 107.000
74.12948 101.000
74.14943 103.000
74.16938 123.000
74.18932 116.000
74.20927 120.000
74.22922 98.000
74.24916 102.000
74.26911 120.000
74.28906 113.000
74.30900 99.000
74.32895 92.000
74.34890 103.000
74.36885 95.000
74.38879 79.000
74.40874 115.000
74.42869 104.000
74.44863 98.000
74.46858 98.000
74.48853 102.000
74.50847 80.000
74.52842 79.000
74.54837 92.000
74.56832 78.000
74.58826 99.000
74.60821 107.000
74.62816 103.000
74.64810 108.000
74.66805 97.000
74.68800 94.000
74.70794 113.000
74.72789 102.000
74.74784 98.000
74.76778 90.000
74.78773 106.000
74.80768 103.000
74.82763 80.000
74.84757 102.000
74.86752 90.000
74.88747 112.000
74.90741 110.000
74.92736 109.000
74.94731 112.000
74.96725 81.000
74.98720 111.000
75.00715 96.000
75.02710 92.000
75.04704 94.000
75.06699 118.000
75.08694 96.000
75.10688 103.000
75.12683 99.000
75.14678 118.000
75.16672 107.000
75.18667 122.000
75.20662 107.000
75.22657 109.000
75.24651 101.000
75.26646 109.000
75.28641 135.000
75.30635 112.000
75.32630 105.000
75.34625 102.000
75.36619 127.000
75.38614 109.000
75.40609 89.000
75.42603 112.000
75.44598 120.000
75.46593 109.000
75.48588 113.000
75.50582 103.000
75.52577 92.000
75.54572 94.000
75.56566 122.000
75.58561 109.000
75.60556 101.000
75.62550 124.000
75.64545 84.000
75.66540 115.000
75.68535 98.000
75.70529 108.000
75.72524 108.000
75.74519 117.000
75.76513 128.000
75.78508 110.000
75.80503 120.000
75.82497 131.000
75.84492 158.000
75.86487 136.000
75.88481 154.000
75.90476 144.000
75.92471 144.000
75.94466 133.000
75.96460 148.000
75.98455 146.000
76.00450 127.000
76.02444 164.000
76.04439 143.000
76.06434 123.000
76.08428 125.000
76.10423 129.000
76.12418 122.000
76.14413 153.000
76.16407 115.000
76.18402 128.000
76.20397 136.000
76.22391 120.000
76.24386 128.000
76.26381 90.000
76.28375 119.000
76.30370 82.000
76.32365 118.000
76.34359 123.000
76.36354 100.000
76.38349 111.000
76.40344 123.000
76.42338 97.000
76.44333 100.000
76.46328 134.000
76.48322 115.000
76.50317 104.000
76.52312 70.000
76.54306 103.000
76.56301 126.000
76.58296 111.000
76.60291 121.000
76.62285 92.000
76.64280 91.000
76.66275 116.000
76.68269 98.000
76.70264 108.000
76.72259 110.000
76.74253 92.000
76.76248 98.000
76.78243 104.000
76.80238 99.000
76.82232 102.000
76.84227 109.000
76.86222 96.000
76.88216 105.000
76.90211 91.000
76.92206 112.000
76.94200 101.000
76.96195 95.000
76.98190 95.000
77.00184 95.000
77.02179 96.000
77.04174 97.000
77.06169 115.000
77.08163 93.000
77.10158 114.000
77.12153 113.000
77.14147 104.000
77.16142 121.000
77.18137 110.000
77.20131 115.000
77.22126 104.000
77.24121 113.000
77.26116 113.000
77.28110 121.000
77.30105 117.000
77.32100 89.000
77.34094 120.000
77.36089 114.000
77.38084 139.000
77.40078 121.000
77.42073 106.000
77.44068 126.000
77.46062 150.000
77.48057 129.000
77.50052 151.000
77.52047 178.000
77.54041 154.000
77.56036 178.000
77.58031 186.000
77.60025 198.000
77.62020 209.000
77.64015 220.000
77.66009 249.000
77.68004 268.000
77.69999 308.000
77.71994 249.000
77.73988 306.000
77.75983 248.000
77.77978 283.000
77.79972 254.000
77.81967 215.000
77.83962 198.000
77.85956 239.000
77.87951 265.000
77.89946 237.000
77.91940 233.000
77.93935 261.000
77.95930 245.000
77.97925 222.000
77.99919 232.000
78.01914 257.000
78.03909 245.000
78.05903 281.000
78.07898 239.000
78.09893 283.000
78.11887 229.000
78.13882 242.000
78.15877 235.000
78.17872 233.000
78.19866 236.000
78.21861 199.000
78.23856 204.000
78.25850 207.000
78.27845 172.000
78.29840 187.000
78.31834 179.000
78.33829 214.000
78.35824 162.000
78.37819 176.000
78.39813 169.000
78.41808 151.000
78.43803 159.000
78.45797 132.000
78.47792 139.000
78.49787 131.000
78.51781 126.000
78.53776 114.000
78.55771 121.000
78.57765 116.000
78.59760 111.000
78.61755 110.000
78.63750 106.000
78.65744 109.000
78.67739 110.000
78.69734 113.000
78.71728 105.000
78.73723 125.000
78.75718 92.000
78.77712 103.000
78.79707 101.000
78.81702 83.000
78.83697 114.000
78.85691 90.000
78.87686 106.000
78.89681 101.000
78.91675 88.000
78.93670 107.000
78.95665 138.000
78.97659 95.000
78.99654 94.000
79.01649 107.000
79.03643 99.000
79.05638 97.000
79.07633 83.000
79.09628 91.000
79.11622 89.000
79.13617 105.000
79.15612 102.000
79.17606 98.000
79.19601 92.000
79.21596 100.000
79.23590 83.000
79.25585 82.000
79.27580 103.000
79.29575 91.000
79.31569 103.000
79.33564 95.000
79.35559 123.000
79.37553 97.000
79.39548 96.000
79.41543 77.000
79.43537 95.000
79.45532 89.000
79.47527 105.000
79.49521 103.000
79.51516 92.000
79.53511 91.000
79.55506 87.000
79.57500 78.000
79.59495 85.000
79.61490 91.000
79.63484 94.000
79.65479 111.000
79.67474 93.000
79.69468 102.000
79.71463 90.000
79.73458 89.000
79.75453 99.000
79.77447 103.000
79.79442 94.000
79.81437 95.000
79.83431 102.000
79.85426 98.000
79.87421 100.000
79.89415 90.000
79.91410 108.000
79.93405 83.000
79.95399 83.000
79.97394 111.000
79.99389 84.000
80.01384 97.000
80.03378 95.000
80.05373 98.000
80.07368 89.000
80.09362 96.000
80.11357 111.000
80.13352 86.000
80.15346 93.000
80.17341 119.000
80.19336 106.000
80.21331 92.000
80.23325 90.000
80.25320 102.000
80.27315 109.000
80.29309 102.000
80.31304 95.000
80.33299 98.000
80.35293 94.000
80.37288 117.000
80.39283 89.000
80.41278 86.000
80.43272 79.000
80.45267 86.000
80.47262 97.000
80.49256 88.000
80.51251 83.000
80.53246 100.000
80.55240 88.000
80.57235 97.000
80.59230 88.000
80.61224 95.000
80.63219 128.000
80.65214 89.000
80.67209 91.000
80.69203 117.000
80.71198 91.000
80.73193 109.000
80.75187 106.000
80.77182 102.000
80.79177 123.000
80.81171 117.000
80.83166 108.000
80.85161 127.000
80.87156 115.000
80.89150 104.000
80.91145 119.000
80.93140 97.000
80.95134 95.000
80.97129 93.000
80.99124 97.000
81.01118 115.000
81.03113 86.000
81.05108 101.000
81.07102 91.000
81.09097 110.000
81.11092 120.000
81.13087 94.000
81.15081 99.000
81.17076 114.000
81.19071 97.000
81.21065 102.000
81.23060 81.000
81.25055 102.000
81.27049 98.000
81.29044 100.000
81.31039 98.000
81.33034 94.000
81.35028 98.000
81.37023 81.000
81.39018 88.000
81.41012 114.000
81.43007 85.000
81.45002 81.000
81.46996 105.000
81.48991 105.000
81.50986 90.000
81.52980 106.000
81.54975 105.000
81.56970 85.000
81.58965 96.000
81.60959 80.000
81.62954 105.000
81.64949 101.000
81.66943 87.000
81.68938 109.000
81.70933 97.000
81.72927 96.000
81.74922 83.000
81.76917 97.000
81.78912 85.000
81.80906 79.000
81.82901 95.000
81.84896 85.000
81.86890 110.000
81.88885 99.000
81.90880 90.000
81.92874 103.000
81.94869 103.000
81.96864 90.000
81.98859 105.000
82.00853 99.000
82.02848 110.000
82.04843 87.000
82.06837 115.000
82.08832 86.000
82.10827 89.000
82.12821 97.000
82.14816 99.000
82.16811 93.000
82.18805 85.000
82.20800 98.000
82.22795 70.000
82.24790 83.000
82.26784 80.000
82.28779 98.000
82.30774 94.000
82.32768 86.000
82.34763 72.000
82.36758 99.000
82.38752 100.000
82.40747 92.000
82.42742 81.000
82.44737 102.000
82.46731 105.000
82.48726 98.000
82.50721 106.000
82.52715 91.000
82.54710 101.000
82.56705 97.000
82.58699 87.000
82.60694 102.000
82.62689 95.000
82.64683 95.000
82.66678 96.000
82.68673 89.000
82.70668 114.000
82.72662 103.000
82.74657 109.000
82.76652 96.000
82.78646 91.000
82.80641 77.000
82.82636 102.000
82.84630 78.000
82.86625 100.000
82.88620 77.000
82.90615 102.000
82.92609 112.000
82.94604 92.000
82.96599 109.000
82.98593 81.000
83.00588 87.000
83.02583 96.000
83.04577 67.000
83.06572 90.000
83.08567 93.000
83.10561 97.000
83.12556 80.000
83.14551 113.000
83.16546 96.000
83.18540 105.000
83.20535 95.000
83.22530 111.000
83.24524 98.000
83.26519 86.000
83.28514 99.000
83.30508 122.000
83.32503 87.000
83.34498 104.000
83.36493 96.000
83.38487 95.000
83.40482 85.000
83.42477 83.000
83.44471 86.000
83.46466 111.000
83.48461 118.000
83.50455 101.000
83.52450 103.000
83.54445 82.000
83.56440 108.000
83.58434 91.000
83.60429 77.000
83.62424 100.000
83.64418 101.000
83.66413 102.000
83.68408 104.000
83.70402 84.000
83.72397 89.000
83.74392 91.000
83.76386 113.000
83.78381 103.000
83.80376 87.000
83.82371 99.000
83.84365 95.000
83.86360 106.000
83.88355 118.000
83.90349 82.000
83.92344 109.000
83.94339 95.000
83.96333 126.000
83.98328 106.000
84.00323 108.000
84.02318 97.000
84.04312 103.000
84.06307 132.000
84.08302 100.000
84.10296 118.000
84.12291 96.000
84.14286 94.000
84.16280 110.000
84.18275 112.000
84.20270 114.000
84.22264 87.000
84.24259 102.000
84.26254 103.000
84.28249 104.000
84.30243 124.000
84.32238 121.000
84.34233 128.000
84.36227 150.000
84.38222 151.000
84.40217 154.000
84.42211 151.000
84.44206 144.000
84.46201 165.000
84.48196 155.000
84.50190 207.000
84.52185 186.000
84.54180 203.000
84.56174 213.000
84.58169 252.000
84.60164 230.000
84.62158 228.000
84.64153 239.000
84.66148 227.000
84.68142 218.000
84.70137 204.000
84.72132 217.000
84.74127 207.000
84.76121 171.000
84.78116 184.000
84.80111 201.000
84.82105 162.000
84.84100 191.000
84.86095 187.000
84.88089 166.000
84.90084 177.000
84.92079 164.000
84.94074 153.000
84.96068 145.000
84.98063 159.000
85.00058 141.000
85.02052 139.000
85.04047 120.000
85.06042 139.000
85.08036 111.000
85.10031 113.000
85.12026 128.000
85.14021 135.000
85.16015 107.000
85.18010 112.000
85.20005 101.000
85.21999 119.000
85.23994 110.000
85.25989 105.000
85.27983 123.000
85.29978 103.000
85.31973 85.000
85.33967 104.000
85.35962 100.000
85.37957 100.000
85.39952 92.000
85.41946 90.000
85.43941 109.000
85.45936 85.000
85.47930 88.000
85.49925 120.000
85.51920 100.000
85.53914 102.000
85.55909 101.000
85.57904 92.000
85.59899 87.000
85.61893 76.000
85.63888 81.000
85.65883 93.000
85.67877 97.000
85.69872 97.000
85.71867 104.000
85.73861 100.000
85.75856 110.000
85.77851 96.000
85.79845 94.000
85.81840 81.000
85.83835 86.000
85.85830 90.000
85.87824 91.000
85.89819 110.000
85.91814 105.000
85.93808 116.000
85.95803 107.000
85.97798 96.000
85.99792 112.000
86.01787 83.000
86.03782 105.000
86.05777 99.000
86.07771 107.000
86.09766 118.000
86.11761 121.000
86.13755 121.000
86.15750 129.000
86.17745 130.000
86.19739 126.000
86.21734 123.000
86.23729 147.000
86.25723 131.000
86.27718 123.000
86.29713 130.000
86.31708 126.000
86.33702 120.000
86.35697 117.000
86.37692 107.000
86.39686 124.000
86.41681 124.000
86.43676 116.000
86.45670 105.000
86.47665 113.000
86.49660 109.000
86.51655 128.000
86.53649 107.000
86.55644 116.000
86.57639 109.000
86.59633 114.000
86.61628 117.000
86.63623 99.000
86.65617 116.000
86.67612 110.000
86.69607 109.000
86.71602 117.000
86.73596 117.000
86.75591 126.000
86.77586 88.000
86.79580 107.000
86.81575 109.000
86.83570 111.000
86.85564 114.000
86.87559 113.000
86.89554 110.000
86.91548 118.000
86.93543 125.000
86.95538 110.000
86.97533 105.000
86.99527 120.000
87.01522 107.000
87.03517 108.000
87.05511 123.000
87.07506 119.000
87.09501 116.000
87.11495 97.000
87.13490 110.000
87.15485 102.000
87.17480 108.000
87.19474 111.000
87.21469 116.000
87.23464 104.000
87.25458 106.000
87.27453 104.000
87.29448 119.000
87.31442 95.000
87.33437 96.000
87.35432 86.000
87.37426 102.000
87.39421 95.000
87.41416 101.000
87.43411 105.000
87.45405 98.000
87.47400 88.000
87.49395 108.000
87.51389 96.000
87.53384 81.000
87.55379 103.000
87.57373 89.000
87.59368 101.000
87.61363 102.000
87.63358 78.000
87.65352 95.000
87.67347 95.000
87.69342 106.000
87.71336 96.000
87.73331 87.000
87.75326 114.000
87.77320 81.000
87.79315 104.000
87.81310 90.000
87.83304 88.000
87.85299 83.000
87.87294 95.000
87.89289 112.000
87.91283 113.000
87.93278 95.000
87.95273 96.000
87.97267 84.000
87.99262 80.000
88.01257 101.000
88.03251 82.000
88.05246 94.000
88.07241 85.000
88.09236 88.000
88.11230 98.000
88.13225 94.000
88.15220 100.000
88.17214 81.000
88.19209 84.000
88.21204 88.000
88.23198 88.000
88.25193 92.000
88.27188 94.000
88.29183 80.000
88.31177 96.000
88.33172 86.000
88.35167 90.000
88.37161 91.000
88.39156 85.000
88.41151 81.000
88.43145 91.000
88.45140 98.000
88.47135 91.000
88.49129 101.000
88.51124 87.000
88.53119 100.000
88.55114 92.000
88.57108 77.000
88.59103 102.000
88.61098 79.000
88.63092 103.000
88.65087 84.000
88.67082 113.000
88.69076 90.000
88.71071 85.000
88.73066 99.000
88.75061 100.000
88.77055 103.000
88.79050 93.000
88.81045 89.000
88.83039 87.000
88.85034 90.000
88.87029 81.000
88.89023 95.000
88.91018 77.000
88.93013 98.000
88.95007 85.000
88.97002 79.000
88.98997 96.000
89.00992 99.000
89.02986 82.000
89.04981 86.000
89.06976 86.000
89.08970 99.000
89.10965 87.000
89.12960 96.000
89.14954 90.000
89.16949 91.000
89.18944 103.000
89.20939 104.000
89.22933 83.000
89.24928 90.000
89.26923 94.000
89.28917 91.000
89.30912 101.000
89.32907 112.000
89.34901 101.000
89.36896 87.000
89.38891 102.000
89.40885 106.000
89.42880 81.000
89.44875 90.000
89.46870 107.000
89.48864 73.000
89.50859 86.000
89.52854 92.000
89.54848 93.000
89.56843 101.000
89.58838 75.000
89.60832 91.000
89.62827 109.000
89.64822 101.000
89.66817 107.000
89.68811 97.000
89.70806 96.000
89.72801 98.000
89.74795 100.000
89.76790 82.000
89.78785 81.000
89.80779 99.000
89.82774 101.000
89.84769 104.000
89.86764 103.000
89.88758 101.000
89.90753 92.000
89.92748 79.000
89.94742 101.000
89.96737 105.000
89.98732 90.000
90.00726 80.000
