10.00000 98.000
10.01995 96.000
10.03989 94.000
10.05984 88.000
10.07979 98.000
10.09973 89.000
10.11968 104.000
10.13963 112.000
10.15958 97.000
10.17952 102.000
10.19947 104.000
10.21942 105.000
10.23936 113.000
10.25931 92.000
10.27926 91.000
10.29920 95.000
10.31915 93.000
10.33910 89.000
10.35905 100.000
10.37899 102.000
10.39894 97.000
10.41889 97.000
10.43883 123.000
10.45878 122.000
10.47873 112.000
10.49867 109.000
10.51862 91.000
10.53857 114.000
10.55851 103.000
10.57846 116.000
10.59841 99.000
10.61836 96.000
10.63830 101.000
10.65825 98.000
10.67820 111.000
10.69814 89.000
10.71809 116.000
10.73804 94.000
10.75798 104.000
10.77793 95.000
10.79788 108.000
10.81783 103.000
10.83777 120.000
10.85772 105.000
10.87767 96.000
10.89761 95.000
10.91756 107.000
10.93751 112.000
10.95745 98.000
10.97740 101.000
10.99735 114.000
11.01730 96.000
11.03724 99.000
11.05719 104.000
11.07714 110.000
11.09708 101.000
11.11703 79.000
11.13698 99.000
11.15692 103.000
11.17687 99.000
11.19682 103.000
11.21676 91.000
11.23671 93.000
11.25666 124.000
11.27661 91.000
11.29655 96.000
11.31650 106.000
11.33645 103.000
11.35639 112.000
11.37634 113.000
11.39629 119.000
11.41623 87.000
11.43618 101.000
11.45613 107.000
11.47608 123.000
11.49602 94.000
11.51597 121.000
11.53592 105.000
11.55586 96.000
11.57581 110.000
11.59576 119.000
11.61570 97.000
11.63565 113.000
11.65560 107.000
11.67554 110.000
11.69549 115.000
11.71544 109.000
11.73539 108.000
11.75533 124.000
11.77528 104.000
11.79523 102.000
11.81517 104.000
11.83512 119.000
11.85507 90.000
11.87501 107.000
11.89496 92.000
11.91491 101.000
11.93486 109.000
11.95480 106.000
11.97475 100.000
11.99470 106.000
12.01464 116.000
12.03459 90.000
12.05454 101.000
12.07448 99.000
12.09443 95.000
12.11438 90.000
12.13432 89.000
12.15427 104.000
12.17422 97.000
12.19417 111.000
12.21411 115.000
12.23406 90.000
12.25401 104.000
12.27395 105.000
12.29390 96.000
12.31385 113.000
12.33379 108.000
12.35374 111.000
12.37369 106.000
12.39364 115.000
12.41358 96.000
12.43353 91.000
12.45348 107.000
12.47342 102.000
12.49337 115.000
12.51332 113.000
12.53326 104.000
12.55321 98.000
12.57316 106.000
12.59311 92.000
12.61305 100.000
12.63300 111.000
12.65295 105.000
12.67289 126.000
12.69284 103.000
12.71279 109.000
12.73273 109.000
12.75268 101.000
12.77263 115.000
12.79257 117.000
12.81252 127.000
12.83247 114.000
12.85242 114.000
12.87236 119.000
12.89231 115.000
12.91226 125.000
12.93220 97.000
12.95215 110.000
12.97210 104.000
12.99204 111.000
13.01199 114.000
13.03194 117.000
13.05189 107.000
13.07183 88.000
13.09178 96.000
13.11173 107.000
13.13167 111.000
13.15162 92.000
13.17157 127.000
13.19151 104.000
13.21146 108.000
13.23141 130.000
13.25135 101.000
13.27130 138.000
13.29125 104.000
13.31120 125.000
13.33114 129.000
13.35109 119.000
13.37104 94.000
13.39098 101.000
13.41093 99.000
13.43088 110.000
13.45082 98.000
13.47077 105.000
13.49072 89.000
13.51067 100.000
13.53061 119.000
13.55056 122.000
13.57051 106.000
13.59045 112.000
13.61040 121.000
13.63035 103.000
13.65029 135.000
13.67024 110.000
13.69019 106.000
13.71013 117.000
13.73008 115.000
13.75003 105.000
13.76998 111.000
13.78992 117.000
13.80987 106.000
13.82982 105.000
13.84976 117.000
13.86971 107.000
13.88966 106.000
13.90960 117.000
13.92955 115.000
13.94950 111.000
13.96945 103.000
13.98939 131.000
14.00934 102.000
14.02929 120.000
14.04923 102.000
14.06918 122.000
14.08913 111.000
14.10907 114.000
14.12902 113.000
14.14897 122.000
14.16892 121.000
14.18886 112.000
14.20881 124.000
14.22876 119.000
14.24870 124.000
14.26865 116.000
14.28860 110.000
14.30854 106.000
14.32849 121.000
14.34844 100.000
14.36838 116.000
14.38833 107.000
14.40828 107.000
14.42823 105.000
14.44817 130.000
14.46812 95.000
14.48807 121.000
14.50801 105.000
14.52796 144.000
14.54791 110.000
14.56785 138.000
14.58780 120.000
14.60775 108.000
14.62770 116.000
14.64764 120.000
14.66759 118.000
14.68754 110.000
14.70748 93.000
14.72743 95.000
14.74738 116.000
14.76732 137.000
14.78727 104.000
14.80722 120.000
14.82716 128.000
14.84711 116.000
14.86706 107.000
14.88701 108.000
14.90695 137.000
14.92690 111.000
14.94685 124.000
14.96679 122.000
14.98674 115.000
15.00669 129.000
15.02663 126.000
15.04658 115.000
15.06653 105.000
15.08648 110.000
15.10642 123.000
15.12637 119.000
15.14632 97.000
15.16626 113.000
15.18621 114.000
15.20616 114.000
15.22610 115.000
15.24605 110.000
15.26600 106.000
15.28594 116.000
15.30589 122.000
15.32584 136.000
15.34579 123.000
15.36573 128.000
15.38568 114.000
15.40563 138.000
15.42557 129.000
15.44552 122.000
15.46547 131.000
15.48541 119.000
15.50536 103.000
15.52531 132.000
15.54526 116.000
15.56520 118.000
15.58515 126.000
15.60510 120.000
15.62504 125.000
15.64499 123.000
15.66494 117.000
15.68488 127.000
15.70483 125.000
15.72478 126.000
15.74472 107.000
15.76467 139.000
15.78462 155.000
15.80457 108.000
15.82451 129.000
15.84446 111.000
15.86441 113.000
15.88435 117.000
15.90430 130.000
15.92425 133.000
15.94419 139.000
15.96414 130.000
15.98409 130.000
16.00404 140.000
16.02398 117.000
16.04393 132.000
16.06388 130.000
16.08382 115.000
16.10377 114.000
16.12372 129.000
16.14366 128.000
16.16361 113.000
16.18356 123.000
16.20351 124.000
16.22345 142.000
16.24340 114.000
16.26335 138.000
16.28329 154.000
16.30324 136.000
16.32319 111.000
16.34313 132.000
16.36308 141.000
16.38303 132.000
16.40297 115.000
16.42292 137.000
16.44287 113.000
16.46282 124.000
16.48276 132.000
16.50271 133.000
16.52266 127.000
16.54260 131.000
16.56255 142.000
16.58250 150.000
16.60244 141.000
16.62239 127.000
16.64234 113.000
16.66229 142.000
16.68223 139.000
16.70218 127.000
16.72213 129.000
16.74207 125.000
16.76202 123.000
16.78197 122.000
16.80191 135.000
16.82186 140.000
16.84181 123.000
16.86175 135.000
16.88170 119.000
16.90165 120.000
16.92160 127.000
16.94154 145.000
16.96149 120.000
16.98144 106.000
17.00138 154.000
17.02133 135.000
17.04128 140.000
17.06122 115.000
17.08117 137.000
17.10112 129.000
17.12107 155.000
17.14101 141.000
17.16096 130.000
17.18091 156.000
17.20085 118.000
17.22080 122.000
17.24075 149.000
17.26069 127.000
17.28064 157.000
17.30059 130.000
17.32053 155.000
17.34048 154.000
17.36043 141.000
17.38038 158.000
17.40032 147.000
17.42027 146.000
17.44022 138.000
17.46016 175.000
17.48011 145.000
17.50006 159.000
17.52000 127.000
17.53995 139.000
17.55990 148.000
17.57985 158.000
17.59979 133.000
17.61974 152.000
17.63969 134.000
17.65963 130.000
17.67958 156.000
17.69953 142.000
17.71947 133.000
17.73942 130.000
17.75937 130.000
17.77932 147.000
17.79926 117.000
17.81921 144.000
17.83916 145.000
17.85910 136.000
17.87905 139.000
17.89900 125.000
17.91894 164.000
17.93889 153.000
17.95884 140.000
17.97878 156.000
17.99873 155.000
18.01868 174.000
18.03863 169.000
18.05857 177.000
18.07852 167.000
18.09847 187.000
18.11841 230.000
18.13836 268.000
18.15831 304.000
18.17825 357.000
18.19820 358.000
18.21815 384.000
18.23810 396.000
18.25804 336.000
18.27799 297.000
18.29794 231.000
18.31788 193.000
18.33783 167.000
18.35778 158.000
18.37772 141.000
18.39767 142.000
18.41762 146.000
18.43756 161.000
18.45751 125.000
18.47746 162.000
18.49741 145.000
18.51735 175.000
18.53730 154.000
18.55725 146.000
18.57719 157.000
18.59714 147.000
18.61709 136.000
18.63703 146.000
18.65698 165.000
18.67693 135.000
18.69688 145.000
18.71682 159.000
18.73677 154.000
18.75672 154.000
18.77666 155.000
18.79661 181.000
18.81656 147.000
18.83650 163.000
18.85645 160.000
18.87640 152.000
18.89634 157.000
18.91629 170.000
18.93624 168.000
18.95619 139.000
18.97613 161.000
18.99608 160.000
19.01603 121.000
19.03597 176.000
19.05592 170.000
19.07587 152.000
19.09581 153.000
19.11576 149.000
19.13571 165.000
19.15566 160.000
19.17560 150.000
19.19555 172.000
19.21550 154.000
19.23544 161.000
19.25539 133.000
19.27534 161.000
19.29528 149.000
19.31523 148.000
19.33518 163.000
19.35513 139.000
19.37507 137.000
19.39502 160.000
19.41497 170.000
19.43491 158.000
19.45486 160.000
19.47481 154.000
19.49475 155.000
19.51470 171.000
19.53465 156.000
19.55459 143.000
19.57454 175.000
19.59449 152.000
19.61444 151.000
19.63438 146.000
19.65433 153.000
19.67428 167.000
19.69422 164.000
19.71417 194.000
19.73412 150.000
19.75406 137.000
19.77401 158.000
19.79396 194.000
19.81391 173.000
19.83385 167.000
19.85380 189.000
19.87375 182.000
19.89369 204.000
19.91364 183.000
19.93359 191.000
19.95353 203.000
19.97348 206.000
19.99343 187.000
20.01337 193.000
20.03332 182.000
20.05327 185.000
20.07322 200.000
20.09316 192.000
20.11311 171.000
20.13306 161.000
20.15300 205.000
20.17295 152.000
20.19290 188.000
20.21284 164.000
20.23279 176.000
20.25274 213.000
20.27269 218.000
20.29263 230.000
20.31258 254.000
20.33253 259.000
20.35247 266.000
20.37242 267.000
20.39237 268.000
20.41231 295.000
20.43226 325.000
20.45221 350.000
20.47215 337.000
20.49210 324.000
20.51205 358.000
20.53200 359.000
20.55194 354.000
20.57189 388.000
20.59184 377.000
20.61178 322.000
20.63173 360.000
20.65168 328.000
20.67162 313.000
20.69157 318.000
20.71152 287.000
20.73147 308.000
20.75141 286.000
20.77136 298.000
20.79131 306.000
20.81125 241.000
20.83120 226.000
20.85115 261.000
20.87109 245.000
20.89104 245.000
20.91099 188.000
20.93094 217.000
20.95088 198.000
20.97083 222.000
20.99078 185.000
21.01072 185.000
21.03067 204.000
21.05062 186.000
21.07056 179.000
21.09051 185.000
21.11046 172.000
21.13040 170.000
21.15035 173.000
21.17030 193.000
21.19025 198.000
21.21019 176.000
21.23014 154.000
21.25009 179.000
21.27003 182.000
21.28998 186.000
21.30993 189.000
21.32987 187.000
21.34982 142.000
21.36977 175.000
21.38972 164.000
21.40966 161.000
21.42961 161.000
21.44956 174.000
21.46950 189.000
21.48945 170.000
21.50940 189.000
21.52934 191.000
21.54929 197.000
21.56924 190.000
21.58918 181.000
21.60913 196.000
21.62908 177.000
21.64903 175.000
21.66897 176.000
21.68892 171.000
21.70887 197.000
21.72881 172.000
21.74876 167.000
21.76871 209.000
21.78865 195.000
21.80860 206.000
21.82855 174.000
21.84850 180.000
21.86844 170.000
21.88839 193.000
21.90834 185.000
21.92828 171.000
21.94823 194.000
21.96818 160.000
21.98812 193.000
22.00807 185.000
22.02802 170.000
22.04796 195.000
22.06791 173.000
22.08786 201.000
22.10781 183.000
22.12775 202.000
22.14770 176.000
22.16765 193.000
22.18759 178.000
22.20754 183.000
22.22749 197.000
22.24743 189.000
22.26738 176.000
22.28733 185.000
22.30728 191.000
22.32722 175.000
22.34717 217.000
22.36712 195.000
22.38706 215.000
22.40701 206.000
22.42696 189.000
22.44690 210.000
22.46685 200.000
22.48680 188.000
22.50675 174.000
22.52669 194.000
22.54664 210.000
22.56659 207.000
22.58653 200.000
22.60648 182.000
22.62643 197.000
22.64637 183.000
22.66632 177.000
22.68627 207.000
22.70621 211.000
22.72616 184.000
22.74611 196.000
22.76606 198.000
22.78600 216.000
22.80595 211.000
22.82590 213.000
22.84584 213.000
22.86579 197.000
22.88574 216.000
22.90568 194.000
22.92563 203.000
22.94558 225.000
22.96553 199.000
22.98547 222.000
23.00542 186.000
23.02537 208.000
23.04531 180.000
23.06526 186.000
23.08521 170.000
23.10515 181.000
23.12510 206.000
23.14505 212.000
23.16499 207.000
23.18494 183.000
23.20489 206.000
23.22484 221.000
23.24478 206.000
23.26473 184.000
23.28468 187.000
23.30462 217.000
23.32457 190.000
23.34452 199.000
23.36446 192.000
23.38441 196.000
23.40436 188.000
23.42431 187.000
23.44425 207.000
23.46420 186.000
23.48415 217.000
23.50409 209.000
23.52404 227.000
23.54399 214.000
23.56393 208.000
23.58388 196.000
23.60383 210.000
23.62377 195.000
23.64372 230.000
23.66367 203.000
23.68362 217.000
23.70356 194.000
23.72351 203.000
23.74346 217.000
23.76340 213.000
23.78335 211.000
23.80330 208.000
23.82324 227.000
23.84319 212.000
23.86314 199.000
23.88309 218.000
23.90303 218.000
23.92298 215.000
23.94293 177.000
23.96287 208.000
23.98282 248.000
24.00277 220.000
24.02271 207.000
24.04266 230.000
24.06261 210.000
24.08256 212.000
24.10250 199.000
24.12245 226.000
24.14240 237.000
24.16234 216.000
24.18229 221.000
24.20224 203.000
24.22218 232.000
24.24213 197.000
24.26208 229.000
24.28202 204.000
24.30197 202.000
24.32192 224.000
24.34187 220.000
24.36181 213.000
24.38176 235.000
24.40171 214.000
24.42165 236.000
24.44160 208.000
24.46155 258.000
24.48149 211.000
24.50144 218.000
24.52139 188.000
24.54134 223.000
24.56128 229.000
24.58123 236.000
24.60118 240.000
24.62112 207.000
24.64107 213.000
24.66102 245.000
24.68096 219.000
24.70091 218.000
24.72086 240.000
24.74080 261.000
24.76075 227.000
24.78070 229.000
24.80065 240.000
24.82059 248.000
24.84054 247.000
24.86049 214.000
24.88043 249.000
24.90038 228.000
24.92033 224.000
24.94027 221.000
24.96022 251.000
24.98017 265.000
25.00012 234.000
25.02006 215.000
25.04001 225.000
25.05996 227.000
25.07990 241.000
25.09985 218.000
25.11980 252.000
25.13974 218.000
25.15969 244.000
25.17964 209.000
25.19958 214.000
25.21953 248.000
25.23948 208.000
25.25943 220.000
25.27937 252.000
25.29932 244.000
25.31927 246.000
25.33921 234.000
25.35916 243.000
25.37911 242.000
25.39905 233.000
25.41900 260.000
25.43895 263.000
25.45890 239.000
25.47884 246.000
25.49879 262.000
25.51874 232.000
25.53868 210.000
25.55863 247.000
25.57858 219.000
25.59852 231.000
25.61847 251.000
25.63842 247.000
25.65837 219.000
25.67831 258.000
25.69826 265.000
25.71821 241.000
25.73815 232.000
25.75810 245.000
25.77805 232.000
25.79799 243.000
25.81794 261.000
25.83789 270.000
25.85783 239.000
25.87778 271.000
25.89773 274.000
25.91768 251.000
25.93762 260.000
25.95757 246.000
25.97752 259.000
25.99746 254.000
26.01741 261.000
26.03736 267.000
26.05730 280.000
26.07725 254.000
26.09720 250.000
26.11715 240.000
26.13709 269.000
26.15704 251.000
26.17699 241.000
26.19693 228.000
26.21688 248.000
26.23683 266.000
26.25677 269.000
26.27672 257.000
26.29667 252.000
26.31661 246.000
26.33656 274.000
26.35651 243.000
26.37646 281.000
26.39640 244.000
26.41635 259.000
26.43630 259.000
26.45624 277.000
26.47619 239.000
26.49614 266.000
26.51608 278.000
26.53603 253.000
26.55598 252.000
26.57593 262.000
26.59587 263.000
26.61582 260.000
26.63577 272.000
26.65571 286.000
26.67566 272.000
26.69561 255.000
26.71555 278.000
26.73550 255.000
26.75545 290.000
26.77539 291.000
26.79534 270.000
26.81529 266.000
26.83524 293.000
26.85518 277.000
26.87513 280.000
26.89508 271.000
26.91502 270.000
26.93497 283.000
26.95492 270.000
26.97486 291.000
26.99481 299.000
27.01476 275.000
27.03471 307.000
27.05465 244.000
27.07460 297.000
27.09455 257.000
27.11449 287.000
27.13444 307.000
27.15439 295.000
27.17433 245.000
27.19428 292.000
27.21423 283.000
27.23417 286.000
27.25412 282.000
27.27407 312.000
27.29402 281.000
27.31396 293.000
27.33391 286.000
27.35386 304.000
27.37380 278.000
27.39375 295.000
27.41370 293.000
27.43364 304.000
27.45359 307.000
27.47354 291.000
27.49349 257.000
27.51343 290.000
27.53338 277.000
27.55333 268.000
27.57327 252.000
27.59322 268.000
27.61317 290.000
27.63311 272.000
27.65306 270.000
27.67301 281.000
27.69296 299.000
27.71290 301.000
27.73285 289.000
27.75280 310.000
27.77274 271.000
27.79269 314.000
27.81264 292.000
27.83258 312.000
27.85253 246.000
27.87248 293.000
27.89242 289.000
27.91237 301.000
27.93232 307.000
27.95227 284.000
27.97221 319.000
27.99216 313.000
28.01211 299.000
28.03205 301.000
28.05200 298.000
28.07195 287.000
28.09189 303.000
28.11184 312.000
28.13179 310.000
28.15174 338.000
28.17168 322.000
28.19163 300.000
28.21158 280.000
28.23152 295.000
28.25147 302.000
28.27142 282.000
28.29136 305.000
28.31131 307.000
28.33126 307.000
28.35120 292.000
28.37115 293.000
28.39110 296.000
28.41105 304.000
28.43099 289.000
28.45094 304.000
28.47089 335.000
28.49083 304.000
28.51078 316.000
28.53073 298.000
28.55067 341.000
28.57062 315.000
28.59057 304.000
28.61052 262.000
28.63046 302.000
28.65041 291.000
28.67036 324.000
28.69030 370.000
28.71025 331.000
28.73020 327.000
28.75014 292.000
28.77009 307.000
28.79004 326.000
28.80998 330.000
28.82993 329.000
28.84988 330.000
28.86983 307.000
28.88977 308.000
28.90972 329.000
28.92967 308.000
28.94961 291.000
28.96956 287.000
28.98951 310.000
29.00945 345.000
29.02940 346.000
29.04935 324.000
29.06930 306.000
29.08924 307.000
29.10919 279.000
29.12914 327.000
29.14908 318.000
29.16903 326.000
29.18898 342.000
29.20892 347.000
29.22887 324.000
29.24882 318.000
29.26877 346.000
29.28871 336.000
29.30866 298.000
29.32861 313.000
29.34855 333.000
29.36850 364.000
29.38845 344.000
29.40839 361.000
29.42834 342.000
29.44829 349.000
29.46823 345.000
29.48818 335.000
29.50813 338.000
29.52808 355.000
29.54802 325.000
29.56797 313.000
29.58792 348.000
29.60786 357.000
29.62781 348.000
29.64776 328.000
29.66770 344.000
29.68765 365.000
29.70760 337.000
29.72755 379.000
29.74749 381.000
29.76744 339.000
29.78739 348.000
29.80733 360.000
29.82728 317.000
29.84723 414.000
29.86717 393.000
29.88712 405.000
29.90707 381.000
29.92701 443.000
29.94696 446.000
29.96691 559.000
29.98686 644.000
30.00680 753.000
30.02675 907.000
30.04670 1012.000
30.06664 1135.000
30.08659 1183.000
30.10654 1225.000
30.12648 1024.000
30.14643 826.000
30.16638 747.000
30.18633 647.000
30.20627 578.000
30.22622 476.000
30.24617 367.000
30.26611 345.000
30.28606 377.000
30.30601 338.000
30.32595 326.000
30.34590 339.000
30.36585 309.000
30.38579 327.000
30.40574 339.000
30.42569 349.000
30.44564 332.000
30.46558 314.000
30.48553 355.000
30.50548 348.000
30.52542 284.000
30.54537 292.000
30.56532 321.000
30.58526 328.000
30.60521 308.000
30.62516 330.000
30.64511 324.000
30.66505 331.000
30.68500 329.000
30.70495 336.000
30.72489 320.000
30.74484 323.000
30.76479 312.000
30.78473 305.000
30.80468 335.000
30.82463 295.000
30.84458 320.000
30.86452 299.000
30.88447 303.000
30.90442 311.000
30.92436 310.000
30.94431 336.000
30.96426 312.000
30.98420 296.000
31.00415 310.000
31.02410 294.000
31.04404 339.000
31.06399 333.000
31.08394 311.000
31.10389 293.000
31.12383 322.000
31.14378 313.000
31.16373 316.000
31.18367 312.000
31.20362 294.000
31.22357 272.000
31.24351 334.000
31.26346 296.000
31.28341 295.000
31.30336 317.000
31.32330 299.000
31.34325 322.000
31.36320 347.000
31.38314 339.000
31.40309 320.000
31.42304 318.000
31.44298 301.000
31.46293 301.000
31.48288 299.000
31.50282 298.000
31.52277 324.000
31.54272 299.000
31.56267 291.000
31.58261 295.000
31.60256 337.000
31.62251 313.000
31.64245 296.000
31.66240 321.000
31.68235 339.000
31.70229 333.000
31.72224 299.000
31.74219 297.000
31.76214 300.000
31.78208 343.000
31.80203 311.000
31.82198 287.000
31.84192 312.000
31.86187 328.000
31.88182 325.000
31.90176 291.000
31.92171 344.000
31.94166 301.000
31.96160 333.000
31.98155 331.000
32.00150 308.000
32.02145 297.000
32.04139 287.000
32.06134 318.000
32.08129 339.000
32.10123 321.000
32.12118 319.000
32.14113 299.000
32.16107 323.000
32.18102 339.000
32.20097 311.000
32.22092 310.000
32.24086 295.000
32.26081 317.000
32.28076 309.000
32.30070 364.000
32.32065 281.000
32.34060 307.000
32.36054 298.000
32.38049 296.000
32.40044 286.000
32.42039 338.000
32.44033 277.000
32.46028 318.000
32.48023 332.000
32.50017 298.000
32.52012 272.000
32.54007 294.000
32.56001 318.000
32.57996 296.000
32.59991 297.000
32.61985 270.000
32.63980 277.000
32.65975 317.000
32.67970 323.000
32.69964 267.000
32.71959 308.000
32.73954 283.000
32.75948 314.000
32.77943 274.000
32.79938 278.000
32.81932 300.000
32.83927 278.000
32.85922 289.000
32.87917 285.000
32.89911 310.000
32.91906 288.000
32.93901 292.000
32.95895 322.000
32.97890 289.000
32.99885 313.000
33.01879 309.000
33.03874 313.000
33.05869 330.000
33.07863 311.000
33.09858 305.000
33.11853 321.000
33.13848 313.000
33.15842 345.000
33.17837 315.000
33.19832 353.000
33.21826 327.000
33.23821 348.000
33.25816 328.000
33.27810 322.000
33.29805 379.000
33.31800 330.000
33.33795 358.000
33.35789 313.000
33.37784 305.000
33.39779 354.000
33.41773 334.000
33.43768 321.000
33.45763 335.000
33.47757 298.000
33.49752 297.000
33.51747 316.000
33.53741 344.000
33.55736 319.000
33.57731 317.000
33.59726 310.000
33.61720 347.000
33.63715 309.000
33.65710 351.000
33.67704 338.000
33.69699 384.000
33.71694 397.000
33.73688 367.000
33.75683 387.000
33.77678 382.000
33.79673 397.000
33.81667 430.000
33.83662 464.000
33.85657 451.000
33.87651 457.000
33.89646 411.000
33.91641 499.000
33.93635 482.000
33.95630 477.000
33.97625 451.000
33.99620 481.000
34.01614 479.000
34.03609 510.000
34.05604 483.000
34.07598 459.000
34.09593 469.000
34.11588 423.000
34.13582 444.000
34.15577 418.000
34.17572 418.000
34.19566 397.000
34.21561 418.000
34.23556 382.000
34.25551 416.000
34.27545 393.000
34.29540 430.000
34.31535 353.000
34.33529 386.000
34.35524 335.000
34.37519 361.000
34.39513 360.000
34.41508 355.000
34.43503 349.000
34.45498 331.000
34.47492 357.000
34.49487 317.000
34.51482 317.000
34.53476 320.000
34.55471 319.000
34.57466 280.000
34.59460 304.000
34.61455 274.000
34.63450 304.000
34.65444 280.000
34.67439 301.000
34.69434 323.000
34.71429 311.000
34.73423 310.000
34.75418 241.000
34.77413 312.000
34.79407 356.000
34.81402 276.000
34.83397 343.000
34.85391 339.000
34.87386 311.000
34.89381 316.000
34.91376 306.000
34.93370 358.000
34.95365 361.000
34.97360 359.000
34.99354 408.000
35.01349 423.000
35.03344 466.000
35.05338 494.000
35.07333 482.000
35.09328 520.000
35.11322 522.000
35.13317 547.000
35.15312 540.000
35.17307 497.000
35.19301 546.000
35.21296 523.000
35.23291 592.000
35.25285 659.000
35.27280 739.000
35.29275 829.000
35.31269 947.000
35.33264 1043.000
35.35259 1243.000
35.37254 1534.000
35.39248 1965.000
35.41243 2302.000
35.43238 2631.000
35.45232 2905.000
35.47227 3030.000
35.49222 2709.000
35.51216 2362.000
35.53211 2137.000
35.55206 1871.000
35.57201 1507.000
35.59195 1180.000
35.61190 883.000
35.63185 625.000
35.65179 506.000
35.67174 425.000
35.69169 375.000
35.71163 386.000
35.73158 366.000
35.75153 353.000
35.77147 323.000
35.79142 306.000
35.81137 318.000
35.83132 287.000
35.85126 284.000
35.87121 290.000
35.89116 270.000
35.91110 279.000
35.93105 318.000
35.95100 284.000
35.97094 282.000
35.99089 273.000
36.01084 257.000
36.03079 255.000
36.05073 290.000
36.07068 249.000
36.09063 264.000
36.11057 245.000
36.13052 274.000
36.15047 268.000
36.17041 271.000
36.19036 257.000
36.21031 244.000
36.23025 275.000
36.25020 234.000
36.27015 257.000
36.29010 261.000
36.31004 276.000
36.32999 282.000
36.34994 273.000
36.36988 239.000
36.38983 264.000
36.40978 277.000
36.42972 245.000
36.44967 243.000
36.46962 254.000
36.48957 271.000
36.50951 244.000
36.52946 247.000
36.54941 205.000
36.56935 247.000
36.58930 249.000
36.60925 248.000
36.62919 211.000
36.64914 248.000
36.66909 247.000
36.68903 256.000
36.70898 232.000
36.72893 244.000
36.74888 286.000
36.76882 263.000
36.78877 236.000
36.80872 255.000
36.82866 240.000
36.84861 255.000
36.86856 273.000
36.88850 263.000
36.90845 264.000
36.92840 293.000
36.94835 253.000
36.96829 290.000
36.98824 306.000
37.00819 308.000
37.02813 334.000
37.04808 366.000
37.06803 392.000
37.08797 401.000
37.10792 422.000
37.12787 411.000
37.14781 422.000
37.16776 355.000
37.18771 329.000
37.20766 339.000
37.22760 286.000
37.24755 271.000
37.26750 291.000
37.28744 261.000
37.30739 230.000
37.32734 227.000
37.34728 239.000
37.36723 219.000
37.38718 246.000
37.40713 205.000
37.42707 254.000
37.44702 215.000
37.46697 226.000
37.48691 234.000
37.50686 242.000
37.52681 238.000
37.54675 249.000
37.56670 241.000
37.58665 220.000
37.60660 236.000
37.62654 237.000
37.64649 254.000
37.66644 205.000
37.68638 255.000
37.70633 240.000
37.72628 234.000
37.74622 247.000
37.76617 247.000
37.78612 232.000
37.80606 221.000
37.82601 226.000
37.84596 247.000
37.86591 218.000
37.88585 240.000
37.90580 233.000
37.92575 212.000
37.94569 229.000
37.96564 221.000
37.98559 237.000
38.00553 228.000
38.02548 214.000
38.04543 231.000
38.06538 251.000
38.08532 219.000
38.10527 257.000
38.12522 245.000
38.14516 251.000
38.16511 204.000
38.18506 239.000
38.20500 246.000
38.22495 243.000
38.24490 216.000
38.26484 237.000
38.28479 264.000
38.30474 298.000
38.32469 253.000
38.34463 245.000
38.36458 292.000
38.38453 256.000
38.40447 305.000
38.42442 332.000
38.44437 325.000
38.46431 362.000
38.48426 332.000
38.50421 364.000
38.52416 410.000
38.54410 402.000
38.56405 380.000
38.58400 420.000
38.60394 405.000
38.62389 382.000
38.64384 372.000
38.66378 301.000
38.68373 323.000
38.70368 326.000
38.72362 303.000
38.74357 307.000
38.76352 296.000
38.78347 257.000
38.80341 265.000
38.82336 265.000
38.84331 257.000
38.86325 270.000
38.88320 246.000
38.90315 269.000
38.92309 240.000
38.94304 293.000
38.96299 237.000
38.98294 232.000
39.00288 232.000
39.02283 225.000
39.04278 247.000
39.06272 234.000
39.08267 257.000
39.10262 251.000
39.12256 223.000
39.14251 226.000
39.16246 235.000
39.18241 221.000
39.20235 250.000
39.22230 249.000
39.24225 232.000
39.26219 237.000
39.28214 256.000
39.30209 249.000
39.32203 258.000
39.34198 208.000
39.36193 226.000
39.38187 245.000
39.40182 236.000
39.42177 234.000
39.44172 248.000
39.46166 232.000
39.48161 210.000
39.50156 233.000
39.52150 241.000
39.54145 232.000
39.56140 208.000
39.58134 209.000
39.60129 205.000
39.62124 234.000
39.64119 254.000
39.66113 219.000
39.68108 234.000
39.70103 180.000
39.72097 224.000
39.74092 241.000
39.76087 234.000
39.78081 225.000
39.80076 235.000
39.82071 238.000
39.84065 220.000
39.86060 217.000
39.88055 229.000
39.90050 211.000
39.92044 233.000
39.94039 250.000
39.96034 241.000
39.98028 206.000
40.00023 238.000
40.02018 202.000
40.04012 201.000
40.06007 227.000
40.08002 237.000
40.09997 214.000
40.11991 255.000
40.13986 233.000
40.15981 243.000
40.17975 228.000
40.19970 213.000
40.21965 236.000
40.23959 217.000
40.25954 216.000
40.27949 214.000
40.29943 247.000
40.31938 219.000
40.33933 237.000
40.35928 239.000
40.37922 251.000
40.39917 195.000
40.41912 238.000
40.43906 237.000
40.45901 222.000
40.47896 250.000
40.49890 254.000
40.51885 256.000
40.53880 227.000
40.55875 237.000
40.57869 213.000
40.59864 210.000
40.61859 231.000
40.63853 233.000
40.65848 247.000
40.67843 238.000
40.69837 230.000
40.71832 226.000
40.73827 215.000
40.75822 199.000
40.77816 237.000
40.79811 210.000
40.81806 248.000
40.83800 232.000
40.85795 237.000
40.87790 239.000
40.89784 225.000
40.91779 196.000
40.93774 228.000
40.95768 218.000
40.97763 217.000
40.99758 215.000
41.01753 229.000
41.03747 222.000
41.05742 227.000
41.07737 206.000
41.09731 236.000
41.11726 224.000
41.13721 239.000
41.15715 251.000
41.17710 221.000
41.19705 223.000
41.21700 210.000
41.23694 227.000
41.25689 242.000
41.27684 203.000
41.29678 238.000
41.31673 211.000
41.33668 221.000
41.35662 244.000
41.37657 208.000
41.39652 235.000
41.41646 242.000
41.43641 209.000
41.45636 229.000
41.47631 226.000
41.49625 228.000
41.51620 229.000
41.53615 240.000
41.55609 228.000
41.57604 208.000
41.59599 217.000
41.61593 261.000
41.63588 218.000
41.65583 203.000
41.67578 203.000
41.69572 232.000
41.71567 219.000
41.73562 222.000
41.75556 209.000
41.77551 255.000
41.79546 209.000
41.81540 230.000
41.83535 246.000
41.85530 226.000
41.87524 246.000
41.89519 237.000
41.91514 239.000
41.93509 226.000
41.95503 221.000
41.97498 258.000
41.99493 254.000
42.01487 220.000
42.03482 237.000
42.05477 225.000
42.07471 239.000
42.09466 239.000
42.11461 230.000
42.13456 219.000
42.15450 229.000
42.17445 214.000
42.19440 210.000
42.21434 221.000
42.23429 231.000
42.25424 233.000
42.27418 240.000
42.29413 235.000
42.31408 242.000
42.33403 251.000
42.35397 275.000
42.37392 215.000
42.39387 209.000
42.41381 230.000
42.43376 249.000
42.45371 228.000
42.47365 226.000
42.49360 222.000
42.51355 258.000
42.53349 249.000
42.55344 241.000
42.57339 237.000
42.59334 207.000
42.61328 254.000
42.63323 234.000
42.65318 201.000
42.67312 260.000
42.69307 256.000
42.71302 258.000
42.73296 254.000
42.75291 226.000
42.77286 253.000
42.79281 266.000
42.81275 322.000
42.83270 254.000
42.85265 283.000
42.87259 283.000
42.89254 302.000
42.91249 270.000
42.93243 295.000
42.95238 305.000
42.97233 311.000
42.99227 348.000
43.01222 380.000
43.03217 423.000
43.05212 470.000
43.07206 530.000
43.09201 618.000
43.11196 597.000
43.13190 675.000
43.15185 719.000
43.17180 647.000
43.19174 653.000
43.21169 555.000
43.23164 533.000
43.25159 503.000
43.27153 460.000
43.29148 429.000
43.31143 348.000
43.33137 329.000
43.35132 295.000
43.37127 274.000
43.39121 251.000
43.41116 248.000
43.43111 228.000
43.45105 235.000
43.47100 219.000
43.49095 222.000
43.51090 222.000
43.53084 207.000
43.55079 236.000
43.57074 238.000
43.59068 234.000
43.61063 223.000
43.63058 219.000
43.65052 238.000
43.67047 236.000
43.69042 218.000
43.71037 223.000
43.73031 188.000
43.75026 221.000
43.77021 228.000
43.79015 236.000
43.81010 211.000
43.83005 225.000
43.84999 232.000
43.86994 228.000
43.88989 171.000
43.90984 193.000
43.92978 220.000
43.94973 200.000
43.96968 197.000
43.98962 224.000
44.00957 186.000
44.02952 194.000
44.04946 213.000
44.06941 207.000
44.08936 190.000
44.10930 235.000
44.12925 206.000
44.14920 206.000
44.16915 212.000
44.18909 211.000
44.20904 196.000
44.22899 214.000
44.24893 230.000
44.26888 195.000
44.28883 225.000
44.30877 198.000
44.32872 196.000
44.34867 198.000
44.36862 195.000
44.38856 211.000
44.40851 210.000
44.42846 196.000
44.44840 179.000
44.46835 221.000
44.48830 214.000
44.50824 208.000
44.52819 197.000
44.54814 212.000
44.56808 179.000
44.58803 203.000
44.60798 202.000
44.62793 210.000
44.64787 218.000
44.66782 179.000
44.68777 197.000
44.70771 195.000
44.72766 210.000
44.74761 236.000
44.76755 176.000
44.78750 204.000
44.80745 198.000
44.82740 200.000
44.84734 218.000
44.86729 202.000
44.88724 224.000
44.90718 178.000
44.92713 172.000
44.94708 230.000
44.96702 182.000
44.98697 204.000
45.00692 201.000
45.02686 185.000
45.04681 230.000
45.06676 193.000
45.08671 209.000
45.10665 209.000
45.12660 186.000
45.14655 203.000
45.16649 210.000
45.18644 198.000
45.20639 221.000
45.22633 200.000
45.24628 193.000
45.26623 204.000
45.28618 196.000
45.30612 199.000
45.32607 175.000
45.34602 202.000
45.36596 196.000
45.38591 187.000
45.40586 194.000
45.42580 185.000
45.44575 198.000
45.46570 175.000
45.48565 207.000
45.50559 215.000
45.52554 197.000
45.54549 193.000
45.56543 195.000
45.58538 191.000
45.60533 200.000
45.62527 192.000
45.64522 174.000
45.66517 193.000
45.68511 196.000
45.70506 218.000
45.72501 215.000
45.74496 179.000
45.76490 189.000
45.78485 168.000
45.80480 180.000
45.82474 217.000
45.84469 182.000
45.86464 178.000
45.88458 178.000
45.90453 184.000
45.92448 216.000
45.94443 179.000
45.96437 185.000
45.98432 196.000
46.00427 171.000
46.02421 209.000
46.04416 192.000
46.06411 204.000
46.08405 173.000
46.10400 202.000
46.12395 213.000
46.14389 201.000
46.16384 183.000
46.18379 197.000
46.20374 205.000
46.22368 216.000
46.24363 191.000
46.26358 168.000
46.28352 188.000
46.30347 188.000
46.32342 191.000
46.34336 186.000
46.36331 199.000
46.38326 175.000
46.40321 185.000
46.42315 202.000
46.44310 174.000
46.46305 184.000
46.48299 168.000
46.50294 192.000
46.52289 177.000
46.54283 189.000
46.56278 198.000
46.58273 206.000
46.60267 199.000
46.62262 178.000
46.64257 197.000
46.66252 196.000
46.68246 181.000
46.70241 166.000
46.72236 193.000
46.74230 200.000
46.76225 197.000
46.78220 187.000
46.80214 211.000
46.82209 176.000
46.84204 201.000
46.86199 196.000
46.88193 183.000
46.90188 215.000
46.92183 199.000
46.94177 191.000
46.96172 205.000
46.98167 186.000
47.00161 173.000
47.02156 188.000
47.04151 190.000
47.06146 210.000
47.08140 202.000
47.10135 183.000
47.12130 199.000
47.14124 176.000
47.16119 211.000
47.18114 176.000
47.20108 176.000
47.22103 204.000
47.24098 208.000
47.26092 190.000
47.28087 197.000
47.30082 224.000
47.32077 192.000
47.34071 212.000
47.36066 175.000
47.38061 187.000
47.40055 179.000
47.42050 198.000
47.44045 187.000
47.46039 171.000
47.48034 180.000
47.50029 186.000
47.52024 189.000
47.54018 180.000
47.56013 188.000
47.58008 207.000
47.60002 169.000
47.61997 171.000
47.63992 187.000
47.65986 189.000
47.67981 184.000
47.69976 167.000
47.71970 167.000
47.73965 191.000
47.75960 173.000
47.77955 182.000
47.79949 185.000
47.81944 180.000
47.83939 186.000
47.85933 160.000
47.87928 203.000
47.89923 184.000
47.91917 182.000
47.93912 175.000
47.95907 180.000
47.97902 177.000
47.99896 192.000
48.01891 186.000
48.03886 173.000
48.05880 168.000
48.07875 188.000
48.09870 168.000
48.11864 217.000
48.13859 191.000
48.15854 153.000
48.17848 178.000
48.19843 178.000
48.21838 187.000
48.23833 180.000
48.25827 188.000
48.27822 188.000
48.29817 194.000
48.31811 192.000
48.33806 199.000
48.35801 220.000
48.37795 165.000
48.39790 174.000
48.41785 197.000
48.43780 219.000
48.45774 225.000
48.47769 209.000
48.49764 188.000
48.51758 215.000
48.53753 180.000
48.55748 224.000
48.57742 209.000
48.59737 221.000
48.61732 231.000
48.63726 213.000
48.65721 228.000
48.67716 212.000
48.69711 196.000
48.71705 214.000
48.73700 206.000
48.75695 217.000
48.77689 195.000
48.79684 179.000
48.81679 201.000
48.83673 201.000
48.85668 196.000
48.87663 175.000
48.89658 212.000
48.91652 187.000
48.93647 198.000
48.95642 192.000
48.97636 169.000
48.99631 181.000
49.01626 198.000
49.03620 190.000
49.05615 225.000
49.07610 213.000
49.09605 192.000
49.11599 175.000
49.13594 208.000
49.15589 183.000
49.17583 191.000
49.19578 204.000
49.21573 197.000
49.23567 205.000
49.25562 193.000
49.27557 192.000
49.29551 194.000
49.31546 196.000
49.33541 172.000
49.35536 216.000
49.37530 179.000
49.39525 175.000
49.41520 186.000
49.43514 181.000
49.45509 167.000
49.47504 162.000
49.49498 212.000
49.51493 208.000
49.53488 169.000
49.55483 179.000
49.57477 218.000
49.59472 179.000
49.61467 192.000
49.63461 180.000
49.65456 190.000
49.67451 182.000
49.69445 166.000
49.71440 180.000
49.73435 172.000
49.75429 172.000
49.77424 190.000
49.79419 201.000
49.81414 200.000
49.83408 169.000
49.85403 201.000
49.87398 170.000
49.89392 176.000
49.91387 206.000
49.93382 154.000
49.95376 167.000
49.97371 178.000
49.99366 164.000
50.01361 168.000
50.03355 165.000
50.05350 184.000
50.07345 179.000
50.09339 185.000
50.11334 188.000
50.13329 164.000
50.15323 162.000
50.17318 182.000
50.19313 178.000
50.21307 160.000
50.23302 176.000
50.25297 164.000
50.27292 164.000
50.29286 149.000
50.31281 184.000
50.33276 167.000
50.35270 177.000
50.37265 174.000
50.39260 180.000
50.41254 179.000
50.43249 179.000
50.45244 196.000
50.47239 171.000
50.49233 212.000
50.51228 185.000
50.53223 167.000
50.55217 175.000
50.57212 166.000
50.59207 186.000
50.61201 198.000
50.63196 164.000
50.65191 180.000
50.67186 180.000
50.69180 183.000
50.71175 169.000
50.73170 199.000
50.75164 151.000
50.77159 181.000
50.79154 158.000
50.81148 146.000
50.83143 158.000
50.85138 179.000
50.87132 160.000
50.89127 191.000
50.91122 157.000
50.93117 159.000
50.95111 169.000
50.97106 155.000
50.99101 192.000
51.01095 144.000
51.03090 178.000
51.05085 174.000
51.07079 175.000
51.09074 160.000
51.11069 180.000
51.13064 183.000
51.15058 164.000
51.17053 175.000
51.19048 170.000
51.21042 181.000
51.23037 164.000
51.25032 169.000
51.27026 163.000
51.29021 166.000
51.31016 164.000
51.33010 157.000
51.35005 163.000
51.37000 150.000
51.38995 150.000
51.40989 180.000
51.42984 162.000
51.44979 167.000
51.46973 176.000
51.48968 170.000
51.50963 175.000
51.52957 181.000
51.54952 159.000
51.56947 184.000
51.58942 180.000
51.60936 164.000
51.62931 174.000
51.64926 175.000
51.66920 178.000
51.68915 180.000
51.70910 194.000
51.72904 152.000
51.74899 168.000
51.76894 186.000
51.78888 156.000
51.80883 159.000
51.82878 185.000
51.84873 171.000
51.86867 166.000
51.88862 147.000
51.90857 155.000
51.92851 153.000
51.94846 169.000
51.96841 175.000
51.98835 145.000
52.00830 154.000
52.02825 175.000
52.04820 177.000
52.06814 161.000
52.08809 189.000
52.10804 154.000
52.12798 143.000
52.14793 172.000
52.16788 165.000
52.18782 161.000
52.20777 161.000
52.22772 170.000
52.24767 179.000
52.26761 186.000
52.28756 141.000
52.30751 163.000
52.32745 176.000
52.34740 167.000
52.36735 178.000
52.38729 191.000
52.40724 163.000
52.42719 155.000
52.44713 152.000
52.46708 175.000
52.48703 146.000
52.50698 163.000
52.52692 170.000
52.54687 163.000
52.56682 174.000
52.58676 180.000
52.60671 197.000
52.62666 153.000
52.64660 157.000
52.66655 172.000
52.68650 188.000
52.70645 158.000
52.72639 173.000
52.74634 179.000
52.76629 186.000
52.78623 165.000
52.80618 199.000
52.82613 180.000
52.84607 174.000
52.86602 170.000
52.88597 166.000
52.90591 190.000
52.92586 213.000
52.94581 182.000
52.96576 193.000
52.98570 168.000
53.00565 185.000
53.02560 163.000
53.04554 182.000
53.06549 168.000
53.08544 190.000
53.10538 196.000
53.12533 170.000
53.14528 188.000
53.16523 187.000
53.18517 195.000
53.20512 181.000
53.22507 188.000
53.24501 210.000
53.26496 224.000
53.28491 198.000
53.30485 192.000
53.32480 195.000
53.34475 191.000
53.36469 213.000
53.38464 230.000
53.40459 212.000
53.42454 235.000
53.44448 235.000
53.46443 273.000
53.48438 277.000
53.50432 296.000
53.52427 313.000
53.54422 330.000
53.56416 396.000
53.58411 331.000
53.60406 391.000
53.62401 328.000
53.64395 328.000
53.66390 287.000
53.68385 286.000
53.70379 266.000
53.72374 283.000
53.74369 256.000
53.76363 264.000
53.78358 219.000
53.80353 212.000
53.82348 204.000
53.84342 177.000
53.86337 192.000
53.88332 200.000
53.90326 195.000
53.92321 195.000
53.94316 176.000
53.96310 184.000
53.98305 167.000
54.00300 168.000
54.02294 163.000
54.04289 156.000
54.06284 152.000
54.08279 184.000
54.10273 168.000
54.12268 174.000
54.14263 169.000
54.16257 159.000
54.18252 223.000
54.20247 145.000
54.22241 166.000
54.24236 153.000
54.26231 176.000
54.28226 199.000
54.30220 173.000
54.32215 169.000
54.34210 170.000
54.36204 179.000
54.38199 171.000
54.40194 160.000
54.42188 153.000
54.44183 166.000
54.46178 162.000
54.48172 185.000
54.50167 158.000
54.52162 172.000
54.54157 169.000
54.56151 156.000
54.58146 188.000
54.60141 166.000
54.62135 148.000
54.64130 158.000
54.66125 155.000
54.68119 189.000
54.70114 189.000
54.72109 170.000
54.74104 144.000
54.76098 153.000
54.78093 172.000
54.80088 145.000
54.82082 158.000
54.84077 150.000
54.86072 186.000
54.88066 164.000
54.90061 184.000
54.92056 149.000
54.94050 147.000
54.96045 164.000
54.98040 154.000
55.00035 144.000
55.02029 168.000
55.04024 145.000
55.06019 151.000
55.08013 159.000
55.10008 176.000
55.12003 201.000
55.13997 168.000
55.15992 163.000
55.17987 171.000
55.19982 162.000
55.21976 176.000
55.23971 144.000
55.25966 149.000
55.27960 196.000
55.29955 155.000
55.31950 179.000
55.33944 164.000
55.35939 175.000
55.37934 177.000
55.39929 151.000
55.41923 168.000
55.43918 181.000
55.45913 177.000
55.47907 171.000
55.49902 176.000
55.51897 163.000
55.53891 182.000
55.55886 154.000
55.57881 174.000
55.59875 166.000
55.61870 165.000
55.63865 204.000
55.65860 151.000
55.67854 163.000
55.69849 163.000
55.71844 177.000
55.73838 178.000
55.75833 161.000
55.77828 180.000
55.79822 156.000
55.81817 148.000
55.83812 163.000
55.85807 205.000
55.87801 167.000
55.89796 192.000
55.91791 178.000
55.93785 167.000
55.95780 179.000
55.97775 170.000
55.99769 166.000
56.01764 171.000
56.03759 180.000
56.05753 158.000
56.07748 159.000
56.09743 144.000
56.11738 175.000
56.13732 176.000
56.15727 132.000
56.17722 163.000
56.19716 182.000
56.21711 161.000
56.23706 149.000
56.25700 185.000
56.27695 164.000
56.29690 156.000
56.31685 188.000
56.33679 183.000
56.35674 167.000
56.37669 157.000
56.39663 188.000
56.41658 164.000
56.43653 172.000
56.45647 168.000
56.47642 175.000
56.49637 187.000
56.51631 188.000
56.53626 186.000
56.55621 178.000
56.57616 182.000
56.59610 188.000
56.61605 179.000
56.63600 203.000
56.65594 169.000
56.67589 211.000
56.69584 201.000
56.71578 199.000
56.73573 176.000
56.75568 207.000
56.77563 201.000
56.79557 246.000
56.81552 218.000
56.83547 232.000
56.85541 221.000
56.87536 264.000
56.89531 273.000
56.91525 270.000
56.93520 300.000
56.95515 307.000
56.97510 360.000
56.99504 381.000
57.01499 444.000
57.03494 500.000
57.05488 567.000
57.07483 665.000
57.09478 675.000
57.11472 788.000
57.13467 756.000
57.15462 753.000
57.17456 647.000
57.19451 616.000
57.21446 577.000
57.23441 517.000
57.25435 525.000
57.27430 494.000
57.29425 479.000
57.31419 417.000
57.33414 407.000
57.35409 351.000
57.37403 292.000
57.39398 227.000
57.41393 227.000
57.43388 182.000
57.45382 210.000
57.47377 178.000
57.49372 193.000
57.51366 206.000
57.53361 182.000
57.55356 180.000
57.57350 191.000
57.59345 175.000
57.61340 175.000
57.63334 180.000
57.65329 179.000
57.67324 173.000
57.69319 169.000
57.71313 165.000
57.73308 181.000
57.75303 161.000
57.77297 151.000
57.79292 174.000
57.81287 159.000
57.83281 163.000
57.85276 184.000
57.87271 156.000
57.89266 150.000
57.91260 175.000
57.93255 171.000
57.95250 167.000
57.97244 168.000
57.99239 185.000
58.01234 199.000
58.03228 183.000
58.05223 183.000
58.07218 176.000
58.09212 174.000
58.11207 183.000
58.13202 179.000
58.15197 197.000
58.17191 181.000
58.19186 186.000
58.21181 201.000
58.23175 196.000
58.25170 174.000
58.27165 180.000
58.29159 161.000
58.31154 182.000
58.33149 171.000
58.35144 176.000
58.37138 159.000
58.39133 172.000
58.41128 153.000
58.43122 155.000
58.45117 153.000
58.47112 165.000
58.49106 164.000
58.51101 164.000
58.53096 148.000
58.55090 165.000
58.57085 153.000
58.59080 161.000
58.61075 177.000
58.63069 172.000
58.65064 166.000
58.67059 143.000
58.69053 167.000
58.71048 183.000
58.73043 171.000
58.75037 148.000
58.77032 173.000
58.79027 166.000
58.81022 149.000
58.83016 170.000
58.85011 164.000
58.87006 155.000
58.89000 178.000
58.90995 164.000
58.92990 180.000
58.94984 160.000
58.96979 179.000
58.98974 161.000
59.00969 188.000
59.02963 164.000
59.04958 173.000
59.06953 142.000
59.08947 163.000
59.10942 151.000
59.12937 157.000
59.14931 137.000
59.16926 167.000
59.18921 155.000
59.20915 156.000
59.22910 186.000
59.24905 155.000
59.26900 171.000
59.28894 166.000
59.30889 161.000
59.32884 156.000
59.34878 152.000
59.36873 153.000
59.38868 142.000
59.40862 156.000
59.42857 165.000
59.44852 161.000
59.46847 179.000
59.48841 171.000
59.50836 175.000
59.52831 170.000
59.54825 148.000
59.56820 178.000
59.58815 152.000
59.60809 180.000
59.62804 145.000
59.64799 158.000
59.66793 169.000
59.68788 181.000
59.70783 183.000
59.72778 134.000
59.74772 176.000
59.76767 191.000
59.78762 176.000
59.80756 172.000
59.82751 185.000
59.84746 150.000
59.86740 159.000
59.88735 185.000
59.90730 168.000
59.92725 185.000
59.94719 195.000
59.96714 184.000
59.98709 160.000
60.00703 184.000
60.02698 152.000
60.04693 182.000
60.06687 186.000
60.08682 160.000
60.10677 173.000
60.12671 184.000
60.14666 166.000
60.16661 157.000
60.18656 173.000
60.20650 154.000
60.22645 167.000
60.24640 169.000
60.26634 141.000
60.28629 171.000
60.30624 151.000
60.32618 176.000
60.34613 168.000
60.36608 166.000
60.38603 160.000
60.40597 204.000
60.42592 175.000
60.44587 155.000
60.46581 173.000
60.48576 155.000
60.50571 172.000
60.52565 167.000
60.54560 166.000
60.56555 180.000
60.58550 186.000
60.60544 157.000
60.62539 173.000
60.64534 179.000
60.66528 159.000
60.68523 181.000
60.70518 179.000
60.72512 167.000
60.74507 189.000
60.76502 186.000
60.78496 168.000
60.80491 169.000
60.82486 190.000
60.84481 201.000
60.86475 179.000
60.88470 158.000
60.90465 189.000
60.92459 190.000
60.94454 179.000
60.96449 173.000
60.98443 208.000
61.00438 207.000
61.02433 204.000
61.04428 159.000
61.06422 218.000
61.08417 178.000
61.10412 192.000
61.12406 216.000
61.14401 223.000
61.16396 200.000
61.18390 190.000
61.20385 205.000
61.22380 188.000
61.24374 199.000
61.26369 220.000
61.28364 217.000
61.30359 207.000
61.32353 209.000
61.34348 211.000
61.36343 205.000
61.38337 222.000
61.40332 220.000
61.42327 211.000
61.44321 225.000
61.46316 176.000
61.48311 209.000
61.50306 199.000
61.52300 210.000
61.54295 204.000
61.56290 191.000
61.58284 199.000
61.60279 204.000
61.62274 190.000
61.64268 207.000
61.66263 174.000
61.68258 182.000
61.70252 168.000
61.72247 171.000
61.74242 174.000
61.76237 215.000
61.78231 169.000
61.80226 188.000
61.82221 184.000
61.84215 197.000
61.86210 215.000
61.88205 173.000
61.90199 165.000
61.92194 177.000
61.94189 195.000
61.96184 206.000
61.98178 188.000
62.00173 190.000
62.02168 201.000
62.04162 184.000
62.06157 190.000
62.08152 172.000
62.10146 170.000
62.12141 217.000
62.14136 186.000
62.16131 174.000
62.18125 207.000
62.20120 185.000
62.22115 205.000
62.24109 194.000
62.26104 188.000
62.28099 221.000
62.30093 238.000
62.32088 214.000
62.34083 232.000
62.36077 212.000
62.38072 234.000
62.40067 222.000
62.42062 258.000
62.44056 273.000
62.46051 273.000
62.48046 242.000
62.50040 270.000
62.52035 322.000
62.54030 296.000
62.56024 346.000
62.58019 367.000
62.60014 404.000
62.62009 492.000
62.64003 524.000
62.65998 625.000
62.67993 682.000
62.69987 795.000
62.71982 930.000
62.73977 1004.000
62.75971 988.000
62.77966 1010.000
62.79961 935.000
62.81955 874.000
62.83950 780.000
62.85945 686.000
62.87940 679.000
62.89934 684.000
62.91929 587.000
62.93924 600.000
62.95918 560.000
62.97913 537.000
62.99908 472.000
63.01902 406.000
63.03897 304.000
63.05892 296.000
63.07887 237.000
63.09881 203.000
63.11876 204.000
63.13871 200.000
63.15865 178.000
63.17860 177.000
63.19855 176.000
63.21849 200.000
63.23844 163.000
63.25839 151.000
63.27833 158.000
63.29828 181.000
63.31823 167.000
63.33818 172.000
63.35812 164.000
63.37807 162.000
63.39802 159.000
63.41796 164.000
63.43791 152.000
63.45786 157.000
63.47780 181.000
63.49775 181.000
63.51770 144.000
63.53765 166.000
63.55759 187.000
63.57754 151.000
63.59749 154.000
63.61743 163.000
63.63738 177.000
63.65733 165.000
63.67727 155.000
63.69722 167.000
63.71717 178.000
63.73712 153.000
63.75706 176.000
63.77701 143.000
63.79696 165.000
63.81690 159.000
63.83685 140.000
63.85680 183.000
63.87674 164.000
63.89669 128.000
63.91664 177.000
63.93658 153.000
63.95653 172.000
63.97648 159.000
63.99643 174.000
64.01637 148.000
64.03632 158.000
64.05627 156.000
64.07621 153.000
64.09616 136.000
64.11611 137.000
64.13605 163.000
64.15600 174.000
64.17595 147.000
64.19590 141.000
64.21584 167.000
64.23579 164.000
64.25574 165.000
64.27568 144.000
64.29563 163.000
64.31558 139.000
64.33552 139.000
64.35547 141.000
64.37542 156.000
64.39536 140.000
64.41531 127.000
64.43526 171.000
64.45521 155.000
64.47515 153.000
64.49510 149.000
64.51505 142.000
64.53499 150.000
64.55494 151.000
64.57489 164.000
64.59483 154.000
64.61478 168.000
64.63473 156.000
64.65468 152.000
64.67462 153.000
64.69457 151.000
64.71452 149.000
64.73446 145.000
64.75441 159.000
64.77436 161.000
64.79430 141.000
64.81425 174.000
64.83420 168.000
64.85414 157.000
64.87409 158.000
64.89404 162.000
64.91399 137.000
64.93393 183.000
64.95388 164.000
64.97383 167.000
64.99377 148.000
65.01372 152.000
65.03367 167.000
65.05361 153.000
65.07356 158.000
65.09351 156.000
65.11346 177.000
65.13340 150.000
65.15335 166.000
65.17330 156.000
65.19324 176.000
65.21319 152.000
65.23314 149.000
65.25308 173.000
65.27303 164.000
65.29298 151.000
65.31293 135.000
65.33287 164.000
65.35282 156.000
65.37277 168.000
65.39271 163.000
65.41266 152.000
65.43261 169.000
65.45255 165.000
65.47250 173.000
65.49245 172.000
65.51239 169.000
65.53234 178.000
65.55229 174.000
65.57224 182.000
65.59218 198.000
65.61213 198.000
65.63208 214.000
65.65202 183.000
65.67197 186.000
65.69192 187.000
65.71186 160.000
65.73181 166.000
65.75176 187.000
65.77171 187.000
65.79165 195.000
65.81160 196.000
65.83155 182.000
65.85149 160.000
65.87144 197.000
65.89139 175.000
65.91133 193.000
65.93128 164.000
65.95123 196.000
65.97117 175.000
65.99112 179.000
66.01107 216.000
66.03102 184.000
66.05096 193.000
66.07091 156.000
66.09086 214.000
66.11080 184.000
66.13075 188.000
66.15070 187.000
66.17064 188.000
66.19059 193.000
66.21054 172.000
66.23049 188.000
66.25043 189.000
66.27038 182.000
66.29033 164.000
66.31027 159.000
66.33022 153.000
66.35017 182.000
66.37011 166.000
66.39006 153.000
66.41001 166.000
66.42995 164.000
66.44990 178.000
66.46985 163.000
66.48980 164.000
66.50974 155.000
66.52969 135.000
66.54964 153.000
66.56958 152.000
66.58953 153.000
66.60948 170.000
66.62942 132.000
66.64937 150.000
66.66932 146.000
66.68927 168.000
66.70921 152.000
66.72916 149.000
66.74911 149.000
66.76905 155.000
66.78900 164.000
66.80895 150.000
66.82889 171.000
66.84884 137.000
66.86879 149.000
66.88874 159.000
66.90868 150.000
66.92863 163.000
66.94858 136.000
66.96852 165.000
66.98847 145.000
67.00842 158.000
67.02836 171.000
67.04831 156.000
67.06826 140.000
67.08820 154.000
67.10815 143.000
67.12810 158.000
67.14805 158.000
67.16799 168.000
67.18794 165.000
67.20789 125.000
67.22783 142.000
67.24778 130.000
67.26773 138.000
67.28767 192.000
67.30762 143.000
67.32757 164.000
67.34752 147.000
67.36746 145.000
67.38741 143.000
67.40736 156.000
67.42730 170.000
67.44725 152.000
67.46720 163.000
67.48714 157.000
67.50709 170.000
67.52704 166.000
67.54698 152.000
67.56693 179.000
67.58688 144.000
67.60683 166.000
67.62677 162.000
67.64672 162.000
67.66667 162.000
67.68661 160.000
67.70656 165.000
67.72651 172.000
67.74645 184.000
67.76640 158.000
67.78635 169.000
67.80630 180.000
67.82624 164.000
67.84619 174.000
67.86614 174.000
67.88608 172.000
67.90603 179.000
67.92598 174.000
67.94592 163.000
67.96587 156.000
67.98582 157.000
68.00576 175.000
68.02571 178.000
68.04566 159.000
68.06561 148.000
68.08555 143.000
68.10550 163.000
68.12545 154.000
68.14539 166.000
68.16534 125.000
68.18529 136.000
68.20523 145.000
68.22518 137.000
68.24513 164.000
68.26508 151.000
68.28502 148.000
68.30497 163.000
68.32492 141.000
68.34486 147.000
68.36481 144.000
68.38476 138.000
68.40470 158.000
68.42465 130.000
68.44460 151.000
68.46455 167.000
68.48449 178.000
68.50444 133.000
68.52439 134.000
68.54433 176.000
68.56428 128.000
68.58423 147.000
68.60417 145.000
68.62412 151.000
68.64407 150.000
68.66401 145.000
68.68396 150.000
68.70391 138.000
68.72386 159.000
68.74380 145.000
68.76375 145.000
68.78370 132.000
68.80364 137.000
68.82359 147.000
68.84354 137.000
68.86348 151.000
68.88343 150.000
68.90338 150.000
68.92333 130.000
68.94327 141.000
68.96322 161.000
68.98317 154.000
69.00311 132.000
69.02306 160.000
69.04301 131.000
69.06295 142.000
69.08290 149.000
69.10285 150.000
69.12279 136.000
69.14274 154.000
69.16269 146.000
69.18264 134.000
69.20258 137.000
69.22253 142.000
69.24248 123.000
69.26242 139.000
69.28237 162.000
69.30232 167.000
69.32226 146.000
69.34221 142.000
69.36216 150.000
69.38211 145.000
69.40205 165.000
69.42200 132.000
69.44195 136.000
69.46189 131.000
69.48184 140.000
69.50179 150.000
69.52173 132.000
69.54168 132.000
69.56163 160.000
69.58157 158.000
69.60152 157.000
69.62147 156.000
69.64142 150.000
69.66136 146.000
69.68131 141.000
69.70126 138.000
69.72120 145.000
69.74115 133.000
69.76110 166.000
69.78104 132.000
69.80099 157.000
69.82094 149.000
69.84089 151.000
69.86083 125.000
69.88078 158.000
69.90073 128.000
69.92067 137.000
69.94062 109.000
69.96057 153.000
69.98051 134.000
70.00046 132.000
70.02041 158.000
70.04035 141.000
70.06030 150.000
70.08025 135.000
70.10020 147.000
70.12014 144.000
70.14009 145.000
70.16004 165.000
70.17998 161.000
70.19993 123.000
70.21988 144.000
70.23982 148.000
70.25977 129.000
70.27972 158.000
70.29967 138.000
70.31961 132.000
70.33956 161.000
70.35951 138.000
70.37945 157.000
70.39940 138.000
70.41935 136.000
70.43929 163.000
70.45924 146.000
70.47919 137.000
70.49914 150.000
70.51908 126.000
70.53903 165.000
70.55898 117.000
70.57892 150.000
70.59887 153.000
70.61882 144.000
70.63876 141.000
70.65871 137.000
70.67866 149.000
70.69860 157.000
70.71855 155.000
70.73850 150.000
70.75845 156.000
70.77839 164.000
70.79834 145.000
70.81829 142.000
70.83823 154.000
70.85818 149.000
70.87813 143.000
70.89807 176.000
70.91802 151.000
70.93797 171.000
70.95792 158.000
70.97786 155.000
70.99781 158.000
71.01776 153.000
71.03770 191.000
71.05765 149.000
71.07760 141.000
71.09754 181.000
71.11749 143.000
71.13744 185.000
71.15738 171.000
71.17733 195.000
71.19728 201.000
71.21723 203.000
71.23717 223.000
71.25712 205.000
71.27707 183.000
71.29701 209.000
71.31696 199.000
71.33691 182.000
71.35685 174.000
71.37680 182.000
71.39675 174.000
71.41670 179.000
71.43664 178.000
71.45659 178.000
71.47654 174.000
71.49648 192.000
71.51643 181.000
71.53638 162.000
71.55632 161.000
71.57627 155.000
71.59622 162.000
71.61616 160.000
71.63611 143.000
71.65606 156.000
71.67601 164.000
71.69595 139.000
71.71590 147.000
71.73585 140.000
71.75579 157.000
71.77574 151.000
71.79569 143.000
71.81563 143.000
71.83558 156.000
71.85553 155.000
71.87548 158.000
71.89542 131.000
71.91537 144.000
71.93532 150.000
71.95526 158.000
71.97521 137.000
71.99516 140.000
72.01510 171.000
72.03505 134.000
72.05500 127.000
72.07495 145.000
72.09489 140.000
72.11484 152.000
72.13479 134.000
72.15473 160.000
72.17468 158.000
72.19463 170.000
72.21457 155.000
72.23452 138.000
72.25447 152.000
72.27441 173.000
72.29436 155.000
72.31431 158.000
72.33426 153.000
72.35420 163.000
72.37415 148.000
72.39410 152.000
72.41404 139.000
72.43399 146.000
72.45394 159.000
72.47388 155.000
72.49383 148.000
72.51378 156.000
72.53373 161.000
72.55367 146.000
72.57362 159.000
72.59357 143.000
72.61351 165.000
72.63346 156.000
72.65341 155.000
72.67335 146.000
72.69330 133.000
72.71325 132.000
72.73319 134.000
72.75314 148.000
72.77309 151.000
72.79304 154.000
72.81298 136.000
72.83293 142.000
72.85288 135.000
72.87282 127.000
72.89277 129.000
72.91272 127.000
72.93266 144.000
72.95261 151.000
72.97256 129.000
72.99251 161.000
73.01245 149.000
73.03240 151.000
73.05235 146.000
73.07229 135.000
73.09224 138.000
73.11219 137.000
73.13213 145.000
73.15208 160.000
73.17203 153.000
73.19197 135.000
73.21192 144.000
73.23187 150.000
73.25182 153.000
73.27176 139.000
73.29171 143.000
73.31166 167.000
73.33160 146.000
73.35155 152.000
73.37150 144.000
73.39144 122.000
73.41139 145.000
73.43134 130.000
73.45129 154.000
73.47123 134.000
73.49118 140.000
73.51113 165.000
73.53107 142.000
73.55102 111.000
73.57097 155.000
73.59091 133.000
73.61086 136.000
73.63081 160.000
73.65076 124.000
73.67070 124.000
73.69065 155.000
73.71060 150.000
73.73054 130.000
73.75049 147.000
73.77044 128.000
73.79038 139.000
73.81033 167.000
73.83028 155.000
73.85022 129.000
73.87017 176.000
73.89012 154.000
73.91007 158.000
73.93001 175.000
73.94996 148.000
73.96991 160.000
73.98985 162.000
74.00980 154.000
74.02975 168.000
74.04969 164.000
74.06964 164.000
74.08959 180.000
74.10954 155.000
74.12948 175.000
74.14943 180.000
74.16938 212.000
74.18932 211.000
74.20927 259.000
74.22922 255.000
74.24916 243.000
74.26911 277.000
74.28906 291.000
74.30900 260.000
74.32895 287.000
74.34890 272.000
74.36885 253.000
74.38879 229.000
74.40874 204.000
74.42869 225.000
74.44863 239.000
74.46858 209.000
74.48853 209.000
74.50847 214.000
74.52842 220.000
74.54837 210.000
74.56832 220.000
74.58826 187.000
74.60821 177.000
74.62816 178.000
74.64810 148.000
74.66805 167.000
74.68800 185.000
74.70794 148.000
74.72789 159.000
74.74784 157.000
74.76778 157.000
74.78773 159.000
74.80768 157.000
74.82763 167.000
74.84757 141.000
74.86752 173.000
74.88747 158.000
74.90741 158.000
74.92736 147.000
74.94731 155.000
74.96725 169.000
74.98720 159.000
75.00715 186.000
75.02710 168.000
75.04704 168.000
75.06699 191.000
75.08694 149.000
75.10688 212.000
75.12683 195.000
75.14678 205.000
75.16672 174.000
75.18667 176.000
75.20662 214.000
75.22657 190.000
75.24651 189.000
75.26646 186.000
75.28641 199.000
75.30635 236.000
75.32630 210.000
75.34625 200.000
75.36619 185.000
75.38614 206.000
75.40609 184.000
75.42603 214.000
75.44598 187.000
75.46593 175.000
75.48588 169.000
75.50582 172.000
75.52577 142.000
75.54572 181.000
75.56566 176.000
75.58561 160.000
75.60556 170.000
75.62550 152.000
75.64545 142.000
75.66540 158.000
75.68535 145.000
75.70529 129.000
75.72524 146.000
75.74519 136.000
75.76513 157.000
75.78508 128.000
75.80503 128.000
75.82497 142.000
75.84492 137.000
75.86487 132.000
75.88481 143.000
75.90476 136.000
75.92471 139.000
75.94466 141.000
75.96460 163.000
75.98455 141.000
76.00450 127.000
76.02444 150.000
76.04439 144.000
76.06434 140.000
76.08428 156.000
76.10423 144.000
76.12418 140.000
76.14413 132.000
76.16407 131.000
76.18402 144.000
76.20397 154.000
76.22391 146.000
76.24386 133.000
76.26381 115.000
76.28375 132.000
76.30370 148.000
76.32365 135.000
76.34359 147.000
76.36354 143.000
76.38349 135.000
76.40344 144.000
76.42338 143.000
76.44333 141.000
76.46328 133.000
76.48322 139.000
76.50317 143.000
76.52312 142.000
76.54306 137.000
76.56301 144.000
76.58296 147.000
76.60291 156.000
76.62285 149.000
76.64280 137.000
76.66275 143.000
76.68269 145.000
76.70264 119.000
76.72259 134.000
76.74253 143.000
76.76248 132.000
76.78243 149.000
76.80238 138.000
76.82232 168.000
76.84227 161.000
76.86222 137.000
76.88216 147.000
76.90211 176.000
76.92206 145.000
76.94200 145.000
76.96195 140.000
76.98190 139.000
77.00184 133.000
77.02179 129.000
77.04174 139.000
77.06169 149.000
77.08163 137.000
77.10158 131.000
77.12153 141.000
77.14147 154.000
77.16142 153.000
77.18137 151.000
77.20131 123.000
77.22126 144.000
77.24121 153.000
77.26116 129.000
77.28110 125.000
77.30105 140.000
77.32100 133.000
77.34094 133.000
77.36089 146.000
77.38084 127.000
77.40078 141.000
77.42073 155.000
77.44068 116.000
77.46062 137.000
77.48057 135.000
77.50052 151.000
77.52047 146.000
77.54041 124.000
77.56036 149.000
77.58031 141.000
77.60025 120.000
77.62020 134.000
77.64015 128.000
77.66009 127.000
77.68004 148.000
77.69999 136.000
77.71994 129.000
77.73988 152.000
77.75983 143.000
77.77978 156.000
77.79972 132.000
77.81967 125.000
77.83962 149.000
77.85956 145.000
77.87951 136.000
77.89946 146.000
77.91940 145.000
77.93935 128.000
77.95930 132.000
77.97925 153.000
77.99919 143.000
78.01914 136.000
78.03909 149.000
78.05903 132.000
78.07898 124.000
78.09893 144.000
78.11887 145.000
78.13882 155.000
78.15877 127.000
78.17872 114.000
78.19866 120.000
78.21861 149.000
78.23856 133.000
78.25850 148.000
78.27845 141.000
78.29840 119.000
78.31834 138.000
78.33829 157.000
78.35824 141.000
78.37819 158.000
78.39813 136.000
78.41808 141.000
78.43803 150.000
78.45797 110.000
78.47792 135.000
78.49787 120.000
78.51781 143.000
78.53776 149.000
78.55771 153.000
78.57765 138.000
78.59760 149.000
78.61755 139.000
78.63750 144.000
78.65744 145.000
78.67739 157.000
78.69734 134.000
78.71728 128.000
78.73723 139.000
78.75718 151.000
78.77712 133.000
78.79707 114.000
78.81702 145.000
78.83697 112.000
78.85691 135.000
78.87686 141.000
78.89681 148.000
78.91675 141.000
78.93670 143.000
78.95665 154.000
78.97659 132.000
78.99654 147.000
79.01649 147.000
79.03643 142.000
79.05638 142.000
79.07633 155.000
79.09628 161.000
79.11622 152.000
79.13617 156.000
79.15612 178.000
79.17606 165.000
79.19601 132.000
79.21596 174.000
79.23590 173.000
79.25585 166.000
79.27580 164.000
79.29575 187.000
79.31569 179.000
79.33564 172.000
79.35559 197.000
79.37553 177.000
79.39548 187.000
79.41543 158.000
79.43537 156.000
79.45532 156.000
79.47527 151.000
79.49521 168.000
79.51516 165.000
79.53511 183.000
79.55506 144.000
79.57500 166.000
79.59495 155.000
79.61490 151.000
79.63484 158.000
79.65479 142.000
79.67474 144.000
79.69468 133.000
79.71463 155.000
79.73458 154.000
79.75453 120.000
79.77447 133.000
79.79442 135.000
79.81437 133.000
79.83431 120.000
79.85426 122.000
79.87421 136.000
79.89415 137.000
79.91410 163.000
79.93405 142.000
79.95399 122.000
79.97394 140.000
79.99389 147.000
80.01384 115.000
80.03378 122.000
80.05373 151.000
80.07368 148.000
80.09362 149.000
80.11357 140.000
80.13352 129.000
80.15346 136.000
80.17341 127.000
80.19336 153.000
80.21331 147.000
80.23325 120.000
80.25320 146.000
80.27315 153.000
80.29309 123.000
80.31304 120.000
80.33299 139.000
80.35293 153.000
80.37288 139.000
80.39283 156.000
80.41278 144.000
80.43272 122.000
80.45267 134.000
80.47262 126.000
80.49256 143.000
80.51251 142.000
80.53246 147.000
80.55240 124.000
80.57235 140.000
80.59230 147.000
80.61224 154.000
80.63219 157.000
80.65214 142.000
80.67209 148.000
80.69203 148.000
80.71198 153.000
80.73193 143.000
80.75187 141.000
80.77182 132.000
80.79177 162.000
80.81171 147.000
80.83166 108.000
80.85161 128.000
80.87156 127.000
80.89150 133.000
80.91145 150.000
80.93140 146.000
80.95134 125.000
80.97129 126.000
80.99124 131.000
81.01118 140.000
81.03113 120.000
81.05108 125.000
81.07102 116.000
81.09097 126.000
81.11092 113.000
81.13087 133.000
81.15081 140.000
81.17076 140.000
81.19071 134.000
81.21065 126.000
81.23060 146.000
81.25055 130.000
81.27049 141.000
81.29044 134.000
81.31039 138.000
81.33034 112.000
81.35028 133.000
81.37023 139.000
81.39018 155.000
81.41012 128.000
81.43007 123.000
81.45002 122.000
81.46996 138.000
81.48991 134.000
81.50986 152.000
81.52980 155.000
81.54975 134.000
81.56970 154.000
81.58965 127.000
81.60959 109.000
81.62954 137.000
81.64949 146.000
81.66943 156.000
81.68938 148.000
81.70933 145.000
81.72927 140.000
81.74922 136.000
81.76917 128.000
81.78912 148.000
81.80906 137.000
81.82901 134.000
81.84896 144.000
81.86890 137.000
81.88885 159.000
81.90880 143.000
81.92874 134.000
81.94869 153.000
81.96864 136.000
81.98859 120.000
82.00853 143.000
82.02848 135.000
82.04843 121.000
82.06837 147.000
82.08832 148.000
82.10827 151.000
82.12821 145.000
82.14816 154.000
82.16811 146.000
82.18805 156.000
82.20800 142.000
82.22795 158.000
82.24790 149.000
82.26784 161.000
82.28779 149.000
82.30774 159.000
82.32768 155.000
82.34763 152.000
82.36758 156.000
82.38752 137.000
82.40747 143.000
82.42742 145.000
82.44737 159.000
82.46731 140.000
82.48726 155.000
82.50721 160.000
82.52715 155.000
82.54710 136.000
82.56705 155.000
82.58699 157.000
82.60694 138.000
82.62689 142.000
82.64683 164.000
82.66678 154.000
82.68673 144.000
82.70668 126.000
82.72662 132.000
82.74657 144.000
82.76652 125.000
82.78646 114.000
82.80641 162.000
82.82636 140.000
82.84630 150.000
82.86625 129.000
82.88620 149.000
82.90615 123.000
82.92609 140.000
82.94604 156.000
82.96599 146.000
82.98593 162.000
83.00588 153.000
83.02583 146.000
83.04577 157.000
83.06572 151.000
83.08567 128.000
83.10561 163.000
83.12556 147.000
83.14551 176.000
83.16546 144.000
83.18540 130.000
83.20535 154.000
83.22530 139.000
83.24524 140.000
83.26519 137.000
83.28514 156.000
83.30508 138.000
83.32503 119.000
83.34498 141.000
83.36493 124.000
83.38487 174.000
83.40482 124.000
83.42477 141.000
83.44471 125.000
83.46466 149.000
83.48461 153.000
83.50455 119.000
83.52450 138.000
83.54445 151.000
83.56440 138.000
83.58434 130.000
83.60429 143.000
83.62424 136.000
83.64418 148.000
83.66413 127.000
83.68408 124.000
83.70402 120.000
83.72397 153.000
83.74392 138.000
83.76386 121.000
83.78381 159.000
83.80376 146.000
83.82371 152.000
83.84365 154.000
83.86360 140.000
83.88355 156.000
83.90349 140.000
83.92344 143.000
83.94339 129.000
83.96333 149.000
83.98328 119.000
84.00323 142.000
84.02318 134.000
84.04312 129.000
84.06307 96.000
84.08302 139.000
84.10296 130.000
84.12291 128.000
84.14286 132.000
84.16280 133.000
84.18275 135.000
84.20270 139.000
84.22264 139.000
84.24259 128.000
84.26254 134.000
84.28249 130.000
84.30243 130.000
84.32238 128.000
84.34233 165.000
84.36227 120.000
84.38222 121.000
84.40217 135.000
84.42211 153.000
84.44206 129.000
84.46201 135.000
84.48196 138.000
84.50190 142.000
84.52185 147.000
84.54180 145.000
84.56174 144.000
84.58169 141.000
84.60164 135.000
84.62158 136.000
84.64153 150.000
84.66148 133.000
84.68142 129.000
84.70137 121.000
84.72132 165.000
84.74127 146.000
84.76121 140.000
84.78116 129.000
84.80111 129.000
84.82105 144.000
84.84100 152.000
84.86095 129.000
84.88089 138.000
84.90084 154.000
84.92079 144.000
84.94074 132.000
84.96068 140.000
84.98063 128.000
85.00058 141.000
85.02052 139.000
85.04047 152.000
85.06042 145.000
85.08036 118.000
85.10031 149.000
85.12026 142.000
85.14021 141.000
85.16015 130.000
85.18010 134.000
85.20005 134.000
85.21999 132.000
85.23994 148.000
85.25989 146.000
85.27983 127.000
85.29978 152.000
85.31973 133.000
85.33967 131.000
85.35962 146.000
85.37957 156.000
85.39952 142.000
85.41946 136.000
85.43941 124.000
85.45936 147.000
85.47930 139.000
85.49925 142.000
85.51920 114.000
85.53914 140.000
85.55909 123.000
85.57904 164.000
85.59899 153.000
85.61893 138.000
85.63888 140.000
85.65883 149.000
85.67877 147.000
85.69872 154.000
85.71867 131.000
85.73861 147.000
85.75856 139.000
85.77851 152.000
85.79845 139.000
85.81840 161.000
85.83835 146.000
85.85830 133.000
85.87824 141.000
85.89819 154.000
85.91814 150.000
85.93808 135.000
85.95803 156.000
85.97798 144.000
85.99792 128.000
86.01787 141.000
86.03782 148.000
86.05777 141.000
86.07771 148.000
86.09766 159.000
86.11761 124.000
86.13755 131.000
86.15750 128.000
86.17745 143.000
86.19739 136.000
86.21734 117.000
86.23729 123.000
86.25723 122.000
86.27718 128.000
86.29713 158.000
86.31708 130.000
86.33702 137.000
86.35697 153.000
86.37692 132.000
86.39686 142.000
86.41681 147.000
86.43676 133.000
86.45670 126.000
86.47665 143.000
86.49660 140.000
86.51655 160.000
86.53649 135.000
86.55644 138.000
86.57639 135.000
86.59633 156.000
86.61628 137.000
86.63623 151.000
86.65617 147.000
86.67612 156.000
86.69607 125.000
86.71602 153.000
86.73596 126.000
86.75591 150.000
86.77586 137.000
86.79580 177.000
86.81575 151.000
86.83570 137.000
86.85564 126.000
86.87559 147.000
86.89554 146.000
86.91548 138.000
86.93543 138.000
86.95538 157.000
86.97533 144.000
86.99527 163.000
87.01522 179.000
87.03517 186.000
87.05511 183.000
87.07506 163.000
87.09501 171.000
87.11495 187.000
87.13490 192.000
87.15485 213.000
87.17480 186.000
87.19474 193.000
87.21469 211.000
87.23464 190.000
87.25458 171.000
87.27453 166.000
87.29448 178.000
87.31442 176.000
87.33437 162.000
87.35432 160.000
87.37426 175.000
87.39421 155.000
87.41416 145.000
87.43411 161.000
87.45405 164.000
87.47400 144.000
87.49395 159.000
87.51389 132.000
87.53384 145.000
87.55379 147.000
87.57373 129.000
87.59368 150.000
87.61363 146.000
87.63358 129.000
87.65352 159.000
87.67347 139.000
87.69342 122.000
87.71336 150.000
87.73331 135.000
87.75326 128.000
87.77320 147.000
87.79315 137.000
87.81310 137.000
87.83304 143.000
87.85299 156.000
87.87294 132.000
87.89289 142.000
87.91283 128.000
87.93278 141.000
87.95273 136.000
87.97267 136.000
87.99262 144.000
88.01257 140.000
88.03251 136.000
88.05246 138.000
88.07241 127.000
88.09236 147.000
88.11230 148.000
88.13225 135.000
88.15220 142.000
88.17214 113.000
88.19209 135.000
88.21204 135.000
88.23198 121.000
88.25193 140.000
88.27188 130.000
88.29183 154.000
88.31177 143.000
88.33172 127.000
88.35167 137.000
88.37161 137.000
88.39156 129.000
88.41151 154.000
88.43145 122.000
88.45140 130.000
88.47135 128.000
88.49129 130.000
88.51124 130.000
88.53119 129.000
88.55114 151.000
88.57108 132.000
88.59103 113.000
88.61098 140.000
88.63092 140.000
88.65087 141.000
88.67082 143.000
88.69076 153.000
88.71071 139.000
88.73066 118.000
88.75061 142.000
88.77055 137.000
88.79050 139.000
88.81045 126.000
88.83039 164.000
88.85034 134.000
88.87029 145.000
88.89023 133.000
88.91018 144.000
88.93013 146.000
88.95007 137.000
88.97002 143.000
88.98997 116.000
89.00992 129.000
89.02986 139.000
89.04981 148.000
89.06976 137.000
89.08970 130.000
89.10965 135.000
89.12960 133.000
89.14954 137.000
89.16949 152.000
89.18944 135.000
89.20939 122.000
89.22933 140.000
89.24928 145.000
89.26923 140.000
89.28917 143.000
89.30912 134.000
89.32907 141.000
89.34901 149.000
89.36896 120.000
89.38891 157.000
89.40885 146.000
89.42880 151.000
89.44875 130.000
89.46870 154.000
89.48864 146.000
89.50859 147.000
89.52854 142.000
89.54848 133.000
89.56843 142.000
89.58838 154.000
89.60832 154.000
89.62827 170.000
89.64822 164.000
89.66817 151.000
89.68811 143.000
89.70806 143.000
89.72801 145.000
89.74795 167.000
89.76790 156.000
89.78785 164.000
89.80779 178.000
89.82774 170.000
89.84769 190.000
89.86764 183.000
89.88758 192.000
89.90753 177.000
89.92748 234.000
89.94742 211.000
89.96737 245.000
89.98732 287.000
90.00726 249.000
