10.00000 186.000
10.01995 149.000
10.03989 181.000
10.05984 185.000
10.07979 184.000
10.09973 198.000
10.11968 177.000
10.13963 177.000
10.15958 167.000
10.17952 176.000
10.19947 173.000
10.21942 177.000
10.23936 170.000
10.25931 187.000
10.27926 146.000
10.29920 187.000
10.31915 175.000
10.33910 183.000
10.35905 189.000
10.37899 165.000
10.39894 180.000
10.41889 167.000
10.43883 141.000
10.45878 185.000
10.47873 173.000
10.49867 174.000
10.51862 159.000
10.53857 174.000
10.55851 190.000
10.57846 200.000
10.59841 166.000
10.61836 176.000
10.63830 158.000
10.65825 179.000
10.67820 170.000
10.69814 185.000
10.71809 189.000
10.73804 179.000
10.75798 155.000
10.77793 173.000
10.79788 175.000
10.81783 186.000
10.83777 165.000
10.85772 195.000
10.87767 156.000
10.89761 194.000
10.91756 175.000
10.93751 176.000
10.95745 182.000
10.97740 150.000
10.99735 187.000
11.01730 167.000
11.03724 203.000
11.05719 205.000
11.07714 191.000
11.09708 196.000
11.11703 194.000
11.13698 179.000
11.15692 174.000
11.17687 167.000
11.19682 194.000
11.21676 199.000
11.23671 210.000
11.25666 196.000
11.27661 181.000
11.29655 172.000
11.31650 174.000
11.33645 196.000
11.35639 173.000
11.37634 177.000
11.39629 169.000
11.41623 199.000
11.43618 193.000
11.45613 191.000
11.47608 181.000
11.49602 173.000
11.51597 166.000
11.53592 168.000
11.55586 178.000
11.57581 194.000
11.59576 188.000
11.61570 200.000
11.63565 175.000
11.65560 186.000
11.67554 154.000
11.69549 210.000
11.71544 182.000
11.73539 209.000
11.75533 185.000
11.77528 178.000
11.79523 183.000
11.81517 182.000
11.83512 180.000
11.85507 170.000
11.87501 168.000
11.89496 187.000
11.91491 196.000
11.93486 177.000
11.95480 180.000
11.97475 183.000
11.99470 178.000
12.01464 165.000
12.03459 178.000
12.05454 208.000
12.07448 166.000
12.09443 194.000
12.11438 173.000
12.13432 180.000
12.15427 187.000
12.17422 183.000
12.19417 189.000
12.21411 169.000
12.23406 182.000
12.25401 167.000
12.27395 181.000
12.29390 177.000
12.31385 162.000
12.33379 187.000
12.35374 195.000
12.37369 206.000
12.39364 194.000
12.41358 187.000
12.43353 171.000
12.45348 188.000
12.47342 165.000
12.49337 176.000
12.51332 196.000
12.53326 180.000
12.55321 182.000
12.57316 183.000
12.59311 193.000
12.61305 195.000
12.63300 186.000
12.65295 187.000
12.67289 186.000
12.69284 172.000
12.71279 176.000
12.73273 176.000
12.75268 188.000
12.77263 181.000
12.79257 190.000
12.81252 165.000
12.83247 190.000
12.85242 209.000
12.87236 208.000
12.89231 181.000
12.91226 178.000
12.93220 202.000
12.95215 183.000
12.97210 190.000
12.99204 182.000
13.01199 164.000
13.03194 185.000
13.05189 170.000
13.07183 169.000
13.09178 187.000
13.11173 194.000
13.13167 173.000
13.15162 203.000
13.17157 211.000
13.19151 198.000
13.21146 211.000
13.23141 163.000
13.25135 184.000
13.27130 170.000
13.29125 191.000
13.31120 185.000
13.33114 194.000
13.35109 205.000
13.37104 168.000
13.39098 183.000
13.41093 159.000
13.43088 189.000
13.45082 188.000
13.47077 181.000
13.49072 186.000
13.51067 180.000
13.53061 185.000
13.55056 182.000
13.57051 183.000
13.59045 198.000
13.61040 159.000
13.63035 200.000
13.65029 184.000
13.67024 176.000
13.69019 184.000
13.71013 181.000
13.73008 170.000
13.75003 171.000
13.76998 173.000
13.78992 211.000
13.80987 170.000
13.82982 200.000
13.84976 193.000
13.86971 192.000
13.88966 171.000
13.90960 183.000
13.92955 191.000
13.94950 193.000
13.96945 177.000
13.98939 174.000
14.00934 185.000
14.02929 186.000
14.04923 183.000
14.06918 204.000
14.08913 162.000
14.10907 190.000
14.12902 192.000
14.14897 185.000
14.16892 168.000
14.18886 182.000
14.20881 187.000
14.22876 189.000
14.24870 178.000
14.26865 167.000
14.28860 183.000
14.30854 186.000
14.32849 220.000
14.34844 200.000
14.36838 163.000
14.38833 164.000
14.40828 200.000
14.42823 181.000
14.44817 197.000
14.46812 164.000
14.48807 144.000
14.50801 203.000
14.52796 191.000
14.54791 194.000
14.56785 174.000
14.58780 191.000
14.60775 208.000
14.62770 198.000
14.64764 194.000
14.66759 191.000
14.68754 201.000
14.70748 217.000
14.72743 196.000
14.74738 204.000
14.76732 187.000
14.78727 190.000
14.80722 195.000
14.82716 207.000
14.84711 224.000
14.86706 189.000
14.88701 171.000
14.90695 181.000
14.92690 186.000
14.94685 185.000
14.96679 183.000
14.98674 179.000
15.00669 175.000
15.02663 192.000
15.04658 193.000
15.06653 155.000
15.08648 181.000
15.10642 184.000
15.12637 194.000
15.14632 173.000
15.16626 186.000
15.18621 181.000
15.20616 190.000
15.22610 178.000
15.24605 187.000
15.26600 184.000
15.28594 197.000
15.30589 208.000
15.32584 193.000
15.34579 197.000
15.36573 191.000
15.38568 195.000
15.40563 205.000
15.42557 169.000
15.44552 201.000
15.46547 190.000
15.48541 199.000
15.50536 206.000
15.52531 218.000
15.54526 197.000
15.56520 210.000
15.58515 193.000
15.60510 204.000
15.62504 222.000
15.64499 202.000
15.66494 226.000
15.68488 224.000
15.70483 199.000
15.72478 234.000
15.74472 221.000
15.76467 241.000
15.78462 237.000
15.80457 257.000
15.82451 242.000
15.84446 328.000
15.86441 363.000
15.88435 503.000
15.90430 579.000
15.92425 700.000
15.94419 847.000
15.96414 799.000
15.98409 673.000
16.00404 481.000
16.02398 384.000
16.04393 295.000
16.06388 285.000
16.08382 292.000
16.10377 309.000
16.12372 339.000
16.14366 359.000
16.16361 425.000
16.18356 452.000
16.20351 518.000
16.22345 624.000
16.24340 696.000
16.26335 805.000
16.28329 892.000
16.30324 1066.000
16.32319 1179.000
16.34313 1295.000
16.36308 1367.000
16.38303 1378.000
16.40297 1523.000
16.42292 1619.000
16.44287 1592.000
16.46282 1467.000
16.48276 1290.000
16.50271 1085.000
16.52266 889.000
16.54260 730.000
16.56255 515.000
16.58250 394.000
16.60244 293.000
16.62239 248.000
16.64234 215.000
16.66229 211.000
16.68223 221.000
16.70218 201.000
16.72213 222.000
16.74207 221.000
16.76202 211.000
16.78197 267.000
16.80191 206.000
16.82186 198.000
16.84181 195.000
16.86175 221.000
16.88170 218.000
16.90165 201.000
16.92160 189.000
16.94154 222.000
16.96149 199.000
16.98144 217.000
17.00138 209.000
17.02133 226.000
17.04128 225.000
17.06122 199.000
17.08117 202.000
17.10112 215.000
17.12107 217.000
17.14101 184.000
17.16096 205.000
17.18091 240.000
17.20085 218.000
17.22080 190.000
17.24075 184.000
17.26069 185.000
17.28064 195.000
17.30059 206.000
17.32053 205.000
17.34048 198.000
17.36043 216.000
17.38038 200.000
17.40032 215.000
17.42027 217.000
17.44022 181.000
17.46016 194.000
17.48011 168.000
17.50006 181.000
17.52000 197.000
17.53995 200.000
17.55990 162.000
17.57985 188.000
17.59979 200.000
17.61974 193.000
17.63969 196.000
17.65963 202.000
17.67958 220.000
17.69953 176.000
17.71947 204.000
17.73942 201.000
17.75937 186.000
17.77932 193.000
17.79926 184.000
17.81921 189.000
17.83916 212.000
17.85910 185.000
17.87905 187.000
17.89900 215.000
17.91894 167.000
17.93889 183.000
17.95884 218.000
17.97878 203.000
17.99873 183.000
18.01868 181.000
18.03863 196.000
18.05857 191.000
18.07852 181.000
18.09847 172.000
18.11841 197.000
18.13836 213.000
18.15831 177.000
18.17825 199.000
18.19820 176.000
18.21815 192.000
18.23810 218.000
18.25804 170.000
18.27799 196.000
18.29794 201.000
18.31788 185.000
18.33783 206.000
18.35778 218.000
18.37772 239.000
18.39767 273.000
18.41762 288.000
18.43756 390.000
18.45751 311.000
18.47746 296.000
18.49741 284.000
18.51735 219.000
18.53730 227.000
18.55725 183.000
18.57719 197.000
18.59714 202.000
18.61709 189.000
18.63703 200.000
18.65698 200.000
18.67693 193.000
18.69688 181.000
18.71682 206.000
18.73677 206.000
18.75672 183.000
18.77666 189.000
18.79661 189.000
18.81656 170.000
18.83650 198.000
18.85645 219.000
18.87640 208.000
18.89634 228.000
18.91629 212.000
18.93624 186.000
18.95619 215.000
18.97613 177.000
18.99608 173.000
19.01603 196.000
19.03597 178.000
19.05592 187.000
19.07587 195.000
19.09581 191.000
19.11576 197.000
19.13571 192.000
19.15566 177.000
19.17560 195.000
19.19555 223.000
19.21550 177.000
19.23544 211.000
19.25539 198.000
19.27534 202.000
19.29528 190.000
19.31523 208.000
19.33518 197.000
19.35513 201.000
19.37507 211.000
19.39502 191.000
19.41497 196.000
19.43491 196.000
19.45486 177.000
19.47481 201.000
19.49475 218.000
19.51470 196.000
19.53465 167.000
19.55459 196.000
19.57454 177.000
19.59449 211.000
19.61444 206.000
19.63438 193.000
19.65433 175.000
19.67428 190.000
19.69422 164.000
19.71417 193.000
19.73412 185.000
19.75406 195.000
19.77401 205.000
19.79396 203.000
19.81391 207.000
19.83385 174.000
19.85380 182.000
19.87375 193.000
19.89369 204.000
19.91364 186.000
19.93359 206.000
19.95353 214.000
19.97348 217.000
19.99343 176.000
20.01337 203.000
20.03332 219.000
20.05327 226.000
20.07322 203.000
20.09316 180.000
20.11311 218.000
20.13306 199.000
20.15300 199.000
20.17295 195.000
20.19290 200.000
20.21284 177.000
20.23279 207.000
20.25274 193.000
20.27269 188.000
20.29263 215.000
20.31258 153.000
20.33253 191.000
20.35247 174.000
20.37242 203.000
20.39237 216.000
20.41231 212.000
20.43226 208.000
20.45221 199.000
20.47215 220.000
20.49210 194.000
20.51205 212.000
20.53200 246.000
20.55194 252.000
20.57189 256.000
20.59184 284.000
20.61178 269.000
20.63173 263.000
20.65168 284.000
20.67162 265.000
20.69157 316.000
20.71152 298.000
20.73147 301.000
20.75141 305.000
20.77136 349.000
20.79131 375.000
20.81125 449.000
20.83120 523.000
20.85115 564.000
20.87109 600.000
20.89104 606.000
20.91099 533.000
20.93094 517.000
20.95088 507.000
20.97083 397.000
20.99078 387.000
21.01072 336.000
21.03067 317.000
21.05062 290.000
21.07056 284.000
21.09051 235.000
21.11046 222.000
21.13040 238.000
21.15035 229.000
21.17030 230.000
21.19025 239.000
21.21019 193.000
21.23014 201.000
21.25009 196.000
21.27003 191.000
21.28998 189.000
21.30993 191.000
21.32987 175.000
21.34982 182.000
21.36977 198.000
21.38972 207.000
21.40966 213.000
21.42961 204.000
21.44956 218.000
21.46950 186.000
21.48945 220.000
21.50940 208.000
21.52934 192.000
21.54929 204.000
21.56924 197.000
21.58918 199.000
21.60913 208.000
21.62908 182.000
21.64903 186.000
21.66897 193.000
21.68892 204.000
21.70887 224.000
21.72881 188.000
21.74876 222.000
21.76871 205.000
21.78865 181.000
21.80860 196.000
21.82855 198.000
21.84850 212.000
21.86844 188.000
21.88839 179.000
21.90834 192.000
21.92828 208.000
21.94823 200.000
21.96818 194.000
21.98812 201.000
22.00807 181.000
22.02802 178.000
22.04796 188.000
22.06791 213.000
22.08786 185.000
22.10781 196.000
22.12775 214.000
22.14770 208.000
22.16765 210.000
22.18759 216.000
22.20754 208.000
22.22749 186.000
22.24743 209.000
22.26738 200.000
22.28733 206.000
22.30728 207.000
22.32722 213.000
22.34717 193.000
22.36712 204.000
22.38706 193.000
22.40701 226.000
22.42696 176.000
22.44690 208.000
22.46685 210.000
22.48680 202.000
22.50675 211.000
22.52669 208.000
22.54664 202.000
22.56659 206.000
22.58653 211.000
22.60648 194.000
22.62643 209.000
22.64637 192.000
22.66632 213.000
22.68627 209.000
22.70621 205.000
22.72616 207.000
22.74611 190.000
22.76606 185.000
22.78600 221.000
22.80595 193.000
22.82590 225.000
22.84584 222.000
22.86579 188.000
22.88574 172.000
22.90568 191.000
22.92563 197.000
22.94558 200.000
22.96553 174.000
22.98547 213.000
23.00542 198.000
23.02537 197.000
23.04531 181.000
23.06526 185.000
23.08521 226.000
23.10515 212.000
23.12510 204.000
23.14505 204.000
23.16499 184.000
23.18494 200.000
23.20489 188.000
23.22484 214.000
23.24478 206.000
23.26473 216.000
23.28468 185.000
23.30462 209.000
23.32457 214.000
23.34452 177.000
23.36446 198.000
23.38441 182.000
23.40436 199.000
23.42431 205.000
23.44425 196.000
23.46420 199.000
23.48415 197.000
23.50409 200.000
23.52404 248.000
23.54399 205.000
23.56393 220.000
23.58388 207.000
23.60383 211.000
23.62377 184.000
23.64372 208.000
23.66367 198.000
23.68362 182.000
23.70356 221.000
23.72351 210.000
23.74346 207.000
23.76340 204.000
23.78335 191.000
23.80330 189.000
23.82324 229.000
23.84319 200.000
23.86314 189.000
23.88309 203.000
23.90303 235.000
23.92298 183.000
23.94293 197.000
23.96287 191.000
23.98282 186.000
24.00277 201.000
24.02271 183.000
24.04266 202.000
24.06261 189.000
24.08256 225.000
24.10250 225.000
24.12245 210.000
24.14240 228.000
24.16234 223.000
24.18229 211.000
24.20224 211.000
24.22218 227.000
24.24213 205.000
24.26208 213.000
24.28202 195.000
24.30197 202.000
24.32192 212.000
24.34187 219.000
24.36181 193.000
24.38176 201.000
24.40171 189.000
24.42165 223.000
24.44160 222.000
24.46155 179.000
24.48149 188.000
24.50144 200.000
24.52139 217.000
24.54134 195.000
24.56128 209.000
24.58123 189.000
24.60118 184.000
24.62112 225.000
24.64107 178.000
24.66102 220.000
24.68096 214.000
24.70091 190.000
24.72086 231.000
24.74080 210.000
24.76075 212.000
24.78070 213.000
24.80065 204.000
24.82059 219.000
24.84054 174.000
24.86049 218.000
24.88043 208.000
24.90038 199.000
24.92033 205.000
24.94027 224.000
24.96022 238.000
24.98017 221.000
25.00012 179.000
25.02006 196.000
25.04001 205.000
25.05996 236.000
25.07990 210.000
25.09985 207.000
25.11980 209.000
25.13974 213.000
25.15969 201.000
25.17964 223.000
25.19958 207.000
25.21953 203.000
25.23948 210.000
25.25943 211.000
25.27937 216.000
25.29932 223.000
25.31927 220.000
25.33921 235.000
25.35916 214.000
25.37911 231.000
25.39905 223.000
25.41900 210.000
25.43895 218.000
25.45890 227.000
25.47884 213.000
25.49879 222.000
25.51874 214.000
25.53868 204.000
25.55863 200.000
25.57858 220.000
25.59852 203.000
25.61847 211.000
25.63842 223.000
25.65837 221.000
25.67831 197.000
25.69826 201.000
25.71821 202.000
25.73815 211.000
25.75810 187.000
25.77805 205.000
25.79799 194.000
25.81794 229.000
25.83789 187.000
25.85783 217.000
25.87778 208.000
25.89773 211.000
25.91768 193.000
25.93762 215.000
25.95757 195.000
25.97752 224.000
25.99746 206.000
26.01741 230.000
26.03736 194.000
26.05730 211.000
26.07725 221.000
26.09720 244.000
26.11715 204.000
26.13709 195.000
26.15704 197.000
26.17699 231.000
26.19693 221.000
26.21688 218.000
26.23683 210.000
26.25677 177.000
26.27672 190.000
26.29667 199.000
26.31661 209.000
26.33656 239.000
26.35651 183.000
26.37646 211.000
26.39640 204.000
26.41635 202.000
26.43630 215.000
26.45624 224.000
26.47619 230.000
26.49614 204.000
26.51608 187.000
26.53603 221.000
26.55598 212.000
26.57593 219.000
26.59587 222.000
26.61582 198.000
26.63577 204.000
26.65571 221.000
26.67566 197.000
26.69561 209.000
26.71555 207.000
26.73550 188.000
26.75545 213.000
26.77539 207.000
26.79534 218.000
26.81529 210.000
26.83524 229.000
26.85518 218.000
26.87513 236.000
26.89508 254.000
26.91502 218.000
26.93497 226.000
26.95492 242.000
26.97486 237.000
26.99481 199.000
27.01476 223.000
27.03471 232.000
27.05465 200.000
27.07460 221.000
27.09455 230.000
27.11449 234.000
27.13444 208.000
27.15439 249.000
27.17433 210.000
27.19428 229.000
27.21423 205.000
27.23417 210.000
27.25412 205.000
27.27407 209.000
27.29402 195.000
27.31396 206.000
27.33391 229.000
27.35386 223.000
27.37380 200.000
27.39375 200.000
27.41370 203.000
27.43364 218.000
27.45359 215.000
27.47354 218.000
27.49349 206.000
27.51343 196.000
27.53338 215.000
27.55333 231.000
27.57327 232.000
27.59322 207.000
27.61317 221.000
27.63311 221.000
27.65306 217.000
27.67301 197.000
27.69296 212.000
27.71290 203.000
27.73285 213.000
27.75280 222.000
27.77274 208.000
27.79269 218.000
27.81264 246.000
27.83258 224.000
27.85253 199.000
27.87248 225.000
27.89242 239.000
27.91237 258.000
27.93232 188.000
27.95227 210.000
27.97221 220.000
27.99216 212.000
28.01211 229.000
28.03205 218.000
28.05200 225.000
28.07195 225.000
28.09189 233.000
28.11184 247.000
28.13179 214.000
28.15174 212.000
28.17168 206.000
28.19163 225.000
28.21158 212.000
28.23152 232.000
28.25147 226.000
28.27142 227.000
28.29136 236.000
28.31131 214.000
28.33126 201.000
28.35120 218.000
28.37115 206.000
28.39110 244.000
28.41105 223.000
28.43099 234.000
28.45094 206.000
28.47089 211.000
28.49083 228.000
28.51078 210.000
28.53073 210.000
28.55067 207.000
28.57062 224.000
28.59057 224.000
28.61052 229.000
28.63046 224.000
28.65041 257.000
28.67036 212.000
28.69030 204.000
28.71025 217.000
28.73020 214.000
28.75014 223.000
28.77009 217.000
28.79004 208.000
28.80998 217.000
28.82993 230.000
28.84988 256.000
28.86983 251.000
28.88977 229.000
28.90972 208.000
28.92967 201.000
28.94961 212.000
28.96956 223.000
28.98951 238.000
29.00945 220.000
29.02940 214.000
29.04935 247.000
29.06930 237.000
29.08924 208.000
29.10919 214.000
29.12914 233.000
29.14908 231.000
29.16903 263.000
29.18898 231.000
29.20892 226.000
29.22887 231.000
29.24882 212.000
29.26877 248.000
29.28871 230.000
29.30866 236.000
29.32861 241.000
29.34855 258.000
29.36850 252.000
29.38845 225.000
29.40839 225.000
29.42834 249.000
29.44829 240.000
29.46823 247.000
29.48818 249.000
29.50813 259.000
29.52808 258.000
29.54802 253.000
29.56797 216.000
29.58792 259.000
29.60786 243.000
29.62781 242.000
29.64776 252.000
29.66770 221.000
29.68765 248.000
29.70760 250.000
29.72755 227.000
29.74749 252.000
29.76744 237.000
29.78739 247.000
29.80733 232.000
29.82728 226.000
29.84723 209.000
29.86717 235.000
29.88712 237.000
29.90707 246.000
29.92701 277.000
29.94696 217.000
29.96691 214.000
29.98686 262.000
30.00680 239.000
30.02675 258.000
30.04670 236.000
30.06664 222.000
30.08659 222.000
30.10654 247.000
30.12648 239.000
30.14643 257.000
30.16638 250.000
30.18633 263.000
30.20627 278.000
30.22622 324.000
30.24617 325.000
30.26611 501.000
30.28606 558.000
30.30601 526.000
30.32595 450.000
30.34590 408.000
30.36585 439.000
30.38579 415.000
30.40574 320.000
30.42569 272.000
30.44564 278.000
30.46558 252.000
30.48553 249.000
30.50548 239.000
30.52542 247.000
30.54537 243.000
30.56532 259.000
30.58526 269.000
30.60521 235.000
30.62516 225.000
30.64511 272.000
30.66505 221.000
30.68500 252.000
30.70495 265.000
30.72489 236.000
30.74484 237.000
30.76479 261.000
30.78473 225.000
30.80468 216.000
30.82463 240.000
30.84458 254.000
30.86452 235.000
30.88447 234.000
30.90442 221.000
30.92436 218.000
30.94431 227.000
30.96426 243.000
30.98420 238.000
31.00415 257.000
31.02410 253.000
31.04404 253.000
31.06399 242.000
31.08394 203.000
31.10389 220.000
31.12383 210.000
31.14378 229.000
31.16373 223.000
31.18367 232.000
31.20362 259.000
31.22357 215.000
31.24351 238.000
31.26346 236.000
31.28341 214.000
31.30336 227.000
31.32330 261.000
31.34325 219.000
31.36320 231.000
31.38314 242.000
31.40309 236.000
31.42304 238.000
31.44298 247.000
31.46293 243.000
31.48288 228.000
31.50282 232.000
31.52277 231.000
31.54272 226.000
31.56267 211.000
31.58261 252.000
31.60256 236.000
31.62251 228.000
31.64245 214.000
31.66240 238.000
31.68235 208.000
31.70229 251.000
31.72224 259.000
31.74219 215.000
31.76214 220.000
31.78208 256.000
31.80203 223.000
31.82198 243.000
31.84192 236.000
31.86187 249.000
31.88182 210.000
31.90176 232.000
31.92171 231.000
31.94166 248.000
31.96160 231.000
31.98155 248.000
32.00150 272.000
32.02145 248.000
32.04139 250.000
32.06134 250.000
32.08129 248.000
32.10123 296.000
32.12118 295.000
32.14113 278.000
32.16107 275.000
32.18102 307.000
32.20097 276.000
32.22092 269.000
32.24086 263.000
32.26081 249.000
32.28076 251.000
32.30070 280.000
32.32065 272.000
32.34060 285.000
32.36054 267.000
32.38049 274.000
32.40044 266.000
32.42039 277.000
32.44033 280.000
32.46028 313.000
32.48023 304.000
32.50017 335.000
32.52012 372.000
32.54007 409.000
32.56001 403.000
32.57996 390.000
32.59991 366.000
32.61985 360.000
32.63980 310.000
32.65975 333.000
32.67970 304.000
32.69964 274.000
32.71959 286.000
32.73954 280.000
32.75948 310.000
32.77943 275.000
32.79938 296.000
32.81932 286.000
32.83927 305.000
32.85922 306.000
32.87917 303.000
32.89911 316.000
32.91906 292.000
32.93901 311.000
32.95895 305.000
32.97890 287.000
32.99885 327.000
33.01879 342.000
33.03874 337.000
33.05869 343.000
33.07863 359.000
33.09858 359.000
33.11853 354.000
33.13848 353.000
33.15842 363.000
33.17837 341.000
33.19832 380.000
33.21826 356.000
33.23821 337.000
33.25816 343.000
33.27810 350.000
33.29805 332.000
33.31800 353.000
33.33795 335.000
33.35789 315.000
33.37784 305.000
33.39779 290.000
33.41773 280.000
33.43768 293.000
33.45763 321.000
33.47757 272.000
33.49752 266.000
33.51747 303.000
33.53741 275.000
33.55736 277.000
33.57731 277.000
33.59726 284.000
33.61720 263.000
33.63715 265.000
33.65710 262.000
33.67704 276.000
33.69699 279.000
33.71694 245.000
33.73688 238.000
33.75683 261.000
33.77678 257.000
33.79673 264.000
33.81667 288.000
33.83662 259.000
33.85657 255.000
33.87651 282.000
33.89646 279.000
33.91641 286.000
33.93635 284.000
33.95630 300.000
33.97625 311.000
33.99620 296.000
34.01614 312.000
34.03609 288.000
34.05604 291.000
34.07598 301.000
34.09593 315.000
34.11588 325.000
34.13582 346.000
34.15577 363.000
34.17572 388.000
34.19566 434.000
34.21561 411.000
34.23556 426.000
34.25551 508.000
34.27545 496.000
34.29540 560.000
34.31535 550.000
34.33529 519.000
34.35524 565.000
34.37519 575.000
34.39513 552.000
34.41508 526.000
34.43503 507.000
34.45498 497.000
34.47492 481.000
34.49487 471.000
34.51482 415.000
34.53476 418.000
34.55471 366.000
34.57466 349.000
34.59460 332.000
34.61455 328.000
34.63450 331.000
34.65444 333.000
34.67439 339.000
34.69434 311.000
34.71429 310.000
34.73423 317.000
34.75418 272.000
34.77413 309.000
34.79407 317.000
34.81402 311.000
34.83397 282.000
34.85391 290.000
34.87386 285.000
34.89381 286.000
34.91376 278.000
34.93370 288.000
34.95365 317.000
34.97360 270.000
34.99354 315.000
35.01349 322.000
35.03344 349.000
35.05338 340.000
35.07333 334.000
35.09328 298.000
35.11322 371.000
35.13317 362.000
35.15312 401.000
35.17307 348.000
35.19301 387.000
35.21296 398.000
35.23291 405.000
35.25285 392.000
35.27280 439.000
35.29275 451.000
35.31269 462.000
35.33264 469.000
35.35259 505.000
35.37254 473.000
35.39248 569.000
35.41243 616.000
35.43238 771.000
35.45232 965.000
35.47227 1172.000
35.49222 1323.000
35.51216 1317.000
35.53211 1406.000
35.55206 1708.000
35.57201 2146.000
35.59195 2245.000
35.61190 2091.000
35.63185 1980.000
35.65179 2255.000
35.67174 2464.000
35.69169 2079.000
35.71163 1533.000
35.73158 1354.000
35.75153 1209.000
35.77147 1094.000
35.79142 873.000
35.81137 677.000
35.83132 534.000
35.85126 483.000
35.87121 413.000
35.89116 392.000
35.91110 354.000
35.93105 353.000
35.95100 358.000
35.97094 311.000
35.99089 318.000
36.01084 350.000
36.03079 297.000
36.05073 320.000
36.07068 312.000
36.09063 289.000
36.11057 264.000
36.13052 313.000
36.15047 298.000
36.17041 281.000
36.19036 283.000
36.21031 267.000
36.23025 282.000
36.25020 277.000
36.27015 267.000
36.29010 277.000
36.31004 292.000
36.32999 336.000
36.34994 341.000
36.36988 360.000
36.38983 354.000
36.40978 357.000
36.42972 379.000
36.44967 449.000
36.46962 414.000
36.48957 442.000
36.50951 445.000
36.52946 514.000
36.54941 485.000
36.56935 500.000
36.58930 476.000
36.60925 477.000
36.62919 444.000
36.64914 455.000
36.66909 504.000
36.68903 391.000
36.70898 400.000
36.72893 394.000
36.74888 346.000
36.76882 388.000
36.78877 363.000
36.80872 376.000
36.82866 337.000
36.84861 334.000
36.86856 326.000
36.88850 297.000
36.90845 313.000
36.92840 281.000
36.94835 279.000
36.96829 272.000
36.98824 260.000
37.00819 302.000
37.02813 313.000
37.04808 297.000
37.06803 286.000
37.08797 299.000
37.10792 338.000
37.12787 357.000
37.14781 369.000
37.16776 350.000
37.18771 328.000
37.20766 380.000
37.22760 342.000
37.24755 347.000
37.26750 367.000
37.28744 375.000
37.30739 386.000
37.32734 343.000
37.34728 319.000
37.36723 322.000
37.38718 297.000
37.40713 346.000
37.42707 296.000
37.44702 269.000
37.46697 251.000
37.48691 263.000
37.50686 259.000
37.52681 259.000
37.54675 273.000
37.56670 257.000
37.58665 240.000
37.60660 249.000
37.62654 237.000
37.64649 235.000
37.66644 232.000
37.68638 264.000
37.70633 221.000
37.72628 274.000
37.74622 262.000
37.76617 239.000
37.78612 239.000
37.80606 238.000
37.82601 274.000
37.84596 225.000
37.86591 265.000
37.88585 253.000
37.90580 260.000
37.92575 263.000
37.94569 263.000
37.96564 276.000
37.98559 269.000
38.00553 269.000
38.02548 234.000
38.04543 262.000
38.06538 239.000
38.08532 229.000
38.10527 269.000
38.12522 270.000
38.14516 273.000
38.16511 251.000
38.18506 259.000
38.20500 258.000
38.22495 281.000
38.24490 271.000
38.26484 290.000
38.28479 269.000
38.30474 264.000
38.32469 258.000
38.34463 283.000
38.36458 313.000
38.38453 299.000
38.40447 298.000
38.42442 268.000
38.44437 318.000
38.46431 340.000
38.48426 324.000
38.50421 347.000
38.52416 359.000
38.54410 389.000
38.56405 454.000
38.58400 494.000
38.60394 500.000
38.62389 591.000
38.64384 743.000
38.66378 886.000
38.68373 1168.000
38.70368 1416.000
38.72362 1655.000
38.74357 1759.000
38.76352 1733.000
38.78347 1571.000
38.80341 1441.000
38.82336 1395.000
38.84331 1232.000
38.86325 1184.000
38.88320 979.000
38.90315 872.000
38.92309 722.000
38.94304 686.000
38.96299 660.000
38.98294 618.000
39.00288 692.000
39.02283 679.000
39.04278 639.000
39.06272 605.000
39.08267 554.000
39.10262 555.000
39.12256 507.000
39.14251 516.000
39.16246 435.000
39.18241 414.000
39.20235 348.000
39.22230 387.000
39.24225 363.000
39.26219 362.000
39.28214 346.000
39.30209 353.000
39.32203 307.000
39.34198 277.000
39.36193 292.000
39.38187 301.000
39.40182 281.000
39.42177 257.000
39.44172 287.000
39.46166 247.000
39.48161 291.000
39.50156 243.000
39.52150 265.000
39.54145 271.000
39.56140 241.000
39.58134 253.000
39.60129 226.000
39.62124 249.000
39.64119 231.000
39.66113 263.000
39.68108 239.000
39.70103 270.000
39.72097 253.000
39.74092 232.000
39.76087 245.000
39.78081 249.000
39.80076 253.000
39.82071 228.000
39.84065 260.000
39.86060 268.000
39.88055 236.000
39.90050 291.000
39.92044 232.000
39.94039 252.000
39.96034 245.000
39.98028 260.000
40.00023 246.000
40.02018 240.000
40.04012 222.000
40.06007 211.000
40.08002 245.000
40.09997 234.000
40.11991 259.000
40.13986 238.000
40.15981 256.000
40.17975 216.000
40.19970 236.000
40.21965 246.000
40.23959 250.000
40.25954 270.000
40.27949 266.000
40.29943 245.000
40.31938 233.000
40.33933 250.000
40.35928 240.000
40.37922 273.000
40.39917 229.000
40.41912 255.000
40.43906 267.000
40.45901 230.000
40.47896 262.000
40.49890 247.000
40.51885 222.000
40.53880 237.000
40.55875 294.000
40.57869 257.000
40.59864 263.000
40.61859 261.000
40.63853 270.000
40.65848 279.000
40.67843 239.000
40.69837 241.000
40.71832 267.000
40.73827 254.000
40.75822 222.000
40.77816 218.000
40.79811 250.000
40.81806 262.000
40.83800 256.000
40.85795 239.000
40.87790 248.000
40.89784 246.000
40.91779 254.000
40.93774 223.000
40.95768 264.000
40.97763 233.000
40.99758 244.000
41.01753 242.000
41.03747 254.000
41.05742 233.000
41.07737 257.000
41.09731 258.000
41.11726 281.000
41.13721 256.000
41.15715 276.000
41.17710 291.000
41.19705 272.000
41.21700 291.000
41.23694 305.000
41.25689 354.000
41.27684 329.000
41.29678 411.000
41.31673 449.000
41.33668 510.000
41.35662 667.000
41.37657 810.000
41.39652 922.000
41.41646 1004.000
41.43641 1138.000
41.45636 1322.000
41.47631 1386.000
41.49625 1387.000
41.51620 1439.000
41.53615 1385.000
41.55609 1286.000
41.57604 1242.000
41.59599 1113.000
41.61593 1112.000
41.63588 969.000
41.65583 827.000
41.67578 744.000
41.69572 708.000
41.71567 608.000
41.73562 563.000
41.75556 476.000
41.77551 445.000
41.79546 427.000
41.81540 350.000
41.83535 325.000
41.85530 321.000
41.87524 312.000
41.89519 306.000
41.91514 313.000
41.93509 286.000
41.95503 286.000
41.97498 273.000
41.99493 249.000
42.01487 269.000
42.03482 287.000
42.05477 258.000
42.07471 278.000
42.09466 267.000
42.11461 249.000
42.13456 265.000
42.15450 270.000
42.17445 268.000
42.19440 272.000
42.21434 281.000
42.23429 251.000
42.25424 263.000
42.27418 245.000
42.29413 244.000
42.31408 228.000
42.33403 243.000
42.35397 262.000
42.37392 270.000
42.39387 252.000
42.41381 226.000
42.43376 241.000
42.45371 247.000
42.47365 284.000
42.49360 231.000
42.51355 249.000
42.53349 263.000
42.55344 262.000
42.57339 247.000
42.59334 254.000
42.61328 255.000
42.63323 263.000
42.65318 226.000
42.67312 264.000
42.69307 249.000
42.71302 236.000
42.73296 236.000
42.75291 236.000
42.77286 256.000
42.79281 240.000
42.81275 246.000
42.83270 252.000
42.85265 253.000
42.87259 228.000
42.89254 248.000
42.91249 263.000
42.93243 261.000
42.95238 306.000
42.97233 267.000
42.99227 270.000
43.01222 290.000
43.03217 281.000
43.05212 316.000
43.07206 330.000
43.09201 327.000
43.11196 363.000
43.13190 345.000
43.15185 371.000
43.17180 360.000
43.19174 384.000
43.21169 372.000
43.23164 375.000
43.25159 402.000
43.27153 432.000
43.29148 427.000
43.31143 415.000
43.33137 458.000
43.35132 470.000
43.37127 455.000
43.39121 420.000
43.41116 393.000
43.43111 376.000
43.45105 363.000
43.47100 349.000
43.49095 338.000
43.51090 270.000
43.53084 293.000
43.55079 290.000
43.57074 230.000
43.59068 236.000
43.61063 277.000
43.63058 213.000
43.65052 249.000
43.67047 241.000
43.69042 270.000
43.71037 238.000
43.73031 256.000
43.75026 214.000
43.77021 220.000
43.79015 233.000
43.81010 215.000
43.83005 230.000
43.84999 214.000
43.86994 228.000
43.88989 216.000
43.90984 212.000
43.92978 245.000
43.94973 250.000
43.96968 232.000
43.98962 241.000
44.00957 207.000
44.02952 236.000
44.04946 232.000
44.06941 228.000
44.08936 244.000
44.10930 192.000
44.12925 230.000
44.14920 210.000
44.16915 192.000
44.18909 213.000
44.20904 216.000
44.22899 236.000
44.24893 235.000
44.26888 218.000
44.28883 238.000
44.30877 220.000
44.32872 241.000
44.34867 237.000
44.36862 224.000
44.38856 211.000
44.40851 219.000
44.42846 223.000
44.44840 210.000
44.46835 245.000
44.48830 216.000
44.50824 221.000
44.52819 260.000
44.54814 259.000
44.56808 234.000
44.58803 254.000
44.60798 194.000
44.62793 226.000
44.64787 247.000
44.66782 232.000
44.68777 226.000
44.70771 233.000
44.72766 214.000
44.74761 216.000
44.76755 228.000
44.78750 247.000
44.80745 256.000
44.82740 272.000
44.84734 256.000
44.86729 272.000
44.88724 266.000
44.90718 256.000
44.92713 283.000
44.94708 275.000
44.96702 274.000
44.98697 269.000
45.00692 240.000
45.02686 240.000
45.04681 266.000
45.06676 228.000
45.08671 232.000
45.10665 228.000
45.12660 214.000
45.14655 253.000
45.16649 227.000
45.18644 218.000
45.20639 222.000
45.22633 254.000
45.24628 237.000
45.26623 227.000
45.28618 219.000
45.30612 196.000
45.32607 252.000
45.34602 217.000
45.36596 242.000
45.38591 216.000
45.40586 209.000
45.42580 248.000
45.44575 225.000
45.46570 215.000
45.48565 238.000
45.50559 235.000
45.52554 214.000
45.54549 219.000
45.56543 206.000
45.58538 230.000
45.60533 229.000
45.62527 219.000
45.64522 205.000
45.66517 236.000
45.68511 228.000
45.70506 214.000
45.72501 192.000
45.74496 221.000
45.76490 224.000
45.78485 206.000
45.80480 227.000
45.82474 231.000
45.84469 226.000
45.86464 222.000
45.88458 233.000
45.90453 223.000
45.92448 224.000
45.94443 216.000
45.96437 227.000
45.98432 233.000
46.00427 228.000
46.02421 226.000
46.04416 226.000
46.06411 234.000
46.08405 225.000
46.10400 217.000
46.12395 259.000
46.14389 233.000
46.16384 222.000
46.18379 213.000
46.20374 228.000
46.22368 237.000
46.24363 240.000
46.26358 244.000
46.28352 262.000
46.30347 234.000
46.32342 244.000
46.34336 245.000
46.36331 245.000
46.38326 241.000
46.40321 242.000
46.42315 222.000
46.44310 223.000
46.46305 240.000
46.48299 236.000
46.50294 225.000
46.52289 230.000
46.54283 234.000
46.56278 252.000
46.58273 228.000
46.60267 226.000
46.62262 228.000
46.64257 241.000
46.66252 219.000
46.68246 235.000
46.70241 230.000
46.72236 226.000
46.74230 231.000
46.76225 235.000
46.78220 223.000
46.80214 272.000
46.82209 225.000
46.84204 250.000
46.86199 224.000
46.88193 243.000
46.90188 227.000
46.92183 232.000
46.94177 212.000
46.96172 229.000
46.98167 218.000
47.00161 233.000
47.02156 215.000
47.04151 229.000
47.06146 214.000
47.08140 261.000
47.10135 243.000
47.12130 230.000
47.14124 208.000
47.16119 209.000
47.18114 227.000
47.20108 242.000
47.22103 226.000
47.24098 230.000
47.26092 238.000
47.28087 206.000
47.30082 184.000
47.32077 217.000
47.34071 220.000
47.36066 209.000
47.38061 215.000
47.40055 216.000
47.42050 213.000
47.44045 226.000
47.46039 198.000
47.48034 203.000
47.50029 230.000
47.52024 236.000
47.54018 213.000
47.56013 231.000
47.58008 229.000
47.60002 213.000
47.61997 221.000
47.63992 241.000
47.65986 234.000
47.67981 187.000
47.69976 230.000
47.71970 247.000
47.73965 189.000
47.75960 208.000
47.77955 229.000
47.79949 233.000
47.81944 258.000
47.83939 253.000
47.85933 259.000
47.87928 246.000
47.89923 222.000
47.91917 214.000
47.93912 255.000
47.95907 231.000
47.97902 245.000
47.99896 225.000
48.01891 234.000
48.03886 192.000
48.05880 217.000
48.07875 215.000
48.09870 250.000
48.11864 208.000
48.13859 230.000
48.15854 243.000
48.17848 252.000
48.19843 219.000
48.21838 211.000
48.23833 243.000
48.25827 230.000
48.27822 229.000
48.29817 229.000
48.31811 266.000
48.33806 223.000
48.35801 248.000
48.37795 228.000
48.39790 227.000
48.41785 220.000
48.43780 246.000
48.45774 267.000
48.47769 250.000
48.49764 264.000
48.51758 285.000
48.53753 254.000
48.55748 265.000
48.57742 251.000
48.59737 293.000
48.61732 315.000
48.63726 272.000
48.65721 340.000
48.67716 330.000
48.69711 301.000
48.71705 341.000
48.73700 368.000
48.75695 422.000
48.77689 478.000
48.79684 508.000
48.81679 553.000
48.83673 613.000
48.85668 625.000
48.87663 574.000
48.89658 571.000
48.91652 570.000
48.93647 541.000
48.95642 524.000
48.97636 538.000
48.99631 440.000
49.01626 425.000
49.03620 451.000
49.05615 367.000
49.07610 330.000
49.09605 345.000
49.11599 306.000
49.13594 285.000
49.15589 285.000
49.17583 284.000
49.19578 282.000
49.21573 260.000
49.23567 259.000
49.25562 269.000
49.27557 249.000
49.29551 251.000
49.31546 251.000
49.33541 256.000
49.35536 258.000
49.37530 262.000
49.39525 260.000
49.41520 241.000
49.43514 249.000
49.45509 238.000
49.47504 266.000
49.49498 243.000
49.51493 286.000
49.53488 249.000
49.55483 239.000
49.57477 231.000
49.59472 262.000
49.61467 232.000
49.63461 247.000
49.65456 238.000
49.67451 248.000
49.69445 235.000
49.71440 240.000
49.73435 230.000
49.75429 256.000
49.77424 232.000
49.79419 240.000
49.81414 243.000
49.83408 232.000
49.85403 250.000
49.87398 254.000
49.89392 247.000
49.91387 239.000
49.93382 213.000
49.95376 257.000
49.97371 254.000
49.99366 240.000
50.01361 236.000
50.03355 228.000
50.05350 216.000
50.07345 198.000
50.09339 207.000
50.11334 228.000
50.13329 213.000
50.15323 223.000
50.17318 243.000
50.19313 225.000
50.21307 249.000
50.23302 211.000
50.25297 244.000
50.27292 236.000
50.29286 227.000
50.31281 243.000
50.33276 237.000
50.35270 226.000
50.37265 221.000
50.39260 228.000
50.41254 199.000
50.43249 203.000
50.45244 220.000
50.47239 244.000
50.49233 213.000
50.51228 219.000
50.53223 211.000
50.55217 219.000
50.57212 205.000
50.59207 213.000
50.61201 213.000
50.63196 247.000
50.65191 222.000
50.67186 232.000
50.69180 205.000
50.71175 209.000
50.73170 226.000
50.75164 205.000
50.77159 231.000
50.79154 236.000
50.81148 210.000
50.83143 215.000
50.85138 230.000
50.87132 239.000
50.89127 187.000
50.91122 217.000
50.93117 241.000
50.95111 204.000
50.97106 240.000
50.99101 212.000
51.01095 216.000
51.03090 246.000
51.05085 212.000
51.07079 254.000
51.09074 217.000
51.11069 224.000
51.13064 224.000
51.15058 224.000
51.17053 191.000
51.19048 215.000
51.21042 261.000
51.23037 220.000
51.25032 235.000
51.27026 246.000
51.29021 252.000
51.31016 267.000
51.33010 255.000
51.35005 263.000
51.37000 238.000
51.38995 230.000
51.40989 245.000
51.42984 223.000
51.44979 219.000
51.46973 231.000
51.48968 226.000
51.50963 260.000
51.52957 222.000
51.54952 249.000
51.56947 245.000
51.58942 223.000
51.60936 220.000
51.62931 209.000
51.64926 221.000
51.66920 235.000
51.68915 236.000
51.70910 211.000
51.72904 239.000
51.74899 218.000
51.76894 239.000
51.78888 234.000
51.80883 220.000
51.82878 233.000
51.84873 246.000
51.86867 228.000
51.88862 246.000
51.90857 212.000
51.92851 182.000
51.94846 228.000
51.96841 228.000
51.98835 244.000
52.00830 197.000
52.02825 227.000
52.04820 213.000
52.06814 190.000
52.08809 226.000
52.10804 192.000
52.12798 233.000
52.14793 223.000
52.16788 215.000
52.18782 227.000
52.20777 203.000
52.22772 224.000
52.24767 218.000
52.26761 225.000
52.28756 249.000
52.30751 213.000
52.32745 214.000
52.34740 247.000
52.36735 236.000
52.38729 222.000
52.40724 226.000
52.42719 224.000
52.44713 225.000
52.46708 214.000
52.48703 256.000
52.50698 238.000
52.52692 267.000
52.54687 229.000
52.56682 225.000
52.58676 225.000
52.60671 208.000
52.62666 197.000
52.64660 254.000
52.66655 207.000
52.68650 207.000
52.70645 237.000
52.72639 235.000
52.74634 240.000
52.76629 237.000
52.78623 220.000
52.80618 229.000
52.82613 241.000
52.84607 241.000
52.86602 248.000
52.88597 226.000
52.90591 255.000
52.92586 315.000
52.94581 315.000
52.96576 305.000
52.98570 276.000
53.00565 336.000
53.02560 295.000
53.04554 331.000
53.06549 391.000
53.08544 428.000
53.10538 435.000
53.12533 480.000
53.14528 393.000
53.16523 353.000
53.18517 335.000
53.20512 329.000
53.22507 359.000
53.24501 367.000
53.26496 340.000
53.28491 317.000
53.30485 321.000
53.32480 351.000
53.34475 316.000
53.36469 309.000
53.38464 313.000
53.40459 343.000
53.42454 268.000
53.44448 332.000
53.46443 337.000
53.48438 305.000
53.50432 304.000
53.52427 312.000
53.54422 306.000
53.56416 290.000
53.58411 291.000
53.60406 312.000
53.62401 315.000
53.64395 282.000
53.66390 300.000
53.68385 283.000
53.70379 267.000
53.72374 292.000
53.74369 312.000
53.76363 331.000
53.78358 333.000
53.80353 306.000
53.82348 262.000
53.84342 265.000
53.86337 273.000
53.88332 273.000
53.90326 284.000
53.92321 270.000
53.94316 250.000
53.96310 238.000
53.98305 264.000
54.00300 240.000
54.02294 240.000
54.04289 219.000
54.06284 260.000
54.08279 248.000
54.10273 256.000
54.12268 215.000
54.14263 240.000
54.16257 236.000
54.18252 232.000
54.20247 234.000
54.22241 241.000
54.24236 234.000
54.26231 210.000
54.28226 222.000
54.30220 235.000
54.32215 235.000
54.34210 227.000
54.36204 223.000
54.38199 232.000
54.40194 233.000
54.42188 189.000
54.44183 236.000
54.46178 197.000
54.48172 235.000
54.50167 223.000
54.52162 234.000
54.54157 251.000
54.56151 212.000
54.58146 213.000
54.60141 238.000
54.62135 205.000
54.64130 228.000
54.66125 201.000
54.68119 244.000
54.70114 220.000
54.72109 238.000
54.74104 220.000
54.76098 241.000
54.78093 208.000
54.80088 212.000
54.82082 242.000
54.84077 240.000
54.86072 214.000
54.88066 217.000
54.90061 217.000
54.92056 236.000
54.94050 205.000
54.96045 218.000
54.98040 215.000
55.00035 249.000
55.02029 252.000
55.04024 199.000
55.06019 228.000
55.08013 241.000
55.10008 230.000
55.12003 236.000
55.13997 207.000
55.15992 233.000
55.17987 191.000
55.19982 235.000
55.21976 235.000
55.23971 232.000
55.25966 218.000
55.27960 236.000
55.29955 225.000
55.31950 219.000
55.33944 209.000
55.35939 205.000
55.37934 238.000
55.39929 228.000
55.41923 241.000
55.43918 226.000
55.45913 249.000
55.47907 216.000
55.49902 235.000
55.51897 213.000
55.53891 230.000
55.55886 197.000
55.57881 253.000
55.59875 209.000
55.61870 227.000
55.63865 244.000
55.65860 254.000
55.67854 215.000
55.69849 200.000
55.71844 219.000
55.73838 217.000
55.75833 259.000
55.77828 239.000
55.79822 235.000
55.81817 216.000
55.83812 226.000
55.85807 258.000
55.87801 223.000
55.89796 229.000
55.91791 231.000
55.93785 226.000
55.95780 237.000
55.97775 231.000
55.99769 255.000
56.01764 238.000
56.03759 214.000
56.05753 230.000
56.07748 216.000
56.09743 240.000
56.11738 236.000
56.13732 236.000
56.15727 229.000
56.17722 245.000
56.19716 225.000
56.21711 237.000
56.23706 245.000
56.25700 242.000
56.27695 208.000
56.29690 215.000
56.31685 233.000
56.33679 213.000
56.35674 200.000
56.37669 228.000
56.39663 218.000
56.41658 225.000
56.43653 260.000
56.45647 224.000
56.47642 257.000
56.49637 226.000
56.51631 234.000
56.53626 232.000
56.55621 223.000
56.57616 235.000
56.59610 233.000
56.61605 260.000
56.63600 203.000
56.65594 229.000
56.67589 279.000
56.69584 243.000
56.71578 227.000
56.73573 218.000
56.75568 210.000
56.77563 225.000
56.79557 245.000
56.81552 225.000
56.83547 200.000
56.85541 242.000
56.87536 222.000
56.89531 223.000
56.91525 218.000
56.93520 237.000
56.95515 242.000
56.97510 260.000
56.99504 253.000
57.01499 216.000
57.03494 236.000
57.05488 254.000
57.07483 216.000
57.09478 246.000
57.11472 247.000
57.13467 222.000
57.15462 257.000
57.17456 279.000
57.19451 268.000
57.21446 300.000
57.23441 294.000
57.25435 352.000
57.27430 391.000
57.29425 478.000
57.31419 460.000
57.33414 460.000
57.35409 402.000
57.37403 377.000
57.39398 335.000
57.41393 340.000
57.43388 334.000
57.45382 372.000
57.47377 382.000
57.49372 480.000
57.51366 362.000
57.53361 327.000
57.55356 374.000
57.57350 385.000
57.59345 352.000
57.61340 375.000
57.63334 338.000
57.65329 363.000
57.67324 399.000
57.69319 390.000
57.71313 416.000
57.73308 416.000
57.75303 453.000
57.77297 477.000
57.79292 495.000
57.81287 529.000
57.83281 547.000
57.85276 523.000
57.87271 474.000
57.89266 489.000
57.91260 458.000
57.93255 462.000
57.95250 442.000
57.97244 395.000
57.99239 401.000
58.01234 394.000
58.03228 371.000
58.05223 343.000
58.07218 298.000
58.09212 299.000
58.11207 265.000
58.13202 267.000
58.15197 315.000
58.17191 294.000
58.19186 272.000
58.21181 326.000
58.23175 345.000
58.25170 348.000
58.27165 369.000
58.29159 382.000
58.31154 386.000
58.33149 369.000
58.35144 359.000
58.37138 379.000
58.39133 324.000
58.41128 336.000
58.43122 316.000
58.45117 369.000
58.47112 321.000
58.49106 312.000
58.51101 286.000
58.53096 297.000
58.55090 315.000
58.57085 274.000
58.59080 235.000
58.61075 246.000
58.63069 240.000
58.65064 224.000
58.67059 251.000
58.69053 259.000
58.71048 233.000
58.73043 268.000
58.75037 238.000
58.77032 245.000
58.79027 232.000
58.81022 224.000
58.83016 221.000
58.85011 235.000
58.87006 238.000
58.89000 269.000
58.90995 246.000
58.92990 241.000
58.94984 208.000
58.96979 240.000
58.98974 212.000
59.00969 208.000
59.02963 215.000
59.04958 249.000
59.06953 224.000
59.08947 218.000
59.10942 227.000
59.12937 220.000
59.14931 218.000
59.16926 233.000
59.18921 252.000
59.20915 229.000
59.22910 234.000
59.24905 220.000
59.26900 245.000
59.28894 237.000
59.30889 209.000
59.32884 224.000
59.34878 220.000
59.36873 212.000
59.38868 248.000
59.40862 219.000
59.42857 219.000
59.44852 244.000
59.46847 216.000
59.48841 224.000
59.50836 232.000
59.52831 224.000
59.54825 237.000
59.56820 223.000
59.58815 224.000
59.60809 213.000
59.62804 237.000
59.64799 222.000
59.66793 241.000
59.68788 210.000
59.70783 207.000
59.72778 209.000
59.74772 224.000
59.76767 207.000
59.78762 225.000
59.80756 230.000
59.82751 235.000
59.84746 230.000
59.86740 249.000
59.88735 219.000
59.90730 241.000
59.92725 231.000
59.94719 231.000
59.96714 243.000
59.98709 202.000
60.00703 273.000
60.02698 224.000
60.04693 221.000
60.06687 233.000
60.08682 263.000
60.10677 222.000
60.12671 229.000
60.14666 241.000
60.16661 216.000
60.18656 237.000
60.20650 237.000
60.22645 217.000
60.24640 219.000
60.26634 238.000
60.28629 260.000
60.30624 234.000
60.32618 228.000
60.34613 252.000
60.36608 216.000
60.38603 217.000
60.40597 215.000
60.42592 208.000
60.44587 240.000
60.46581 219.000
60.48576 259.000
60.50571 247.000
60.52565 223.000
60.54560 218.000
60.56555 223.000
60.58550 227.000
60.60544 235.000
60.62539 225.000
60.64534 246.000
60.66528 236.000
60.68523 230.000
60.70518 239.000
60.72512 243.000
60.74507 256.000
60.76502 242.000
60.78496 234.000
60.80491 224.000
60.82486 242.000
60.84481 227.000
60.86475 250.000
60.88470 222.000
60.90465 242.000
60.92459 258.000
60.94454 260.000
60.96449 241.000
60.98443 202.000
61.00438 231.000
61.02433 253.000
61.04428 259.000
61.06422 258.000
61.08417 241.000
61.10412 241.000
61.12406 276.000
61.14401 258.000
61.16396 275.000
61.18390 286.000
61.20385 244.000
61.22380 234.000
61.24374 265.000
61.26369 308.000
61.28364 271.000
61.30359 262.000
61.32353 294.000
61.34348 320.000
61.36343 302.000
61.38337 316.000
61.40332 302.000
61.42327 334.000
61.44321 328.000
61.46316 367.000
61.48311 373.000
61.50306 394.000
61.52300 460.000
61.54295 448.000
61.56290 500.000
61.58284 524.000
61.60279 521.000
61.62274 451.000
61.64268 457.000
61.66263 454.000
61.68258 476.000
61.70252 423.000
61.72247 423.000
61.74242 428.000
61.76237 419.000
61.78231 384.000
61.80226 398.000
61.82221 396.000
61.84215 375.000
61.86210 391.000
61.88205 386.000
61.90199 360.000
61.92194 330.000
61.94189 338.000
61.96184 336.000
61.98178 357.000
62.00173 333.000
62.02168 326.000
62.04162 331.000
62.06157 308.000
62.08152 342.000
62.10146 313.000
62.12141 307.000
62.14136 325.000
62.16131 337.000
62.18125 310.000
62.20120 326.000
62.22115 332.000
62.24109 376.000
62.26104 377.000
62.28099 348.000
62.30093 391.000
62.32088 396.000
62.34083 383.000
62.36077 391.000
62.38072 364.000
62.40067 355.000
62.42062 405.000
62.44056 391.000
62.46051 332.000
62.48046 360.000
62.50040 378.000
62.52035 371.000
62.54030 349.000
62.56024 363.000
62.58019 360.000
62.60014 380.000
62.62009 338.000
62.64003 345.000
62.65998 366.000
62.67993 384.000
62.69987 373.000
62.71982 361.000
62.73977 366.000
62.75971 368.000
62.77966 339.000
62.79961 394.000
62.81955 428.000
62.83950 362.000
62.85945 377.000
62.87940 439.000
62.89934 503.000
62.91929 525.000
62.93924 593.000
62.95918 498.000
62.97913 483.000
62.99908 403.000
63.01902 383.000
63.03897 363.000
63.05892 354.000
63.07887 416.000
63.09881 435.000
63.11876 409.000
63.13871 400.000
63.15865 388.000
63.17860 315.000
63.19855 287.000
63.21849 291.000
63.23844 277.000
63.25839 261.000
63.27833 267.000
63.29828 230.000
63.31823 277.000
63.33818 249.000
63.35812 260.000
63.37807 227.000
63.39802 249.000
63.41796 245.000
63.43791 254.000
63.45786 243.000
63.47780 223.000
63.49775 225.000
63.51770 247.000
63.53765 268.000
63.55759 223.000
63.57754 218.000
63.59749 220.000
63.61743 248.000
63.63738 237.000
63.65733 227.000
63.67727 241.000
63.69722 214.000
63.71717 252.000
63.73712 241.000
63.75706 236.000
63.77701 248.000
63.79696 246.000
63.81690 266.000
63.83685 238.000
63.85680 256.000
63.87674 279.000
63.89669 255.000
63.91664 225.000
63.93658 226.000
63.95653 228.000
63.97648 236.000
63.99643 214.000
64.01637 237.000
64.03632 233.000
64.05627 235.000
64.07621 286.000
64.09616 233.000
64.11611 238.000
64.13605 219.000
64.15600 206.000
64.17595 241.000
64.19590 229.000
64.21584 215.000
64.23579 234.000
64.25574 224.000
64.27568 225.000
64.29563 242.000
64.31558 215.000
64.33552 228.000
64.35547 261.000
64.37542 193.000
64.39536 243.000
64.41531 254.000
64.43526 255.000
64.45521 270.000
64.47515 233.000
64.49510 253.000
64.51505 245.000
64.53499 271.000
64.55494 237.000
64.57489 263.000
64.59483 266.000
64.61478 252.000
64.63473 239.000
64.65468 247.000
64.67462 246.000
64.69457 261.000
64.71452 252.000
64.73446 265.000
64.75441 268.000
64.77436 258.000
64.79430 237.000
64.81425 280.000
64.83420 248.000
64.85414 262.000
64.87409 282.000
64.89404 251.000
64.91399 280.000
64.93393 293.000
64.95388 286.000
64.97383 295.000
64.99377 284.000
65.01372 273.000
65.03367 316.000
65.05361 301.000
65.07356 275.000
65.09351 275.000
65.11346 247.000
65.13340 287.000
65.15335 242.000
65.17330 294.000
65.19324 278.000
65.21319 259.000
65.23314 260.000
65.25308 288.000
65.27303 278.000
65.29298 278.000
65.31293 260.000
65.33287 263.000
65.35282 280.000
65.37277 259.000
65.39271 284.000
65.41266 306.000
65.43261 249.000
65.45255 295.000
65.47250 257.000
65.49245 278.000
65.51239 301.000
65.53234 300.000
65.55229 280.000
65.57224 298.000
65.59218 274.000
65.61213 310.000
65.63208 305.000
65.65202 333.000
65.67197 317.000
65.69192 319.000
65.71186 311.000
65.73181 346.000
65.75176 367.000
65.77171 346.000
65.79165 342.000
65.81160 363.000
65.83155 331.000
65.85149 362.000
65.87144 383.000
65.89139 354.000
65.91133 334.000
65.93128 334.000
65.95123 329.000
65.97117 285.000
65.99112 307.000
66.01107 308.000
66.03102 293.000
66.05096 341.000
66.07091 271.000
66.09086 278.000
66.11080 294.000
66.13075 288.000
66.15070 338.000
66.17064 324.000
66.19059 316.000
66.21054 267.000
66.23049 325.000
66.25043 338.000
66.27038 347.000
66.29033 372.000
66.31027 368.000
66.33022 387.000
66.35017 430.000
66.37011 414.000
66.39006 409.000
66.41001 393.000
66.42995 391.000
66.44990 362.000
66.46985 325.000
66.48980 374.000
66.50974 320.000
66.52969 335.000
66.54964 352.000
66.56958 306.000
66.58953 318.000
66.60948 308.000
66.62942 260.000
66.64937 287.000
66.66932 244.000
66.68927 274.000
66.70921 243.000
66.72916 240.000
66.74911 259.000
66.76905 218.000
66.78900 234.000
66.80895 223.000
66.82889 237.000
66.84884 239.000
66.86879 231.000
66.88874 265.000
66.90868 233.000
66.92863 241.000
66.94858 236.000
66.96852 227.000
66.98847 250.000
67.00842 251.000
67.02836 228.000
67.04831 250.000
67.06826 245.000
67.08820 231.000
67.10815 254.000
67.12810 243.000
67.14805 240.000
67.16799 232.000
67.18794 236.000
67.20789 242.000
67.22783 250.000
67.24778 221.000
67.26773 247.000
67.28767 239.000
67.30762 212.000
67.32757 234.000
67.34752 225.000
67.36746 241.000
67.38741 264.000
67.40736 248.000
67.42730 252.000
67.44725 253.000
67.46720 232.000
67.48714 239.000
67.50709 217.000
67.52704 254.000
67.54698 264.000
67.56693 250.000
67.58688 258.000
67.60683 230.000
67.62677 271.000
67.64672 277.000
67.66667 265.000
67.68661 275.000
67.70656 251.000
67.72651 280.000
67.74645 284.000
67.76640 307.000
67.78635 267.000
67.80630 269.000
67.82624 324.000
67.84619 333.000
67.86614 329.000
67.88608 323.000
67.90603 353.000
67.92598 371.000
67.94592 357.000
67.96587 350.000
67.98582 357.000
68.00576 382.000
68.02571 416.000
68.04566 400.000
68.06561 399.000
68.08555 417.000
68.10550 441.000
68.12545 427.000
68.14539 382.000
68.16534 371.000
68.18529 395.000
68.20523 413.000
68.22518 390.000
68.24513 376.000
68.26508 382.000
68.28502 401.000
68.30497 405.000
68.32492 354.000
68.34486 355.000
68.36481 336.000
68.38476 327.000
68.40470 347.000
68.42465 329.000
68.44460 309.000
68.46455 302.000
68.48449 304.000
68.50444 259.000
68.52439 271.000
68.54433 240.000
68.56428 267.000
68.58423 254.000
68.60417 264.000
68.62412 257.000
68.64407 292.000
68.66401 233.000
68.68396 249.000
68.70391 234.000
68.72386 254.000
68.74380 258.000
68.76375 227.000
68.78370 247.000
68.80364 239.000
68.82359 213.000
68.84354 241.000
68.86348 239.000
68.88343 254.000
68.90338 247.000
68.92333 261.000
68.94327 235.000
68.96322 228.000
68.98317 246.000
69.00311 270.000
69.02306 223.000
69.04301 212.000
69.06295 248.000
69.08290 236.000
69.10285 235.000
69.12279 212.000
69.14274 232.000
69.16269 219.000
69.18264 222.000
69.20258 208.000
69.22253 245.000
69.24248 236.000
69.26242 234.000
69.28237 258.000
69.30232 247.000
69.32226 256.000
69.34221 217.000
69.36216 241.000
69.38211 244.000
69.40205 243.000
69.42200 258.000
69.44195 231.000
69.46189 228.000
69.48184 240.000
69.50179 249.000
69.52173 236.000
69.54168 262.000
69.56163 228.000
69.58157 239.000
69.60152 224.000
69.62147 242.000
69.64142 244.000
69.66136 228.000
69.68131 224.000
69.70126 235.000
69.72120 219.000
69.74115 218.000
69.76110 262.000
69.78104 236.000
69.80099 242.000
69.82094 223.000
69.84089 230.000
69.86083 261.000
69.88078 202.000
69.90073 232.000
69.92067 231.000
69.94062 231.000
69.96057 214.000
69.98051 230.000
70.00046 240.000
70.02041 220.000
70.04035 234.000
70.06030 239.000
70.08025 230.000
70.10020 230.000
70.12014 228.000
70.14009 212.000
70.16004 228.000
70.17998 234.000
70.19993 202.000
70.21988 223.000
70.23982 226.000
70.25977 241.000
70.27972 221.000
70.29967 230.000
70.31961 220.000
70.33956 218.000
70.35951 222.000
70.37945 233.000
70.39940 229.000
70.41935 211.000
70.43929 236.000
70.45924 193.000
70.47919 199.000
70.49914 210.000
70.51908 233.000
70.53903 248.000
70.55898 218.000
70.57892 233.000
70.59887 220.000
70.61882 238.000
70.63876 205.000
70.65871 214.000
70.67866 236.000
70.69860 212.000
70.71855 216.000
70.73850 221.000
70.75845 228.000
70.77839 230.000
70.79834 223.000
70.81829 194.000
70.83823 197.000
70.85818 236.000
70.87813 225.000
70.89807 230.000
70.91802 208.000
70.93797 234.000
70.95792 228.000
70.97786 218.000
70.99781 222.000
71.01776 211.000
71.03770 237.000
71.05765 237.000
71.07760 232.000
71.09754 247.000
71.11749 258.000
71.13744 225.000
71.15738 217.000
71.17733 239.000
71.19728 233.000
71.21723 248.000
71.23717 254.000
71.25712 232.000
71.27707 215.000
71.29701 221.000
71.31696 237.000
71.33691 229.000
71.35685 252.000
71.37680 249.000
71.39675 248.000
71.41670 244.000
71.43664 247.000
71.45659 233.000
71.47654 218.000
71.49648 225.000
71.51643 216.000
71.53638 218.000
71.55632 233.000
71.57627 245.000
71.59622 250.000
71.61616 245.000
71.63611 247.000
71.65606 232.000
71.67601 230.000
71.69595 238.000
71.71590 240.000
71.73585 232.000
71.75579 227.000
71.77574 228.000
71.79569 227.000
71.81563 228.000
71.83558 229.000
71.85553 249.000
71.87548 219.000
71.89542 254.000
71.91537 237.000
71.93532 225.000
71.95526 241.000
71.97521 236.000
71.99516 234.000
72.01510 229.000
72.03505 201.000
72.05500 240.000
72.07495 226.000
72.09489 271.000
72.11484 266.000
72.13479 277.000
72.15473 279.000
72.17468 279.000
72.19463 252.000
72.21457 248.000
72.23452 264.000
72.25447 254.000
72.27441 296.000
72.29436 291.000
72.31431 264.000
72.33426 320.000
72.35420 298.000
72.37415 315.000
72.39410 344.000
72.41404 331.000
72.43399 298.000
72.45394 327.000
72.47388 359.000
72.49383 326.000
72.51378 334.000
72.53373 296.000
72.55367 310.000
72.57362 306.000
72.59357 325.000
72.61351 295.000
72.63346 301.000
72.65341 289.000
72.67335 305.000
72.69330 295.000
72.71325 279.000
72.73319 297.000
72.75314 267.000
72.77309 244.000
72.79304 267.000
72.81298 239.000
72.83293 231.000
72.85288 259.000
72.87282 230.000
72.89277 271.000
72.91272 263.000
72.93266 229.000
72.95261 231.000
72.97256 257.000
72.99251 227.000
73.01245 247.000
73.03240 236.000
73.05235 236.000
73.07229 256.000
73.09224 233.000
73.11219 266.000
73.13213 237.000
73.15208 229.000
73.17203 238.000
73.19197 221.000
73.21192 247.000
73.23187 277.000
73.25182 243.000
73.27176 220.000
73.29171 244.000
73.31166 248.000
73.33160 263.000
73.35155 268.000
73.37150 230.000
73.39144 244.000
73.41139 246.000
73.43134 248.000
73.45129 254.000
73.47123 228.000
73.49118 253.000
73.51113 244.000
73.53107 237.000
73.55102 240.000
73.57097 229.000
73.59091 234.000
73.61086 238.000
73.63081 246.000
73.65076 262.000
73.67070 234.000
73.69065 220.000
73.71060 240.000
73.73054 248.000
73.75049 251.000
73.77044 244.000
73.79038 237.000
73.81033 271.000
73.83028 268.000
73.85022 279.000
73.87017 256.000
73.89012 239.000
73.91007 251.000
73.93001 256.000
73.94996 288.000
73.96991 273.000
73.98985 282.000
74.00980 270.000
74.02975 246.000
74.04969 224.000
74.06964 300.000
74.08959 259.000
74.10954 261.000
74.12948 261.000
74.14943 243.000
74.16938 241.000
74.18932 271.000
74.20927 237.000
74.22922 261.000
74.24916 244.000
74.26911 271.000
74.28906 268.000
74.30900 250.000
74.32895 280.000
74.34890 243.000
74.36885 275.000
74.38879 242.000
74.40874 275.000
74.42869 277.000
74.44863 285.000
74.46858 339.000
74.48853 290.000
74.50847 293.000
74.52842 235.000
74.54837 266.000
74.56832 261.000
74.58826 266.000
74.60821 265.000
74.62816 257.000
74.64810 290.000
74.66805 260.000
74.68800 244.000
74.70794 288.000
74.72789 261.000
74.74784 296.000
74.76778 270.000
74.78773 256.000
74.80768 286.000
74.82763 252.000
74.84757 279.000
74.86752 230.000
74.88747 297.000
74.90741 276.000
74.92736 254.000
74.94731 281.000
74.96725 283.000
74.98720 323.000
75.00715 296.000
75.02710 356.000
75.04704 322.000
75.06699 307.000
75.08694 294.000
75.10688 291.000
75.12683 293.000
75.14678 282.000
75.16672 304.000
75.18667 332.000
75.20662 325.000
75.22657 366.000
75.24651 325.000
75.26646 376.000
75.28641 330.000
75.30635 309.000
75.32630 298.000
75.34625 345.000
75.36619 321.000
75.38614 321.000
75.40609 297.000
75.42603 305.000
75.44598 296.000
75.46593 307.000
75.48588 274.000
75.50582 291.000
75.52577 269.000
75.54572 278.000
75.56566 277.000
75.58561 277.000
75.60556 257.000
75.62550 271.000
75.64545 278.000
75.66540 254.000
75.68535 235.000
75.70529 242.000
75.72524 247.000
75.74519 240.000
75.76513 215.000
75.78508 233.000
75.80503 238.000
75.82497 228.000
75.84492 204.000
75.86487 222.000
75.88481 190.000
75.90476 240.000
75.92471 232.000
75.94466 214.000
75.96460 220.000
75.98455 219.000
76.00450 223.000
76.02444 224.000
76.04439 246.000
76.06434 215.000
76.08428 222.000
76.10423 230.000
76.12418 242.000
76.14413 242.000
76.16407 230.000
76.18402 250.000
76.20397 241.000
76.22391 203.000
76.24386 205.000
76.26381 250.000
76.28375 244.000
76.30370 216.000
76.32365 227.000
76.34359 222.000
76.36354 225.000
76.38349 256.000
76.40344 205.000
76.42338 205.000
76.44333 238.000
76.46328 225.000
76.48322 234.000
76.50317 214.000
76.52312 210.000
76.54306 205.000
76.56301 234.000
76.58296 231.000
76.60291 195.000
76.62285 211.000
76.64280 221.000
76.66275 239.000
76.68269 226.000
76.70264 221.000
76.72259 194.000
76.74253 222.000
76.76248 203.000
76.78243 205.000
76.80238 224.000
76.82232 218.000
76.84227 224.000
76.86222 189.000
76.88216 242.000
76.90211 232.000
76.92206 231.000
76.94200 216.000
76.96195 238.000
76.98190 213.000
77.00184 228.000
77.02179 250.000
77.04174 234.000
77.06169 220.000
77.08163 221.000
77.10158 220.000
77.12153 228.000
77.14147 236.000
77.16142 241.000
77.18137 260.000
77.20131 257.000
77.22126 258.000
77.24121 257.000
77.26116 279.000
77.28110 241.000
77.30105 235.000
77.32100 243.000
77.34094 265.000
77.36089 246.000
77.38084 241.000
77.40078 246.000
77.42073 259.000
77.44068 278.000
77.46062 238.000
77.48057 268.000
77.50052 267.000
77.52047 257.000
77.54041 256.000
77.56036 282.000
77.58031 240.000
77.60025 242.000
77.62020 223.000
77.64015 251.000
77.66009 288.000
77.68004 272.000
77.69999 265.000
77.71994 252.000
77.73988 222.000
77.75983 245.000
77.77978 264.000
77.79972 256.000
77.81967 246.000
77.83962 248.000
77.85956 270.000
77.87951 252.000
77.89946 261.000
77.91940 247.000
77.93935 259.000
77.95930 235.000
77.97925 258.000
77.99919 237.000
78.01914 233.000
78.03909 237.000
78.05903 237.000
78.07898 241.000
78.09893 258.000
78.11887 232.000
78.13882 225.000
78.15877 232.000
78.17872 257.000
78.19866 252.000
78.21861 234.000
78.23856 240.000
78.25850 245.000
78.27845 243.000
78.29840 210.000
78.31834 229.000
78.33829 243.000
78.35824 237.000
78.37819 244.000
78.39813 232.000
78.41808 233.000
78.43803 238.000
78.45797 240.000
78.47792 240.000
78.49787 240.000
78.51781 282.000
78.53776 227.000
78.55771 226.000
78.57765 228.000
78.59760 244.000
78.61755 275.000
78.63750 245.000
78.65744 211.000
78.67739 230.000
78.69734 216.000
78.71728 245.000
78.73723 228.000
78.75718 234.000
78.77712 227.000
78.79707 216.000
78.81702 217.000
78.83697 224.000
78.85691 228.000
78.87686 221.000
78.89681 203.000
78.91675 227.000
78.93670 218.000
78.95665 235.000
78.97659 254.000
78.99654 221.000
79.01649 215.000
79.03643 231.000
79.05638 226.000
79.07633 223.000
79.09628 237.000
79.11622 257.000
79.13617 225.000
79.15612 216.000
79.17606 234.000
79.19601 204.000
79.21596 241.000
79.23590 217.000
79.25585 224.000
79.27580 224.000
79.29575 245.000
79.31569 240.000
79.33564 228.000
79.35559 255.000
79.37553 203.000
79.39548 263.000
79.41543 206.000
79.43537 245.000
79.45532 255.000
79.47527 270.000
79.49521 274.000
79.51516 256.000
79.53511 216.000
79.55506 237.000
79.57500 248.000
79.59495 224.000
79.61490 237.000
79.63484 218.000
79.65479 226.000
79.67474 232.000
79.69468 213.000
79.71463 212.000
79.73458 247.000
79.75453 247.000
79.77447 227.000
79.79442 216.000
79.81437 226.000
79.83431 222.000
79.85426 208.000
79.87421 218.000
79.89415 224.000
79.91410 237.000
79.93405 246.000
79.95399 238.000
79.97394 208.000
79.99389 225.000
80.01384 259.000
80.03378 232.000
80.05373 233.000
80.07368 213.000
80.09362 224.000
80.11357 221.000
80.13352 206.000
80.15346 231.000
80.17341 227.000
80.19336 251.000
80.21331 238.000
80.23325 253.000
80.25320 238.000
80.27315 257.000
80.29309 243.000
80.31304 252.000
80.33299 252.000
80.35293 242.000
80.37288 270.000
80.39283 245.000
80.41278 224.000
80.43272 222.000
80.45267 216.000
80.47262 234.000
80.49256 228.000
80.51251 214.000
80.53246 234.000
80.55240 229.000
80.57235 231.000
80.59230 232.000
80.61224 247.000
80.63219 229.000
80.65214 230.000
80.67209 224.000
80.69203 199.000
80.71198 234.000
80.73193 231.000
80.75187 233.000
80.77182 229.000
80.79177 230.000
80.81171 204.000
80.83166 206.000
80.85161 216.000
80.87156 224.000
80.89150 245.000
80.91145 223.000
80.93140 223.000
80.95134 215.000
80.97129 229.000
80.99124 230.000
81.01118 226.000
81.03113 219.000
81.05108 227.000
81.07102 218.000
81.09097 232.000
81.11092 219.000
81.13087 204.000
81.15081 226.000
81.17076 220.000
81.19071 196.000
81.21065 213.000
81.23060 241.000
81.25055 207.000
81.27049 242.000
81.29044 238.000
81.31039 202.000
81.33034 239.000
81.35028 205.000
81.37023 221.000
81.39018 236.000
81.41012 190.000
81.43007 216.000
81.45002 221.000
81.46996 218.000
81.48991 230.000
81.50986 222.000
81.52980 209.000
81.54975 241.000
81.56970 236.000
81.58965 221.000
81.60959 229.000
81.62954 231.000
81.64949 208.000
81.66943 233.000
81.68938 198.000
81.70933 245.000
81.72927 208.000
81.74922 211.000
81.76917 215.000
81.78912 208.000
81.80906 202.000
81.82901 224.000
81.84896 229.000
81.86890 227.000
81.88885 196.000
81.90880 252.000
81.92874 215.000
81.94869 202.000
81.96864 228.000
81.98859 217.000
82.00853 225.000
82.02848 233.000
82.04843 239.000
82.06837 214.000
82.08832 240.000
82.10827 236.000
82.12821 214.000
82.14816 225.000
82.16811 212.000
82.18805 213.000
82.20800 233.000
82.22795 234.000
82.24790 236.000
82.26784 235.000
82.28779 231.000
82.30774 224.000
82.32768 231.000
82.34763 277.000
82.36758 261.000
82.38752 245.000
82.40747 272.000
82.42742 257.000
82.44737 249.000
82.46731 289.000
82.48726 263.000
82.50721 274.000
82.52715 265.000
82.54710 273.000
82.56705 278.000
82.58699 266.000
82.60694 282.000
82.62689 252.000
82.64683 251.000
82.66678 237.000
82.68673 264.000
82.70668 276.000
82.72662 245.000
82.74657 256.000
82.76652 265.000
82.78646 281.000
82.80641 253.000
82.82636 275.000
82.84630 241.000
82.86625 245.000
82.88620 266.000
82.90615 268.000
82.92609 227.000
82.94604 263.000
82.96599 282.000
82.98593 268.000
83.00588 276.000
83.02583 255.000
83.04577 252.000
83.06572 244.000
83.08567 225.000
83.10561 213.000
83.12556 239.000
83.14551 239.000
83.16546 243.000
83.18540 253.000
83.20535 251.000
83.22530 257.000
83.24524 268.000
83.26519 256.000
83.28514 250.000
83.30508 240.000
83.32503 249.000
83.34498 252.000
83.36493 266.000
83.38487 216.000
83.40482 221.000
83.42477 250.000
83.44471 239.000
83.46466 243.000
83.48461 231.000
83.50455 247.000
83.52450 236.000
83.54445 227.000
83.56440 241.000
83.58434 256.000
83.60429 217.000
83.62424 272.000
83.64418 250.000
83.66413 242.000
83.68408 279.000
83.70402 273.000
83.72397 236.000
83.74392 236.000
83.76386 254.000
83.78381 234.000
83.80376 227.000
83.82371 241.000
83.84365 226.000
83.86360 216.000
83.88355 241.000
83.90349 240.000
83.92344 250.000
83.94339 255.000
83.96333 247.000
83.98328 265.000
84.00323 248.000
84.02318 233.000
84.04312 240.000
84.06307 266.000
84.08302 213.000
84.10296 229.000
84.12291 238.000
84.14286 229.000
84.16280 237.000
84.18275 220.000
84.20270 278.000
84.22264 243.000
84.24259 240.000
84.26254 242.000
84.28249 232.000
84.30243 232.000
84.32238 240.000
84.34233 245.000
84.36227 249.000
84.38222 253.000
84.40217 255.000
84.42211 207.000
84.44206 234.000
84.46201 222.000
84.48196 228.000
84.50190 199.000
84.52185 205.000
84.54180 220.000
84.56174 222.000
84.58169 207.000
84.60164 209.000
84.62158 243.000
84.64153 225.000
84.66148 225.000
84.68142 230.000
84.70137 209.000
84.72132 213.000
84.74127 218.000
84.76121 226.000
84.78116 214.000
84.80111 201.000
84.82105 243.000
84.84100 222.000
84.86095 227.000
84.88089 227.000
84.90084 200.000
84.92079 229.000
84.94074 207.000
84.96068 212.000
84.98063 207.000
85.00058 232.000
85.02052 246.000
85.04047 212.000
85.06042 234.000
85.08036 223.000
85.10031 207.000
85.12026 212.000
85.14021 206.000
85.16015 208.000
85.18010 209.000
85.20005 243.000
85.21999 228.000
85.23994 203.000
85.25989 206.000
85.27983 232.000
85.29978 199.000
85.31973 223.000
85.33967 210.000
85.35962 215.000
85.37957 225.000
85.39952 217.000
85.41946 226.000
85.43941 216.000
85.45936 207.000
85.47930 230.000
85.49925 202.000
85.51920 211.000
85.53914 238.000
85.55909 226.000
85.57904 223.000
85.59899 226.000
85.61893 240.000
85.63888 227.000
85.65883 214.000
85.67877 219.000
85.69872 234.000
85.71867 227.000
85.73861 226.000
85.75856 207.000
85.77851 242.000
85.79845 237.000
85.81840 215.000
85.83835 233.000
85.85830 200.000
85.87824 203.000
85.89819 234.000
85.91814 238.000
85.93808 220.000
85.95803 240.000
85.97798 214.000
85.99792 210.000
86.01787 221.000
86.03782 230.000
86.05777 233.000
86.07771 245.000
86.09766 246.000
86.11761 238.000
86.13755 261.000
86.15750 221.000
86.17745 246.000
86.19739 256.000
86.21734 207.000
86.23729 228.000
86.25723 234.000
86.27718 238.000
86.29713 256.000
86.31708 230.000
86.33702 223.000
86.35697 241.000
86.37692 259.000
86.39686 218.000
86.41681 237.000
86.43676 216.000
86.45670 234.000
86.47665 224.000
86.49660 218.000
86.51655 259.000
86.53649 212.000
86.55644 228.000
86.57639 236.000
86.59633 220.000
86.61628 265.000
86.63623 214.000
86.65617 226.000
86.67612 249.000
86.69607 224.000
86.71602 230.000
86.73596 222.000
86.75591 259.000
86.77586 244.000
86.79580 273.000
86.81575 225.000
86.83570 248.000
86.85564 239.000
86.87559 239.000
86.89554 237.000
86.91548 242.000
86.93543 238.000
86.95538 230.000
86.97533 222.000
86.99527 235.000
87.01522 255.000
87.03517 223.000
87.05511 234.000
87.07506 231.000
87.09501 228.000
87.11495 222.000
87.13490 231.000
87.15485 231.000
87.17480 256.000
87.19474 213.000
87.21469 217.000
87.23464 241.000
87.25458 235.000
87.27453 224.000
87.29448 239.000
87.31442 246.000
87.33437 224.000
87.35432 245.000
87.37426 235.000
87.39421 230.000
87.41416 237.000
87.43411 226.000
87.45405 234.000
87.47400 261.000
87.49395 244.000
87.51389 219.000
87.53384 244.000
87.55379 234.000
87.57373 216.000
87.59368 239.000
87.61363 248.000
87.63358 218.000
87.65352 244.000
87.67347 231.000
87.69342 248.000
87.71336 231.000
87.73331 242.000
87.75326 197.000
87.77320 213.000
87.79315 233.000
87.81310 251.000
87.83304 216.000
87.85299 237.000
87.87294 195.000
87.89289 216.000
87.91283 204.000
87.93278 238.000
87.95273 222.000
87.97267 215.000
87.99262 248.000
88.01257 222.000
88.03251 193.000
88.05246 219.000
88.07241 228.000
88.09236 204.000
88.11230 226.000
88.13225 202.000
88.15220 239.000
88.17214 228.000
88.19209 219.000
88.21204 214.000
88.23198 233.000
88.25193 222.000
88.27188 210.000
88.29183 250.000
88.31177 237.000
88.33172 196.000
88.35167 230.000
88.37161 241.000
88.39156 230.000
88.41151 205.000
88.43145 203.000
88.45140 227.000
88.47135 219.000
88.49129 218.000
88.51124 190.000
88.53119 210.000
88.55114 207.000
88.57108 190.000
88.59103 226.000
88.61098 176.000
88.63092 233.000
88.65087 206.000
88.67082 200.000
88.69076 199.000
88.71071 209.000
88.73066 234.000
88.75061 223.000
88.77055 205.000
88.79050 227.000
88.81045 217.000
88.83039 196.000
88.85034 217.000
88.87029 217.000
88.89023 213.000
88.91018 190.000
88.93013 234.000
88.95007 197.000
88.97002 236.000
88.98997 206.000
89.00992 247.000
89.02986 201.000
89.04981 208.000
89.06976 231.000
89.08970 245.000
89.10965 232.000
89.12960 250.000
89.14954 248.000
89.16949 214.000
89.18944 263.000
89.20939 236.000
89.22933 218.000
89.24928 237.000
89.26923 217.000
89.28917 226.000
89.30912 206.000
89.32907 208.000
89.34901 269.000
89.36896 236.000
89.38891 234.000
89.40885 211.000
89.42880 250.000
89.44875 252.000
89.46870 234.000
89.48864 218.000
89.50859 244.000
89.52854 245.000
89.54848 236.000
89.56843 252.000
89.58838 237.000
89.60832 281.000
89.62827 264.000
89.64822 239.000
89.66817 251.000
89.68811 251.000
89.70806 253.000
89.72801 247.000
89.74795 238.000
89.76790 261.000
89.78785 295.000
89.80779 256.000
89.82774 263.000
89.84769 281.000
89.86764 244.000
89.88758 276.000
89.90753 267.000
89.92748 265.000
89.94742 283.000
89.96737 261.000
89.98732 255.000
90.00726 261.000
