10.00000 118.000
10.01995 126.000
10.03989 121.000
10.05984 109.000
10.07979 113.000
10.09973 115.000
10.11968 123.000
10.13963 121.000
10.15958 131.000
10.17952 121.000
10.19947 121.000
10.21942 104.000
10.23936 113.000
10.25931 118.000
10.27926 134.000
10.29920 114.000
10.31915 131.000
10.33910 133.000
10.35905 122.000
10.37899 131.000
10.39894 142.000
10.41889 123.000
10.43883 118.000
10.45878 130.000
10.47873 137.000
10.49867 106.000
10.51862 118.000
10.53857 128.000
10.55851 129.000
10.57846 129.000
10.59841 120.000
10.61836 144.000
10.63830 145.000
10.65825 133.000
10.67820 122.000
10.69814 128.000
10.71809 137.000
10.73804 126.000
10.75798 110.000
10.77793 126.000
10.79788 131.000
10.81783 130.000
10.83777 116.000
10.85772 124.000
10.87767 139.000
10.89761 136.000
10.91756 134.000
10.93751 148.000
10.95745 131.000
10.97740 125.000
10.99735 162.000
11.01730 131.000
11.03724 159.000
11.05719 127.000
11.07714 166.000
11.09708 124.000
11.11703 121.000
11.13698 149.000
11.15692 130.000
11.17687 131.000
11.19682 126.000
11.21676 126.000
11.23671 150.000
11.25666 118.000
11.27661 136.000
11.29655 145.000
11.31650 130.000
11.33645 120.000
11.35639 105.000
11.37634 114.000
11.39629 100.000
11.41623 144.000
11.43618 115.000
11.45613 110.000
11.47608 112.000
11.49602 98.000
11.51597 129.000
11.53592 127.000
11.55586 120.000
11.57581 157.000
11.59576 127.000
11.61570 125.000
11.63565 124.000
11.65560 123.000
11.67554 132.000
11.69549 143.000
11.71544 143.000
11.73539 123.000
11.75533 121.000
11.77528 115.000
11.79523 152.000
11.81517 121.000
11.83512 130.000
11.85507 140.000
11.87501 133.000
11.89496 127.000
11.91491 133.000
11.93486 124.000
11.95480 136.000
11.97475 144.000
11.99470 152.000
12.01464 139.000
12.03459 138.000
12.05454 113.000
12.07448 149.000
12.09443 128.000
12.11438 128.000
12.13432 147.000
12.15427 129.000
12.17422 118.000
12.19417 123.000
12.21411 143.000
12.23406 130.000
12.25401 134.000
12.27395 142.000
12.29390 130.000
12.31385 143.000
12.33379 135.000
12.35374 144.000
12.37369 137.000
12.39364 144.000
12.41358 133.000
12.43353 128.000
12.45348 116.000
12.47342 127.000
12.49337 149.000
12.51332 127.000
12.53326 163.000
12.55321 117.000
12.57316 139.000
12.59311 145.000
12.61305 135.000
12.63300 137.000
12.65295 103.000
12.67289 127.000
12.69284 135.000
12.71279 141.000
12.73273 118.000
12.75268 153.000
12.77263 136.000
12.79257 141.000
12.81252 143.000
12.83247 155.000
12.85242 127.000
12.87236 128.000
12.89231 161.000
12.91226 149.000
12.93220 135.000
12.95215 162.000
12.97210 137.000
12.99204 121.000
13.01199 148.000
13.03194 133.000
13.05189 144.000
13.07183 141.000
13.09178 149.000
13.11173 128.000
13.13167 131.000
13.15162 148.000
13.17157 145.000
13.19151 152.000
13.21146 126.000
13.23141 143.000
13.25135 143.000
13.27130 123.000
13.29125 150.000
13.31120 133.000
13.33114 142.000
13.35109 125.000
13.37104 164.000
13.39098 146.000
13.41093 130.000
13.43088 137.000
13.45082 140.000
13.47077 120.000
13.49072 129.000
13.51067 141.000
13.53061 119.000
13.55056 150.000
13.57051 141.000
13.59045 136.000
13.61040 139.000
13.63035 122.000
13.65029 131.000
13.67024 132.000
13.69019 128.000
13.71013 130.000
13.73008 137.000
13.75003 132.000
13.76998 127.000
13.78992 152.000
13.80987 125.000
13.82982 149.000
13.84976 131.000
13.86971 113.000
13.88966 143.000
13.90960 140.000
13.92955 135.000
13.94950 144.000
13.96945 154.000
13.98939 149.000
14.00934 142.000
14.02929 124.000
14.04923 136.000
14.06918 157.000
14.08913 131.000
14.10907 130.000
14.12902 147.000
14.14897 127.000
14.16892 143.000
14.18886 137.000
14.20881 130.000
14.22876 142.000
14.24870 132.000
14.26865 124.000
14.28860 149.000
14.30854 149.000
14.32849 145.000
14.34844 107.000
14.36838 145.000
14.38833 165.000
14.40828 132.000
14.42823 121.000
14.44817 150.000
14.46812 148.000
14.48807 152.000
14.50801 126.000
14.52796 157.000
14.54791 143.000
14.56785 130.000
14.58780 133.000
14.60775 122.000
14.62770 152.000
14.64764 159.000
14.66759 119.000
14.68754 143.000
14.70748 150.000
14.72743 155.000
14.74738 122.000
14.76732 142.000
14.78727 151.000
14.80722 126.000
14.82716 133.000
14.84711 129.000
14.86706 135.000
14.88701 117.000
14.90695 150.000
14.92690 157.000
14.94685 175.000
14.96679 137.000
14.98674 155.000
15.00669 146.000
15.02663 142.000
15.04658 151.000
15.06653 143.000
15.08648 139.000
15.10642 137.000
15.12637 132.000
15.14632 134.000
15.16626 132.000
15.18621 133.000
15.20616 152.000
15.22610 132.000
15.24605 142.000
15.26600 141.000
15.28594 149.000
15.30589 150.000
15.32584 149.000
15.34579 142.000
15.36573 158.000
15.38568 117.000
15.40563 150.000
15.42557 175.000
15.44552 156.000
15.46547 156.000
15.48541 155.000
15.50536 157.000
15.52531 144.000
15.54526 134.000
15.56520 155.000
15.58515 150.000
15.60510 152.000
15.62504 147.000
15.64499 131.000
15.66494 133.000
15.68488 144.000
15.70483 143.000
15.72478 144.000
15.74472 142.000
15.76467 140.000
15.78462 132.000
15.80457 131.000
15.82451 150.000
15.84446 148.000
15.86441 140.000
15.88435 145.000
15.90430 130.000
15.92425 147.000
15.94419 153.000
15.96414 150.000
15.98409 178.000
16.00404 157.000
16.02398 130.000
16.04393 159.000
16.06388 163.000
16.08382 151.000
16.10377 148.000
16.12372 141.000
16.14366 142.000
16.16361 152.000
16.18356 176.000
16.20351 152.000
16.22345 147.000
16.24340 137.000
16.26335 174.000
16.28329 130.000
16.30324 158.000
16.32319 157.000
16.34313 140.000
16.36308 145.000
16.38303 151.000
16.40297 142.000
16.42292 143.000
16.44287 143.000
16.46282 152.000
16.48276 153.000
16.50271 138.000
16.52266 152.000
16.54260 152.000
16.56255 145.000
16.58250 164.000
16.60244 148.000
16.62239 158.000
16.64234 167.000
16.66229 153.000
16.68223 150.000
16.70218 182.000
16.72213 162.000
16.74207 133.000
16.76202 180.000
16.78197 163.000
16.80191 186.000
16.82186 169.000
16.84181 137.000
16.86175 144.000
16.88170 147.000
16.90165 139.000
16.92160 142.000
16.94154 154.000
16.96149 148.000
16.98144 153.000
17.00138 148.000
17.02133 135.000
17.04128 153.000
17.06122 145.000
17.08117 156.000
17.10112 141.000
17.12107 170.000
17.14101 141.000
17.16096 143.000
17.18091 133.000
17.20085 151.000
17.22080 147.000
17.24075 134.000
17.26069 148.000
17.28064 171.000
17.30059 146.000
17.32053 137.000
17.34048 159.000
17.36043 166.000
17.38038 152.000
17.40032 170.000
17.42027 134.000
17.44022 151.000
17.46016 163.000
17.48011 155.000
17.50006 150.000
17.52000 149.000
17.53995 131.000
17.55990 175.000
17.57985 160.000
17.59979 142.000
17.61974 148.000
17.63969 139.000
17.65963 140.000
17.67958 132.000
17.69953 155.000
17.71947 146.000
17.73942 149.000
17.75937 155.000
17.77932 147.000
17.79926 155.000
17.81921 155.000
17.83916 141.000
17.85910 151.000
17.87905 156.000
17.89900 152.000
17.91894 143.000
17.93889 158.000
17.95884 160.000
17.97878 177.000
17.99873 206.000
18.01868 186.000
18.03863 200.000
18.05857 210.000
18.07852 183.000
18.09847 228.000
18.11841 267.000
18.13836 333.000
18.15831 374.000
18.17825 483.000
18.19820 480.000
18.21815 551.000
18.23810 495.000
18.25804 386.000
18.27799 299.000
18.29794 264.000
18.31788 215.000
18.33783 170.000
18.35778 171.000
18.37772 157.000
18.39767 176.000
18.41762 171.000
18.43756 150.000
18.45751 167.000
18.47746 159.000
18.49741 179.000
18.51735 178.000
18.53730 136.000
18.55725 185.000
18.57719 140.000
18.59714 151.000
18.61709 136.000
18.63703 137.000
18.65698 175.000
18.67693 156.000
18.69688 162.000
18.71682 170.000
18.73677 166.000
18.75672 161.000
18.77666 145.000
18.79661 167.000
18.81656 169.000
18.83650 163.000
18.85645 159.000
18.87640 174.000
18.89634 172.000
18.91629 164.000
18.93624 153.000
18.95619 165.000
18.97613 168.000
18.99608 147.000
19.01603 153.000
19.03597 168.000
19.05592 153.000
19.07587 159.000
19.09581 170.000
19.11576 167.000
19.13571 167.000
19.15566 174.000
19.17560 169.000
19.19555 160.000
19.21550 146.000
19.23544 167.000
19.25539 156.000
19.27534 166.000
19.29528 168.000
19.31523 145.000
19.33518 166.000
19.35513 152.000
19.37507 149.000
19.39502 168.000
19.41497 166.000
19.43491 169.000
19.45486 149.000
19.47481 149.000
19.49475 170.000
19.51470 181.000
19.53465 146.000
19.55459 151.000
19.57454 159.000
19.59449 189.000
19.61444 151.000
19.63438 145.000
19.65433 172.000
19.67428 164.000
19.69422 152.000
19.71417 162.000
19.73412 183.000
19.75406 170.000
19.77401 189.000
19.79396 206.000
19.81391 195.000
19.83385 199.000
19.85380 200.000
19.87375 213.000
19.89369 207.000
19.91364 196.000
19.93359 200.000
19.95353 212.000
19.97348 188.000
19.99343 201.000
20.01337 194.000
20.03332 194.000
20.05327 173.000
20.07322 171.000
20.09316 183.000
20.11311 194.000
20.13306 182.000
20.15300 153.000
20.17295 191.000
20.19290 194.000
20.21284 180.000
20.23279 220.000
20.25274 213.000
20.27269 230.000
20.29263 237.000
20.31258 232.000
20.33253 295.000
20.35247 295.000
20.37242 309.000
20.39237 300.000
20.41231 321.000
20.43226 313.000
20.45221 340.000
20.47215 320.000
20.49210 303.000
20.51205 314.000
20.53200 298.000
20.55194 325.000
20.57189 291.000
20.59184 259.000
20.61178 305.000
20.63173 268.000
20.65168 302.000
20.67162 274.000
20.69157 294.000
20.71152 273.000
20.73147 285.000
20.75141 273.000
20.77136 253.000
20.79131 285.000
20.81125 265.000
20.83120 210.000
20.85115 262.000
20.87109 250.000
20.89104 230.000
20.91099 210.000
20.93094 182.000
20.95088 195.000
20.97083 213.000
20.99078 225.000
21.01072 179.000
21.03067 188.000
21.05062 178.000
21.07056 176.000
21.09051 179.000
21.11046 172.000
21.13040 174.000
21.15035 192.000
21.17030 169.000
21.19025 182.000
21.21019 187.000
21.23014 180.000
21.25009 167.000
21.27003 169.000
21.28998 146.000
21.30993 186.000
21.32987 163.000
21.34982 162.000
21.36977 150.000
21.38972 165.000
21.40966 162.000
21.42961 175.000
21.44956 156.000
21.46950 181.000
21.48945 174.000
21.50940 183.000
21.52934 172.000
21.54929 190.000
21.56924 169.000
21.58918 181.000
21.60913 185.000
21.62908 190.000
21.64903 183.000
21.66897 182.000
21.68892 172.000
21.70887 174.000
21.72881 156.000
21.74876 179.000
21.76871 145.000
21.78865 151.000
21.80860 194.000
21.82855 185.000
21.84850 154.000
21.86844 159.000
21.88839 161.000
21.90834 192.000
21.92828 178.000
21.94823 153.000
21.96818 183.000
21.98812 185.000
22.00807 152.000
22.02802 182.000
22.04796 183.000
22.06791 161.000
22.08786 181.000
22.10781 163.000
22.12775 204.000
22.14770 188.000
22.16765 176.000
22.18759 174.000
22.20754 176.000
22.22749 165.000
22.24743 178.000
22.26738 159.000
22.28733 184.000
22.30728 179.000
22.32722 174.000
22.34717 203.000
22.36712 154.000
22.38706 192.000
22.40701 162.000
22.42696 189.000
22.44690 177.000
22.46685 166.000
22.48680 178.000
22.50675 172.000
22.52669 172.000
22.54664 199.000
22.56659 181.000
22.58653 178.000
22.60648 151.000
22.62643 173.000
22.64637 185.000
22.66632 187.000
22.68627 184.000
22.70621 168.000
22.72616 173.000
22.74611 174.000
22.76606 175.000
22.78600 181.000
22.80595 193.000
22.82590 180.000
22.84584 179.000
22.86579 171.000
22.88574 193.000
22.90568 166.000
22.92563 187.000
22.94558 190.000
22.96553 184.000
22.98547 210.000
23.00542 179.000
23.02537 169.000
23.04531 173.000
23.06526 190.000
23.08521 195.000
23.10515 174.000
23.12510 177.000
23.14505 188.000
23.16499 162.000
23.18494 170.000
23.20489 184.000
23.22484 180.000
23.24478 189.000
23.26473 193.000
23.28468 168.000
23.30462 191.000
23.32457 203.000
23.34452 180.000
23.36446 187.000
23.38441 194.000
23.40436 173.000
23.42431 193.000
23.44425 165.000
23.46420 175.000
23.48415 173.000
23.50409 178.000
23.52404 196.000
23.54399 192.000
23.56393 190.000
23.58388 202.000
23.60383 168.000
23.62377 177.000
23.64372 216.000
23.66367 183.000
23.68362 171.000
23.70356 180.000
23.72351 169.000
23.74346 171.000
23.76340 183.000
23.78335 173.000
23.80330 185.000
23.82324 190.000
23.84319 215.000
23.86314 167.000
23.88309 175.000
23.90303 180.000
23.92298 184.000
23.94293 189.000
23.96287 192.000
23.98282 208.000
24.00277 199.000
24.02271 204.000
24.04266 186.000
24.06261 157.000
24.08256 200.000
24.10250 201.000
24.12245 197.000
24.14240 189.000
24.16234 191.000
24.18229 178.000
24.20224 194.000
24.22218 205.000
24.24213 181.000
24.26208 179.000
24.28202 200.000
24.30197 179.000
24.32192 209.000
24.34187 179.000
24.36181 181.000
24.38176 171.000
24.40171 190.000
24.42165 221.000
24.44160 189.000
24.46155 189.000
24.48149 185.000
24.50144 198.000
24.52139 220.000
24.54134 211.000
24.56128 204.000
24.58123 148.000
24.60118 179.000
24.62112 227.000
24.64107 202.000
24.66102 186.000
24.68096 184.000
24.70091 202.000
24.72086 186.000
24.74080 198.000
24.76075 213.000
24.78070 173.000
24.80065 188.000
24.82059 208.000
24.84054 190.000
24.86049 198.000
24.88043 187.000
24.90038 186.000
24.92033 187.000
24.94027 166.000
24.96022 206.000
24.98017 191.000
25.00012 162.000
25.02006 197.000
25.04001 184.000
25.05996 193.000
25.07990 225.000
25.09985 208.000
25.11980 201.000
25.13974 204.000
25.15969 196.000
25.17964 195.000
25.19958 204.000
25.21953 186.000
25.23948 196.000
25.25943 164.000
25.27937 213.000
25.29932 168.000
25.31927 189.000
25.33921 218.000
25.35916 224.000
25.37911 191.000
25.39905 183.000
25.41900 221.000
25.43895 227.000
25.45890 176.000
25.47884 193.000
25.49879 201.000
25.51874 193.000
25.53868 193.000
25.55863 200.000
25.57858 190.000
25.59852 221.000
25.61847 209.000
25.63842 196.000
25.65837 213.000
25.67831 200.000
25.69826 221.000
25.71821 213.000
25.73815 210.000
25.75810 212.000
25.77805 200.000
25.79799 219.000
25.81794 207.000
25.83789 216.000
25.85783 234.000
25.87778 216.000
25.89773 207.000
25.91768 223.000
25.93762 225.000
25.95757 214.000
25.97752 194.000
25.99746 190.000
26.01741 218.000
26.03736 216.000
26.05730 220.000
26.07725 212.000
26.09720 219.000
26.11715 209.000
26.13709 219.000
26.15704 229.000
26.17699 206.000
26.19693 194.000
26.21688 159.000
26.23683 181.000
26.25677 223.000
26.27672 197.000
26.29667 210.000
26.31661 205.000
26.33656 226.000
26.35651 241.000
26.37646 201.000
26.39640 231.000
26.41635 211.000
26.43630 232.000
26.45624 229.000
26.47619 199.000
26.49614 219.000
26.51608 250.000
26.53603 226.000
26.55598 204.000
26.57593 217.000
26.59587 216.000
26.61582 209.000
26.63577 208.000
26.65571 227.000
26.67566 219.000
26.69561 219.000
26.71555 241.000
26.73550 215.000
26.75545 225.000
26.77539 234.000
26.79534 205.000
26.81529 224.000
26.83524 201.000
26.85518 199.000
26.87513 195.000
26.89508 224.000
26.91502 218.000
26.93497 232.000
26.95492 227.000
26.97486 223.000
26.99481 240.000
27.01476 209.000
27.03471 194.000
27.05465 227.000
27.07460 210.000
27.09455 225.000
27.11449 191.000
27.13444 256.000
27.15439 215.000
27.17433 253.000
27.19428 191.000
27.21423 244.000
27.23417 203.000
27.25412 214.000
27.27407 199.000
27.29402 193.000
27.31396 204.000
27.33391 250.000
27.35386 235.000
27.37380 190.000
27.39375 205.000
27.41370 246.000
27.43364 239.000
27.45359 231.000
27.47354 233.000
27.49349 225.000
27.51343 219.000
27.53338 252.000
27.55333 228.000
27.57327 190.000
27.59322 231.000
27.61317 229.000
27.63311 230.000
27.65306 234.000
27.67301 210.000
27.69296 217.000
27.71290 219.000
27.73285 225.000
27.75280 243.000
27.77274 244.000
27.79269 217.000
27.81264 226.000
27.83258 251.000
27.85253 242.000
27.87248 236.000
27.89242 215.000
27.91237 231.000
27.93232 241.000
27.95227 228.000
27.97221 212.000
27.99216 237.000
28.01211 232.000
28.03205 246.000
28.05200 227.000
28.07195 222.000
28.09189 223.000
28.11184 235.000
28.13179 255.000
28.15174 229.000
28.17168 244.000
28.19163 239.000
28.21158 230.000
28.23152 267.000
28.25147 242.000
28.27142 232.000
28.29136 229.000
28.31131 268.000
28.33126 237.000
28.35120 239.000
28.37115 240.000
28.39110 242.000
28.41105 216.000
28.43099 221.000
28.45094 223.000
28.47089 240.000
28.49083 247.000
28.51078 219.000
28.53073 263.000
28.55067 244.000
28.57062 238.000
28.59057 254.000
28.61052 232.000
28.63046 241.000
28.65041 250.000
28.67036 243.000
28.69030 263.000
28.71025 222.000
28.73020 248.000
28.75014 246.000
28.77009 231.000
28.79004 236.000
28.80998 264.000
28.82993 255.000
28.84988 216.000
28.86983 267.000
28.88977 225.000
28.90972 259.000
28.92967 236.000
28.94961 245.000
28.96956 236.000
28.98951 237.000
29.00945 247.000
29.02940 222.000
29.04935 234.000
29.06930 235.000
29.08924 242.000
29.10919 254.000
29.12914 246.000
29.14908 220.000
29.16903 231.000
29.18898 240.000
29.20892 270.000
29.22887 269.000
29.24882 252.000
29.26877 287.000
29.28871 290.000
29.30866 313.000
29.32861 289.000
29.34855 312.000
29.36850 289.000
29.38845 321.000
29.40839 268.000
29.42834 284.000
29.44829 261.000
29.46823 259.000
29.48818 255.000
29.50813 259.000
29.52808 264.000
29.54802 270.000
29.56797 278.000
29.58792 253.000
29.60786 272.000
29.62781 237.000
29.64776 292.000
29.66770 278.000
29.68765 264.000
29.70760 288.000
29.72755 265.000
29.74749 299.000
29.76744 286.000
29.78739 287.000
29.80733 298.000
29.82728 310.000
29.84723 310.000
29.86717 308.000
29.88712 328.000
29.90707 348.000
29.92701 382.000
29.94696 419.000
29.96691 504.000
29.98686 599.000
30.00680 728.000
30.02675 940.000
30.04670 1096.000
30.06664 1264.000
30.08659 1193.000
30.10654 1132.000
30.12648 976.000
30.14643 886.000
30.16638 767.000
30.18633 625.000
30.20627 483.000
30.22622 425.000
30.24617 347.000
30.26611 323.000
30.28606 281.000
30.30601 273.000
30.32595 248.000
30.34590 256.000
30.36585 242.000
30.38579 247.000
30.40574 247.000
30.42569 251.000
30.44564 277.000
30.46558 241.000
30.48553 250.000
30.50548 240.000
30.52542 237.000
30.54537 259.000
30.56532 255.000
30.58526 272.000
30.60521 243.000
30.62516 251.000
30.64511 264.000
30.66505 267.000
30.68500 261.000
30.70495 241.000
30.72489 248.000
30.74484 247.000
30.76479 235.000
30.78473 230.000
30.80468 227.000
30.82463 235.000
30.84458 253.000
30.86452 266.000
30.88447 248.000
30.90442 253.000
30.92436 257.000
30.94431 240.000
30.96426 252.000
30.98420 240.000
31.00415 236.000
31.02410 249.000
31.04404 209.000
31.06399 254.000
31.08394 246.000
31.10389 231.000
31.12383 250.000
31.14378 225.000
31.16373 217.000
31.18367 230.000
31.20362 241.000
31.22357 232.000
31.24351 241.000
31.26346 257.000
31.28341 237.000
31.30336 234.000
31.32330 246.000
31.34325 238.000
31.36320 239.000
31.38314 231.000
31.40309 228.000
31.42304 235.000
31.44298 236.000
31.46293 236.000
31.48288 290.000
31.50282 238.000
31.52277 252.000
31.54272 236.000
31.56267 248.000
31.58261 242.000
31.60256 260.000
31.62251 237.000
31.64245 257.000
31.66240 266.000
31.68235 256.000
31.70229 244.000
31.72224 254.000
31.74219 268.000
31.76214 265.000
31.78208 228.000
31.80203 267.000
31.82198 252.000
31.84192 246.000
31.86187 233.000
31.88182 248.000
31.90176 299.000
31.92171 262.000
31.94166 266.000
31.96160 237.000
31.98155 222.000
32.00150 248.000
32.02145 241.000
32.04139 235.000
32.06134 267.000
32.08129 256.000
32.10123 232.000
32.12118 258.000
32.14113 265.000
32.16107 254.000
32.18102 245.000
32.20097 251.000
32.22092 259.000
32.24086 216.000
32.26081 221.000
32.28076 248.000
32.30070 274.000
32.32065 289.000
32.34060 255.000
32.36054 252.000
32.38049 280.000
32.40044 271.000
32.42039 248.000
32.44033 242.000
32.46028 235.000
32.48023 262.000
32.50017 268.000
32.52012 254.000
32.54007 230.000
32.56001 230.000
32.57996 222.000
32.59991 229.000
32.61985 240.000
32.63980 242.000
32.65975 232.000
32.67970 258.000
32.69964 243.000
32.71959 272.000
32.73954 229.000
32.75948 238.000
32.77943 237.000
32.79938 222.000
32.81932 247.000
32.83927 260.000
32.85922 241.000
32.87917 242.000
32.89911 244.000
32.91906 233.000
32.93901 288.000
32.95895 248.000
32.97890 272.000
32.99885 281.000
33.01879 276.000
33.03874 275.000
33.05869 319.000
33.07863 290.000
33.09858 289.000
33.11853 292.000
33.13848 317.000
33.15842 269.000
33.17837 275.000
33.19832 295.000
33.21826 290.000
33.23821 273.000
33.25816 284.000
33.27810 288.000
33.29805 273.000
33.31800 270.000
33.33795 260.000
33.35789 248.000
33.37784 284.000
33.39779 242.000
33.41773 275.000
33.43768 230.000
33.45763 256.000
33.47757 254.000
33.49752 292.000
33.51747 284.000
33.53741 271.000
33.55736 299.000
33.57731 302.000
33.59726 314.000
33.61720 338.000
33.63715 330.000
33.65710 353.000
33.67704 327.000
33.69699 357.000
33.71694 375.000
33.73688 377.000
33.75683 399.000
33.77678 412.000
33.79673 414.000
33.81667 454.000
33.83662 462.000
33.85657 407.000
33.87651 432.000
33.89646 445.000
33.91641 400.000
33.93635 426.000
33.95630 350.000
33.97625 353.000
33.99620 373.000
34.01614 341.000
34.03609 332.000
34.05604 349.000
34.07598 361.000
34.09593 362.000
34.11588 347.000
34.13582 380.000
34.15577 346.000
34.17572 332.000
34.19566 345.000
34.21561 345.000
34.23556 338.000
34.25551 357.000
34.27545 340.000
34.29540 328.000
34.31535 340.000
34.33529 334.000
34.35524 349.000
34.37519 288.000
34.39513 315.000
34.41508 330.000
34.43503 329.000
34.45498 288.000
34.47492 272.000
34.49487 295.000
34.51482 292.000
34.53476 283.000
34.55471 276.000
34.57466 269.000
34.59460 263.000
34.61455 283.000
34.63450 277.000
34.65444 273.000
34.67439 272.000
34.69434 249.000
34.71429 273.000
34.73423 294.000
34.75418 231.000
34.77413 287.000
34.79407 263.000
34.81402 265.000
34.83397 270.000
34.85391 274.000
34.87386 298.000
34.89381 300.000
34.91376 284.000
34.93370 285.000
34.95365 289.000
34.97360 345.000
34.99354 310.000
35.01349 326.000
35.03344 367.000
35.05338 403.000
35.07333 348.000
35.09328 391.000
35.11322 410.000
35.13317 487.000
35.15312 494.000
35.17307 554.000
35.19301 563.000
35.21296 625.000
35.23291 707.000
35.25285 771.000
35.27280 894.000
35.29275 988.000
35.31269 1119.000
35.33264 1328.000
35.35259 1600.000
35.37254 2010.000
35.39248 2444.000
35.41243 2974.000
35.43238 3233.000
35.45232 3549.000
35.47227 3456.000
35.49222 3210.000
35.51216 2815.000
35.53211 2509.000
35.55206 2317.000
35.57201 1826.000
35.59195 1383.000
35.61190 1074.000
35.63185 833.000
35.65179 619.000
35.67174 545.000
35.69169 478.000
35.71163 399.000
35.73158 393.000
35.75153 308.000
35.77147 331.000
35.79142 341.000
35.81137 281.000
35.83132 285.000
35.85126 291.000
35.87121 269.000
35.89116 265.000
35.91110 261.000
35.93105 266.000
35.95100 258.000
35.97094 249.000
35.99089 262.000
36.01084 243.000
36.03079 239.000
36.05073 222.000
36.07068 225.000
36.09063 223.000
36.11057 223.000
36.13052 229.000
36.15047 244.000
36.17041 215.000
36.19036 233.000
36.21031 226.000
36.23025 223.000
36.25020 243.000
36.27015 234.000
36.29010 242.000
36.31004 181.000
36.32999 208.000
36.34994 226.000
36.36988 232.000
36.38983 233.000
36.40978 252.000
36.42972 199.000
36.44967 206.000
36.46962 243.000
36.48957 229.000
36.50951 215.000
36.52946 225.000
36.54941 202.000
36.56935 215.000
36.58930 205.000
36.60925 203.000
36.62919 215.000
36.64914 242.000
36.66909 213.000
36.68903 219.000
36.70898 228.000
36.72893 224.000
36.74888 207.000
36.76882 252.000
36.78877 237.000
36.80872 241.000
36.82866 239.000
36.84861 245.000
36.86856 263.000
36.88850 249.000
36.90845 252.000
36.92840 258.000
36.94835 268.000
36.96829 238.000
36.98824 282.000
37.00819 267.000
37.02813 336.000
37.04808 382.000
37.06803 433.000
37.08797 422.000
37.10792 453.000
37.12787 399.000
37.14781 392.000
37.16776 346.000
37.18771 364.000
37.20766 302.000
37.22760 283.000
37.24755 257.000
37.26750 222.000
37.28744 242.000
37.30739 217.000
37.32734 210.000
37.34728 237.000
37.36723 198.000
37.38718 223.000
37.40713 215.000
37.42707 203.000
37.44702 228.000
37.46697 230.000
37.48691 226.000
37.50686 215.000
37.52681 200.000
37.54675 199.000
37.56670 222.000
37.58665 202.000
37.60660 199.000
37.62654 215.000
37.64649 209.000
37.66644 202.000
37.68638 175.000
37.70633 222.000
37.72628 235.000
37.74622 222.000
37.76617 229.000
37.78612 215.000
37.80606 213.000
37.82601 220.000
37.84596 204.000
37.86591 203.000
37.88585 212.000
37.90580 204.000
37.92575 215.000
37.94569 206.000
37.96564 237.000
37.98559 220.000
38.00553 234.000
38.02548 206.000
38.04543 198.000
38.06538 209.000
38.08532 225.000
38.10527 237.000
38.12522 215.000
38.14516 235.000
38.16511 231.000
38.18506 236.000
38.20500 235.000
38.22495 264.000
38.24490 253.000
38.26484 216.000
38.28479 239.000
38.30474 284.000
38.32469 281.000
38.34463 282.000
38.36458 282.000
38.38453 282.000
38.40447 305.000
38.42442 381.000
38.44437 367.000
38.46431 411.000
38.48426 470.000
38.50421 524.000
38.52416 588.000
38.54410 592.000
38.56405 562.000
38.58400 525.000
38.60394 513.000
38.62389 539.000
38.64384 448.000
38.66378 452.000
38.68373 400.000
38.70368 370.000
38.72362 367.000
38.74357 332.000
38.76352 353.000
38.78347 321.000
38.80341 317.000
38.82336 312.000
38.84331 278.000
38.86325 297.000
38.88320 285.000
38.90315 263.000
38.92309 265.000
38.94304 231.000
38.96299 259.000
38.98294 236.000
39.00288 217.000
39.02283 231.000
39.04278 200.000
39.06272 206.000
39.08267 226.000
39.10262 240.000
39.12256 204.000
39.14251 218.000
39.16246 212.000
39.18241 207.000
39.20235 223.000
39.22230 223.000
39.24225 185.000
39.26219 181.000
39.28214 202.000
39.30209 200.000
39.32203 207.000
39.34198 194.000
39.36193 222.000
39.38187 206.000
39.40182 208.000
39.42177 221.000
39.44172 189.000
39.46166 220.000
39.48161 224.000
39.50156 205.000
39.52150 207.000
39.54145 198.000
39.56140 224.000
39.58134 217.000
39.60129 191.000
39.62124 230.000
39.64119 202.000
39.66113 188.000
39.68108 205.000
39.70103 195.000
39.72097 200.000
39.74092 199.000
39.76087 204.000
39.78081 202.000
39.80076 205.000
39.82071 192.000
39.84065 165.000
39.86060 198.000
39.88055 220.000
39.90050 205.000
39.92044 226.000
39.94039 195.000
39.96034 192.000
39.98028 200.000
40.00023 198.000
40.02018 199.000
40.04012 208.000
40.06007 169.000
40.08002 178.000
40.09997 201.000
40.11991 204.000
40.13986 219.000
40.15981 189.000
40.17975 175.000
40.19970 186.000
40.21965 245.000
40.23959 176.000
40.25954 193.000
40.27949 209.000
40.29943 194.000
40.31938 206.000
40.33933 205.000
40.35928 206.000
40.37922 202.000
40.39917 192.000
40.41912 186.000
40.43906 185.000
40.45901 197.000
40.47896 211.000
40.49890 203.000
40.51885 186.000
40.53880 208.000
40.55875 175.000
40.57869 200.000
40.59864 236.000
40.61859 203.000
40.63853 187.000
40.65848 206.000
40.67843 199.000
40.69837 184.000
40.71832 202.000
40.73827 197.000
40.75822 183.000
40.77816 180.000
40.79811 193.000
40.81806 209.000
40.83800 195.000
40.85795 198.000
40.87790 190.000
40.89784 161.000
40.91779 198.000
40.93774 200.000
40.95768 208.000
40.97763 166.000
40.99758 185.000
41.01753 182.000
41.03747 193.000
41.05742 187.000
41.07737 211.000
41.09731 190.000
41.11726 214.000
41.13721 195.000
41.15715 192.000
41.17710 205.000
41.19705 194.000
41.21700 218.000
41.23694 197.000
41.25689 207.000
41.27684 187.000
41.29678 204.000
41.31673 188.000
41.33668 199.000
41.35662 221.000
41.37657 177.000
41.39652 228.000
41.41646 200.000
41.43641 217.000
41.45636 182.000
41.47631 192.000
41.49625 206.000
41.51620 235.000
41.53615 229.000
41.55609 206.000
41.57604 173.000
41.59599 222.000
41.61593 187.000
41.63588 182.000
41.65583 177.000
41.67578 196.000
41.69572 198.000
41.71567 177.000
41.73562 190.000
41.75556 196.000
41.77551 186.000
41.79546 204.000
41.81540 211.000
41.83535 206.000
41.85530 213.000
41.87524 195.000
41.89519 196.000
41.91514 191.000
41.93509 199.000
41.95503 198.000
41.97498 198.000
41.99493 181.000
42.01487 208.000
42.03482 203.000
42.05477 204.000
42.07471 196.000
42.09466 201.000
42.11461 209.000
42.13456 194.000
42.15450 170.000
42.17445 202.000
42.19440 204.000
42.21434 194.000
42.23429 180.000
42.25424 178.000
42.27418 184.000
42.29413 198.000
42.31408 175.000
42.33403 210.000
42.35397 198.000
42.37392 203.000
42.39387 220.000
42.41381 187.000
42.43376 186.000
42.45371 199.000
42.47365 219.000
42.49360 192.000
42.51355 218.000
42.53349 231.000
42.55344 212.000
42.57339 236.000
42.59334 202.000
42.61328 215.000
42.63323 192.000
42.65318 225.000
42.67312 187.000
42.69307 236.000
42.71302 240.000
42.73296 213.000
42.75291 259.000
42.77286 240.000
42.79281 261.000
42.81275 225.000
42.83270 290.000
42.85265 236.000
42.87259 304.000
42.89254 264.000
42.91249 303.000
42.93243 315.000
42.95238 307.000
42.97233 358.000
42.99227 372.000
43.01222 417.000
43.03217 489.000
43.05212 499.000
43.07206 598.000
43.09201 689.000
43.11196 721.000
43.13190 736.000
43.15185 760.000
43.17180 680.000
43.19174 684.000
43.21169 632.000
43.23164 643.000
43.25159 572.000
43.27153 455.000
43.29148 458.000
43.31143 399.000
43.33137 337.000
43.35132 302.000
43.37127 262.000
43.39121 255.000
43.41116 211.000
43.43111 238.000
43.45105 227.000
43.47100 215.000
43.49095 195.000
43.51090 202.000
43.53084 201.000
43.55079 220.000
43.57074 205.000
43.59068 198.000
43.61063 196.000
43.63058 183.000
43.65052 211.000
43.67047 197.000
43.69042 177.000
43.71037 199.000
43.73031 186.000
43.75026 165.000
43.77021 177.000
43.79015 200.000
43.81010 174.000
43.83005 209.000
43.84999 176.000
43.86994 194.000
43.88989 193.000
43.90984 185.000
43.92978 159.000
43.94973 195.000
43.96968 184.000
43.98962 176.000
44.00957 181.000
44.02952 183.000
44.04946 182.000
44.06941 216.000
44.08936 180.000
44.10930 207.000
44.12925 172.000
44.14920 203.000
44.16915 178.000
44.18909 196.000
44.20904 178.000
44.22899 176.000
44.24893 210.000
44.26888 190.000
44.28883 187.000
44.30877 204.000
44.32872 184.000
44.34867 173.000
44.36862 190.000
44.38856 173.000
44.40851 175.000
44.42846 184.000
44.44840 173.000
44.46835 174.000
44.48830 189.000
44.50824 196.000
44.52819 163.000
44.54814 165.000
44.56808 157.000
44.58803 178.000
44.60798 174.000
44.62793 197.000
44.64787 160.000
44.66782 183.000
44.68777 210.000
44.70771 206.000
44.72766 173.000
44.74761 183.000
44.76755 174.000
44.78750 185.000
44.80745 176.000
44.82740 181.000
44.84734 215.000
44.86729 196.000
44.88724 188.000
44.90718 177.000
44.92713 192.000
44.94708 188.000
44.96702 205.000
44.98697 209.000
45.00692 178.000
45.02686 200.000
45.04681 206.000
45.06676 189.000
45.08671 180.000
45.10665 192.000
45.12660 178.000
45.14655 173.000
45.16649 189.000
45.18644 192.000
45.20639 205.000
45.22633 161.000
45.24628 166.000
45.26623 192.000
45.28618 190.000
45.30612 181.000
45.32607 170.000
45.34602 177.000
45.36596 183.000
45.38591 184.000
45.40586 190.000
45.42580 155.000
45.44575 179.000
45.46570 179.000
45.48565 183.000
45.50559 184.000
45.52554 169.000
45.54549 165.000
45.56543 166.000
45.58538 172.000
45.60533 193.000
45.62527 184.000
45.64522 180.000
45.66517 168.000
45.68511 199.000
45.70506 158.000
45.72501 193.000
45.74496 187.000
45.76490 152.000
45.78485 164.000
45.80480 168.000
45.82474 165.000
45.84469 181.000
45.86464 165.000
45.88458 205.000
45.90453 188.000
45.92448 164.000
45.94443 158.000
45.96437 172.000
45.98432 189.000
46.00427 190.000
46.02421 193.000
46.04416 175.000
46.06411 193.000
46.08405 208.000
46.10400 172.000
46.12395 155.000
46.14389 173.000
46.16384 189.000
46.18379 159.000
46.20374 200.000
46.22368 190.000
46.24363 168.000
46.26358 158.000
46.28352 183.000
46.30347 182.000
46.32342 173.000
46.34336 161.000
46.36331 187.000
46.38326 173.000
46.40321 181.000
46.42315 180.000
46.44310 197.000
46.46305 162.000
46.48299 188.000
46.50294 181.000
46.52289 155.000
46.54283 175.000
46.56278 205.000
46.58273 170.000
46.60267 156.000
46.62262 163.000
46.64257 175.000
46.66252 180.000
46.68246 173.000
46.70241 178.000
46.72236 182.000
46.74230 184.000
46.76225 144.000
46.78220 177.000
46.80214 181.000
46.82209 184.000
46.84204 183.000
46.86199 185.000
46.88193 184.000
46.90188 167.000
46.92183 204.000
46.94177 171.000
46.96172 163.000
46.98167 170.000
47.00161 180.000
47.02156 183.000
47.04151 172.000
47.06146 167.000
47.08140 179.000
47.10135 180.000
47.12130 160.000
47.14124 174.000
47.16119 181.000
47.18114 174.000
47.20108 186.000
47.22103 172.000
47.24098 180.000
47.26092 195.000
47.28087 195.000
47.30082 165.000
47.32077 175.000
47.34071 197.000
47.36066 165.000
47.38061 208.000
47.40055 183.000
47.42050 191.000
47.44045 192.000
47.46039 184.000
47.48034 160.000
47.50029 167.000
47.52024 180.000
47.54018 139.000
47.56013 154.000
47.58008 177.000
47.60002 148.000
47.61997 180.000
47.63992 161.000
47.65986 174.000
47.67981 156.000
47.69976 154.000
47.71970 150.000
47.73965 174.000
47.75960 173.000
47.77955 155.000
47.79949 194.000
47.81944 158.000
47.83939 165.000
47.85933 165.000
47.87928 145.000
47.89923 167.000
47.91917 158.000
47.93912 185.000
47.95907 147.000
47.97902 180.000
47.99896 163.000
48.01891 181.000
48.03886 187.000
48.05880 184.000
48.07875 197.000
48.09870 155.000
48.11864 170.000
48.13859 176.000
48.15854 193.000
48.17848 182.000
48.19843 181.000
48.21838 155.000
48.23833 200.000
48.25827 196.000
48.27822 169.000
48.29817 177.000
48.31811 190.000
48.33806 214.000
48.35801 208.000
48.37795 183.000
48.39790 201.000
48.41785 175.000
48.43780 195.000
48.45774 206.000
48.47769 197.000
48.49764 234.000
48.51758 221.000
48.53753 230.000
48.55748 242.000
48.57742 271.000
48.59737 266.000
48.61732 292.000
48.63726 248.000
48.65721 264.000
48.67716 257.000
48.69711 258.000
48.71705 228.000
48.73700 221.000
48.75695 266.000
48.77689 238.000
48.79684 224.000
48.81679 225.000
48.83673 198.000
48.85668 196.000
48.87663 193.000
48.89658 197.000
48.91652 170.000
48.93647 188.000
48.95642 177.000
48.97636 194.000
48.99631 179.000
49.01626 201.000
49.03620 205.000
49.05615 184.000
49.07610 185.000
49.09605 171.000
49.11599 163.000
49.13594 174.000
49.15589 187.000
49.17583 195.000
49.19578 173.000
49.21573 190.000
49.23567 173.000
49.25562 182.000
49.27557 155.000
49.29551 216.000
49.31546 176.000
49.33541 188.000
49.35536 175.000
49.37530 184.000
49.39525 193.000
49.41520 178.000
49.43514 173.000
49.45509 161.000
49.47504 194.000
49.49498 172.000
49.51493 199.000
49.53488 190.000
49.55483 174.000
49.57477 169.000
49.59472 160.000
49.61467 173.000
49.63461 191.000
49.65456 200.000
49.67451 167.000
49.69445 196.000
49.71440 168.000
49.73435 176.000
49.75429 157.000
49.77424 167.000
49.79419 178.000
49.81414 151.000
49.83408 160.000
49.85403 191.000
49.87398 175.000
49.89392 190.000
49.91387 159.000
49.93382 173.000
49.95376 170.000
49.97371 167.000
49.99366 184.000
50.01361 158.000
50.03355 128.000
50.05350 160.000
50.07345 171.000
50.09339 179.000
50.11334 143.000
50.13329 165.000
50.15323 146.000
50.17318 190.000
50.19313 165.000
50.21307 143.000
50.23302 165.000
50.25297 144.000
50.27292 178.000
50.29286 160.000
50.31281 125.000
50.33276 195.000
50.35270 152.000
50.37265 165.000
50.39260 179.000
50.41254 186.000
50.43249 166.000
50.45244 174.000
50.47239 171.000
50.49233 168.000
50.51228 181.000
50.53223 174.000
50.55217 183.000
50.57212 188.000
50.59207 153.000
50.61201 195.000
50.63196 183.000
50.65191 163.000
50.67186 172.000
50.69180 162.000
50.71175 185.000
50.73170 172.000
50.75164 185.000
50.77159 165.000
50.79154 175.000
50.81148 183.000
50.83143 179.000
50.85138 162.000
50.87132 185.000
50.89127 185.000
50.91122 190.000
50.93117 179.000
50.95111 160.000
50.97106 190.000
50.99101 158.000
51.01095 159.000
51.03090 157.000
51.05085 169.000
51.07079 165.000
51.09074 165.000
51.11069 182.000
51.13064 150.000
51.15058 174.000
51.17053 173.000
51.19048 174.000
51.21042 160.000
51.23037 157.000
51.25032 175.000
51.27026 154.000
51.29021 166.000
51.31016 176.000
51.33010 166.000
51.35005 166.000
51.37000 172.000
51.38995 154.000
51.40989 163.000
51.42984 157.000
51.44979 190.000
51.46973 166.000
51.48968 143.000
51.50963 167.000
51.52957 165.000
51.54952 144.000
51.56947 169.000
51.58942 142.000
51.60936 154.000
51.62931 152.000
51.64926 139.000
51.66920 155.000
51.68915 153.000
51.70910 157.000
51.72904 174.000
51.74899 179.000
51.76894 152.000
51.78888 164.000
51.80883 139.000
51.82878 169.000
51.84873 159.000
51.86867 141.000
51.88862 178.000
51.90857 170.000
51.92851 162.000
51.94846 169.000
51.96841 153.000
51.98835 157.000
52.00830 162.000
52.02825 178.000
52.04820 137.000
52.06814 177.000
52.08809 170.000
52.10804 183.000
52.12798 154.000
52.14793 181.000
52.16788 175.000
52.18782 156.000
52.20777 172.000
52.22772 132.000
52.24767 163.000
52.26761 172.000
52.28756 136.000
52.30751 151.000
52.32745 178.000
52.34740 168.000
52.36735 163.000
52.38729 170.000
52.40724 164.000
52.42719 172.000
52.44713 156.000
52.46708 170.000
52.48703 186.000
52.50698 177.000
52.52692 157.000
52.54687 181.000
52.56682 157.000
52.58676 170.000
52.60671 178.000
52.62666 171.000
52.64660 165.000
52.66655 175.000
52.68650 145.000
52.70645 171.000
52.72639 167.000
52.74634 169.000
52.76629 159.000
52.78623 171.000
52.80618 140.000
52.82613 173.000
52.84607 142.000
52.86602 179.000
52.88597 202.000
52.90591 167.000
52.92586 173.000
52.94581 166.000
52.96576 177.000
52.98570 176.000
53.00565 209.000
53.02560 174.000
53.04554 198.000
53.06549 161.000
53.08544 206.000
53.10538 185.000
53.12533 169.000
53.14528 216.000
53.16523 168.000
53.18517 216.000
53.20512 183.000
53.22507 202.000
53.24501 195.000
53.26496 215.000
53.28491 240.000
53.30485 237.000
53.32480 234.000
53.34475 227.000
53.36469 238.000
53.38464 248.000
53.40459 257.000
53.42454 257.000
53.44448 238.000
53.46443 308.000
53.48438 320.000
53.50432 350.000
53.52427 368.000
53.54422 383.000
53.56416 412.000
53.58411 410.000
53.60406 391.000
53.62401 335.000
53.64395 347.000
53.66390 312.000
53.68385 334.000
53.70379 286.000
53.72374 296.000
53.74369 292.000
53.76363 271.000
53.78358 243.000
53.80353 234.000
53.82348 201.000
53.84342 202.000
53.86337 202.000
53.88332 207.000
53.90326 184.000
53.92321 173.000
53.94316 202.000
53.96310 176.000
53.98305 195.000
54.00300 161.000
54.02294 146.000
54.04289 192.000
54.06284 177.000
54.08279 198.000
54.10273 159.000
54.12268 159.000
54.14263 148.000
54.16257 173.000
54.18252 168.000
54.20247 171.000
54.22241 149.000
54.24236 168.000
54.26231 164.000
54.28226 182.000
54.30220 161.000
54.32215 179.000
54.34210 172.000
54.36204 162.000
54.38199 166.000
54.40194 184.000
54.42188 170.000
54.44183 169.000
54.46178 176.000
54.48172 171.000
54.50167 181.000
54.52162 149.000
54.54157 153.000
54.56151 151.000
54.58146 169.000
54.60141 176.000
54.62135 174.000
54.64130 183.000
54.66125 172.000
54.68119 194.000
54.70114 156.000
54.72109 186.000
54.74104 158.000
54.76098 176.000
54.78093 152.000
54.80088 156.000
54.82082 155.000
54.84077 187.000
54.86072 172.000
54.88066 179.000
54.90061 179.000
54.92056 173.000
54.94050 175.000
54.96045 170.000
54.98040 179.000
55.00035 172.000
55.02029 152.000
55.04024 159.000
55.06019 173.000
55.08013 193.000
55.10008 167.000
55.12003 166.000
55.13997 161.000
55.15992 174.000
55.17987 164.000
55.19982 176.000
55.21976 195.000
55.23971 196.000
55.25966 165.000
55.27960 181.000
55.29955 170.000
55.31950 169.000
55.33944 158.000
55.35939 158.000
55.37934 166.000
55.39929 179.000
55.41923 175.000
55.43918 177.000
55.45913 151.000
55.47907 179.000
55.49902 173.000
55.51897 170.000
55.53891 176.000
55.55886 174.000
55.57881 159.000
55.59875 178.000
55.61870 167.000
55.63865 162.000
55.65860 172.000
55.67854 190.000
55.69849 152.000
55.71844 173.000
55.73838 158.000
55.75833 200.000
55.77828 170.000
55.79822 163.000
55.81817 189.000
55.83812 160.000
55.85807 176.000
55.87801 147.000
55.89796 152.000
55.91791 151.000
55.93785 163.000
55.95780 199.000
55.97775 151.000
55.99769 154.000
56.01764 177.000
56.03759 159.000
56.05753 179.000
56.07748 171.000
56.09743 156.000
56.11738 193.000
56.13732 190.000
56.15727 197.000
56.17722 181.000
56.19716 175.000
56.21711 159.000
56.23706 165.000
56.25700 166.000
56.27695 168.000
56.29690 156.000
56.31685 177.000
56.33679 175.000
56.35674 170.000
56.37669 176.000
56.39663 151.000
56.41658 184.000
56.43653 193.000
56.45647 199.000
56.47642 157.000
56.49637 167.000
56.51631 171.000
56.53626 198.000
56.55621 186.000
56.57616 177.000
56.59610 185.000
56.61605 171.000
56.63600 215.000
56.65594 197.000
56.67589 201.000
56.69584 221.000
56.71578 206.000
56.73573 215.000
56.75568 217.000
56.77563 206.000
56.79557 222.000
56.81552 244.000
56.83547 256.000
56.85541 252.000
56.87536 287.000
56.89531 272.000
56.91525 324.000
56.93520 333.000
56.95515 388.000
56.97510 437.000
56.99504 481.000
57.01499 513.000
57.03494 620.000
57.05488 642.000
57.07483 757.000
57.09478 781.000
57.11472 805.000
57.13467 783.000
57.15462 822.000
57.17456 806.000
57.19451 668.000
57.21446 650.000
57.23441 671.000
57.25435 658.000
57.27430 570.000
57.29425 537.000
57.31419 471.000
57.33414 409.000
57.35409 347.000
57.37403 350.000
57.39398 304.000
57.41393 255.000
57.43388 249.000
57.45382 229.000
57.47377 210.000
57.49372 245.000
57.51366 207.000
57.53361 194.000
57.55356 191.000
57.57350 192.000
57.59345 182.000
57.61340 203.000
57.63334 210.000
57.65329 204.000
57.67324 187.000
57.69319 169.000
57.71313 165.000
57.73308 185.000
57.75303 195.000
57.77297 158.000
57.79292 179.000
57.81287 159.000
57.83281 150.000
57.85276 165.000
57.87271 185.000
57.89266 168.000
57.91260 173.000
57.93255 174.000
57.95250 179.000
57.97244 175.000
57.99239 210.000
58.01234 198.000
58.03228 220.000
58.05223 197.000
58.07218 209.000
58.09212 188.000
58.11207 235.000
58.13202 192.000
58.15197 225.000
58.17191 182.000
58.19186 199.000
58.21181 205.000
58.23175 195.000
58.25170 201.000
58.27165 195.000
58.29159 206.000
58.31154 176.000
58.33149 165.000
58.35144 185.000
58.37138 182.000
58.39133 177.000
58.41128 175.000
58.43122 164.000
58.45117 173.000
58.47112 191.000
58.49106 175.000
58.51101 170.000
58.53096 175.000
58.55090 159.000
58.57085 162.000
58.59080 179.000
58.61075 188.000
58.63069 177.000
58.65064 179.000
58.67059 151.000
58.69053 144.000
58.71048 201.000
58.73043 151.000
58.75037 173.000
58.77032 147.000
58.79027 158.000
58.81022 172.000
58.83016 170.000
58.85011 154.000
58.87006 189.000
58.89000 169.000
58.90995 165.000
58.92990 171.000
58.94984 165.000
58.96979 167.000
58.98974 182.000
59.00969 166.000
59.02963 167.000
59.04958 150.000
59.06953 168.000
59.08947 183.000
59.10942 158.000
59.12937 165.000
59.14931 173.000
59.16926 179.000
59.18921 177.000
59.20915 162.000
59.22910 155.000
59.24905 146.000
59.26900 159.000
59.28894 184.000
59.30889 167.000
59.32884 152.000
59.34878 144.000
59.36873 174.000
59.38868 168.000
59.40862 150.000
59.42857 177.000
59.44852 178.000
59.46847 157.000
59.48841 172.000
59.50836 158.000
59.52831 185.000
59.54825 176.000
59.56820 176.000
59.58815 155.000
59.60809 173.000
59.62804 158.000
59.64799 187.000
59.66793 156.000
59.68788 175.000
59.70783 181.000
59.72778 184.000
59.74772 183.000
59.76767 192.000
59.78762 176.000
59.80756 180.000
59.82751 164.000
59.84746 178.000
59.86740 190.000
59.88735 172.000
59.90730 175.000
59.92725 163.000
59.94719 195.000
59.96714 188.000
59.98709 178.000
60.00703 199.000
60.02698 167.000
60.04693 199.000
60.06687 161.000
60.08682 177.000
60.10677 175.000
60.12671 169.000
60.14666 185.000
60.16661 192.000
60.18656 179.000
60.20650 196.000
60.22645 174.000
60.24640 163.000
60.26634 167.000
60.28629 173.000
60.30624 174.000
60.32618 176.000
60.34613 200.000
60.36608 184.000
60.38603 171.000
60.40597 203.000
60.42592 195.000
60.44587 173.000
60.46581 182.000
60.48576 210.000
60.50571 186.000
60.52565 197.000
60.54560 169.000
60.56555 183.000
60.58550 202.000
60.60544 183.000
60.62539 159.000
60.64534 181.000
60.66528 177.000
60.68523 174.000
60.70518 178.000
60.72512 185.000
60.74507 204.000
60.76502 199.000
60.78496 173.000
60.80491 190.000
60.82486 185.000
60.84481 192.000
60.86475 199.000
60.88470 165.000
60.90465 175.000
60.92459 175.000
60.94454 216.000
60.96449 197.000
60.98443 213.000
61.00438 185.000
61.02433 211.000
61.04428 205.000
61.06422 220.000
61.08417 201.000
61.10412 159.000
61.12406 203.000
61.14401 210.000
61.16396 225.000
61.18390 208.000
61.20385 215.000
61.22380 246.000
61.24374 202.000
61.26369 213.000
61.28364 197.000
61.30359 228.000
61.32353 250.000
61.34348 241.000
61.36343 238.000
61.38337 298.000
61.40332 253.000
61.42327 234.000
61.44321 262.000
61.46316 269.000
61.48311 247.000
61.50306 221.000
61.52300 221.000
61.54295 235.000
61.56290 219.000
61.58284 243.000
61.60279 231.000
61.62274 195.000
61.64268 200.000
61.66263 209.000
61.68258 196.000
61.70252 211.000
61.72247 195.000
61.74242 191.000
61.76237 181.000
61.78231 204.000
61.80226 212.000
61.82221 190.000
61.84215 207.000
61.86210 220.000
61.88205 223.000
61.90199 204.000
61.92194 188.000
61.94189 193.000
61.96184 210.000
61.98178 166.000
62.00173 210.000
62.02168 221.000
62.04162 214.000
62.06157 206.000
62.08152 198.000
62.10146 223.000
62.12141 172.000
62.14136 208.000
62.16131 205.000
62.18125 193.000
62.20120 192.000
62.22115 195.000
62.24109 213.000
62.26104 208.000
62.28099 201.000
62.30093 228.000
62.32088 200.000
62.34083 237.000
62.36077 251.000
62.38072 234.000
62.40067 245.000
62.42062 247.000
62.44056 264.000
62.46051 261.000
62.48046 308.000
62.50040 300.000
62.52035 359.000
62.54030 363.000
62.56024 377.000
62.58019 441.000
62.60014 520.000
62.62009 547.000
62.64003 643.000
62.65998 801.000
62.67993 881.000
62.69987 887.000
62.71982 1001.000
62.73977 961.000
62.75971 1034.000
62.77966 946.000
62.79961 907.000
62.81955 840.000
62.83950 803.000
62.85945 755.000
62.87940 785.000
62.89934 712.000
62.91929 707.000
62.93924 647.000
62.95918 568.000
62.97913 522.000
62.99908 420.000
63.01902 420.000
63.03897 338.000
63.05892 280.000
63.07887 285.000
63.09881 258.000
63.11876 219.000
63.13871 240.000
63.15865 227.000
63.17860 217.000
63.19855 194.000
63.21849 202.000
63.23844 196.000
63.25839 186.000
63.27833 161.000
63.29828 181.000
63.31823 185.000
63.33818 175.000
63.35812 175.000
63.37807 191.000
63.39802 194.000
63.41796 171.000
63.43791 165.000
63.45786 174.000
63.47780 187.000
63.49775 190.000
63.51770 159.000
63.53765 167.000
63.55759 178.000
63.57754 161.000
63.59749 154.000
63.61743 162.000
63.63738 155.000
63.65733 152.000
63.67727 176.000
63.69722 194.000
63.71717 176.000
63.73712 173.000
63.75706 179.000
63.77701 148.000
63.79696 162.000
63.81690 181.000
63.83685 160.000
63.85680 161.000
63.87674 149.000
63.89669 173.000
63.91664 169.000
63.93658 176.000
63.95653 174.000
63.97648 143.000
63.99643 158.000
64.01637 158.000
64.03632 161.000
64.05627 177.000
64.07621 146.000
64.09616 172.000
64.11611 168.000
64.13605 143.000
64.15600 177.000
64.17595 147.000
64.19590 161.000
64.21584 159.000
64.23579 145.000
64.25574 163.000
64.27568 192.000
64.29563 147.000
64.31558 158.000
64.33552 172.000
64.35547 157.000
64.37542 170.000
64.39536 167.000
64.41531 165.000
64.43526 172.000
64.45521 175.000
64.47515 143.000
64.49510 152.000
64.51505 166.000
64.53499 150.000
64.55494 176.000
64.57489 177.000
64.59483 156.000
64.61478 179.000
64.63473 155.000
64.65468 158.000
64.67462 162.000
64.69457 177.000
64.71452 168.000
64.73446 165.000
64.75441 167.000
64.77436 147.000
64.79430 155.000
64.81425 175.000
64.83420 185.000
64.85414 164.000
64.87409 160.000
64.89404 168.000
64.91399 174.000
64.93393 175.000
64.95388 178.000
64.97383 157.000
64.99377 159.000
65.01372 164.000
65.03367 191.000
65.05361 175.000
65.07356 163.000
65.09351 185.000
65.11346 182.000
65.13340 162.000
65.15335 157.000
65.17330 157.000
65.19324 165.000
65.21319 176.000
65.23314 180.000
65.25308 157.000
65.27303 163.000
65.29298 156.000
65.31293 192.000
65.33287 155.000
65.35282 168.000
65.37277 202.000
65.39271 179.000
65.41266 182.000
65.43261 186.000
65.45255 159.000
65.47250 182.000
65.49245 156.000
65.51239 181.000
65.53234 181.000
65.55229 186.000
65.57224 221.000
65.59218 193.000
65.61213 186.000
65.63208 195.000
65.65202 215.000
65.67197 196.000
65.69192 203.000
65.71186 208.000
65.73181 219.000
65.75176 205.000
65.77171 199.000
65.79165 226.000
65.81160 194.000
65.83155 201.000
65.85149 216.000
65.87144 227.000
65.89139 196.000
65.91133 203.000
65.93128 225.000
65.95123 249.000
65.97117 217.000
65.99112 217.000
66.01107 232.000
66.03102 209.000
66.05096 190.000
66.07091 206.000
66.09086 233.000
66.11080 258.000
66.13075 237.000
66.15070 226.000
66.17064 240.000
66.19059 242.000
66.21054 205.000
66.23049 204.000
66.25043 191.000
66.27038 229.000
66.29033 204.000
66.31027 201.000
66.33022 182.000
66.35017 214.000
66.37011 185.000
66.39006 205.000
66.41001 187.000
66.42995 151.000
66.44990 173.000
66.46985 165.000
66.48980 164.000
66.50974 148.000
66.52969 161.000
66.54964 126.000
66.56958 177.000
66.58953 169.000
66.60948 161.000
66.62942 153.000
66.64937 167.000
66.66932 158.000
66.68927 168.000
66.70921 145.000
66.72916 175.000
66.74911 172.000
66.76905 172.000
66.78900 158.000
66.80895 171.000
66.82889 157.000
66.84884 167.000
66.86879 166.000
66.88874 162.000
66.90868 129.000
66.92863 151.000
66.94858 184.000
66.96852 159.000
66.98847 143.000
67.00842 156.000
67.02836 151.000
67.04831 151.000
67.06826 166.000
67.08820 156.000
67.10815 146.000
67.12810 150.000
67.14805 157.000
67.16799 155.000
67.18794 151.000
67.20789 164.000
67.22783 150.000
67.24778 137.000
67.26773 165.000
67.28767 165.000
67.30762 148.000
67.32757 148.000
67.34752 167.000
67.36746 157.000
67.38741 163.000
67.40736 164.000
67.42730 147.000
67.44725 160.000
67.46720 173.000
67.48714 153.000
67.50709 169.000
67.52704 163.000
67.54698 167.000
67.56693 179.000
67.58688 170.000
67.60683 180.000
67.62677 183.000
67.64672 165.000
67.66667 197.000
67.68661 199.000
67.70656 185.000
67.72651 194.000
67.74645 192.000
67.76640 164.000
67.78635 183.000
67.80630 186.000
67.82624 200.000
67.84619 195.000
67.86614 192.000
67.88608 182.000
67.90603 191.000
67.92598 205.000
67.94592 229.000
67.96587 202.000
67.98582 196.000
68.00576 189.000
68.02571 196.000
68.04566 181.000
68.06561 175.000
68.08555 180.000
68.10550 202.000
68.12545 193.000
68.14539 194.000
68.16534 198.000
68.18529 169.000
68.20523 151.000
68.22518 180.000
68.24513 176.000
68.26508 199.000
68.28502 170.000
68.30497 168.000
68.32492 151.000
68.34486 143.000
68.36481 154.000
68.38476 151.000
68.40470 165.000
68.42465 149.000
68.44460 166.000
68.46455 163.000
68.48449 184.000
68.50444 189.000
68.52439 168.000
68.54433 153.000
68.56428 146.000
68.58423 147.000
68.60417 144.000
68.62412 131.000
68.64407 161.000
68.66401 156.000
68.68396 164.000
68.70391 155.000
68.72386 147.000
68.74380 152.000
68.76375 154.000
68.78370 156.000
68.80364 160.000
68.82359 157.000
68.84354 162.000
68.86348 166.000
68.88343 168.000
68.90338 167.000
68.92333 143.000
68.94327 166.000
68.96322 181.000
68.98317 154.000
69.00311 150.000
69.02306 140.000
69.04301 145.000
69.06295 167.000
69.08290 165.000
69.10285 156.000
69.12279 145.000
69.14274 160.000
69.16269 163.000
69.18264 166.000
69.20258 142.000
69.22253 129.000
69.24248 176.000
69.26242 148.000
69.28237 153.000
69.30232 149.000
69.32226 155.000
69.34221 151.000
69.36216 154.000
69.38211 158.000
69.40205 148.000
69.42200 140.000
69.44195 160.000
69.46189 158.000
69.48184 154.000
69.50179 152.000
69.52173 164.000
69.54168 177.000
69.56163 130.000
69.58157 134.000
69.60152 127.000
69.62147 140.000
69.64142 150.000
69.66136 139.000
69.68131 164.000
69.70126 145.000
69.72120 134.000
69.74115 151.000
69.76110 143.000
69.78104 139.000
69.80099 189.000
69.82094 162.000
69.84089 157.000
69.86083 156.000
69.88078 139.000
69.90073 161.000
69.92067 153.000
69.94062 146.000
69.96057 136.000
69.98051 162.000
70.00046 159.000
70.02041 149.000
70.04035 148.000
70.06030 160.000
70.08025 134.000
70.10020 144.000
70.12014 158.000
70.14009 162.000
70.16004 149.000
70.17998 135.000
70.19993 182.000
70.21988 153.000
70.23982 168.000
70.25977 147.000
70.27972 148.000
70.29967 156.000
70.31961 177.000
70.33956 166.000
70.35951 169.000
70.37945 151.000
70.39940 164.000
70.41935 153.000
70.43929 140.000
70.45924 138.000
70.47919 183.000
70.49914 137.000
70.51908 153.000
70.53903 158.000
70.55898 138.000
70.57892 145.000
70.59887 142.000
70.61882 155.000
70.63876 150.000
70.65871 169.000
70.67866 166.000
70.69860 184.000
70.71855 178.000
70.73850 164.000
70.75845 138.000
70.77839 152.000
70.79834 166.000
70.81829 156.000
70.83823 151.000
70.85818 158.000
70.87813 156.000
70.89807 164.000
70.91802 176.000
70.93797 172.000
70.95792 161.000
70.97786 164.000
70.99781 170.000
71.01776 185.000
71.03770 152.000
71.05765 190.000
71.07760 175.000
71.09754 202.000
71.11749 176.000
71.13744 221.000
71.15738 202.000
71.17733 234.000
71.19728 243.000
71.21723 207.000
71.23717 234.000
71.25712 238.000
71.27707 223.000
71.29701 226.000
71.31696 189.000
71.33691 211.000
71.35685 209.000
71.37680 186.000
71.39675 209.000
71.41670 213.000
71.43664 184.000
71.45659 192.000
71.47654 184.000
71.49648 173.000
71.51643 207.000
71.53638 189.000
71.55632 192.000
71.57627 182.000
71.59622 159.000
71.61616 206.000
71.63611 188.000
71.65606 168.000
71.67601 158.000
71.69595 174.000
71.71590 157.000
71.73585 180.000
71.75579 153.000
71.77574 124.000
71.79569 162.000
71.81563 149.000
71.83558 167.000
71.85553 154.000
71.87548 148.000
71.89542 175.000
71.91537 160.000
71.93532 148.000
71.95526 151.000
71.97521 155.000
71.99516 165.000
72.01510 139.000
72.03505 147.000
72.05500 173.000
72.07495 157.000
72.09489 167.000
72.11484 158.000
72.13479 176.000
72.15473 157.000
72.17468 159.000
72.19463 176.000
72.21457 167.000
72.23452 181.000
72.25447 178.000
72.27441 190.000
72.29436 188.000
72.31431 182.000
72.33426 165.000
72.35420 172.000
72.37415 178.000
72.39410 179.000
72.41404 164.000
72.43399 164.000
72.45394 178.000
72.47388 175.000
72.49383 147.000
72.51378 152.000
72.53373 176.000
72.55367 149.000
72.57362 164.000
72.59357 148.000
72.61351 145.000
72.63346 177.000
72.65341 158.000
72.67335 161.000
72.69330 168.000
72.71325 162.000
72.73319 141.000
72.75314 147.000
72.77309 170.000
72.79304 143.000
72.81298 183.000
72.83293 154.000
72.85288 153.000
72.87282 143.000
72.89277 159.000
72.91272 139.000
72.93266 150.000
72.95261 154.000
72.97256 136.000
72.99251 143.000
73.01245 147.000
73.03240 149.000
73.05235 130.000
73.07229 156.000
73.09224 162.000
73.11219 166.000
73.13213 168.000
73.15208 148.000
73.17203 150.000
73.19197 174.000
73.21192 160.000
73.23187 146.000
73.25182 161.000
73.27176 139.000
73.29171 144.000
73.31166 144.000
73.33160 139.000
73.35155 158.000
73.37150 146.000
73.39144 131.000
73.41139 149.000
73.43134 166.000
73.45129 169.000
73.47123 148.000
73.49118 142.000
73.51113 160.000
73.53107 154.000
73.55102 143.000
73.57097 144.000
73.59091 142.000
73.61086 155.000
73.63081 163.000
73.65076 145.000
73.67070 168.000
73.69065 166.000
73.71060 142.000
73.73054 143.000
73.75049 190.000
73.77044 154.000
73.79038 167.000
73.81033 148.000
73.83028 155.000
73.85022 172.000
73.87017 164.000
73.89012 171.000
73.91007 162.000
73.93001 157.000
73.94996 172.000
73.96991 163.000
73.98985 184.000
74.00980 171.000
74.02975 185.000
74.04969 164.000
74.06964 211.000
74.08959 197.000
74.10954 238.000
74.12948 201.000
74.14943 210.000
74.16938 274.000
74.18932 282.000
74.20927 251.000
74.22922 279.000
74.24916 304.000
74.26911 310.000
74.28906 295.000
74.30900 280.000
74.32895 310.000
74.34890 296.000
74.36885 264.000
74.38879 247.000
74.40874 279.000
74.42869 245.000
74.44863 253.000
74.46858 252.000
74.48853 272.000
74.50847 214.000
74.52842 252.000
74.54837 229.000
74.56832 225.000
74.58826 204.000
74.60821 197.000
74.62816 196.000
74.64810 211.000
74.66805 170.000
74.68800 169.000
74.70794 170.000
74.72789 170.000
74.74784 171.000
74.76778 176.000
74.78773 167.000
74.80768 171.000
74.82763 194.000
74.84757 180.000
74.86752 192.000
74.88747 165.000
74.90741 175.000
74.92736 171.000
74.94731 189.000
74.96725 184.000
74.98720 187.000
75.00715 201.000
75.02710 161.000
75.04704 172.000
75.06699 199.000
75.08694 200.000
75.10688 200.000
75.12683 223.000
75.14678 193.000
75.16672 207.000
75.18667 191.000
75.20662 211.000
75.22657 201.000
75.24651 237.000
75.26646 212.000
75.28641 216.000
75.30635 227.000
75.32630 220.000
75.34625 215.000
75.36619 205.000
75.38614 197.000
75.40609 208.000
75.42603 194.000
75.44598 179.000
75.46593 213.000
75.48588 216.000
75.50582 196.000
75.52577 185.000
75.54572 209.000
75.56566 148.000
75.58561 193.000
75.60556 176.000
75.62550 186.000
75.64545 168.000
75.66540 164.000
75.68535 173.000
75.70529 159.000
75.72524 171.000
75.74519 177.000
75.76513 159.000
75.78508 144.000
75.80503 161.000
75.82497 165.000
75.84492 174.000
75.86487 140.000
75.88481 138.000
75.90476 143.000
75.92471 129.000
75.94466 154.000
75.96460 162.000
75.98455 154.000
76.00450 149.000
76.02444 165.000
76.04439 156.000
76.06434 157.000
76.08428 164.000
76.10423 148.000
76.12418 154.000
76.14413 132.000
76.16407 160.000
76.18402 156.000
76.20397 153.000
76.22391 143.000
76.24386 139.000
76.26381 162.000
76.28375 141.000
76.30370 129.000
76.32365 124.000
76.34359 148.000
76.36354 146.000
76.38349 179.000
76.40344 154.000
76.42338 147.000
76.44333 151.000
76.46328 176.000
76.48322 147.000
76.50317 151.000
76.52312 159.000
76.54306 147.000
76.56301 119.000
76.58296 142.000
76.60291 130.000
76.62285 166.000
76.64280 169.000
76.66275 161.000
76.68269 168.000
76.70264 147.000
76.72259 125.000
76.74253 148.000
76.76248 156.000
76.78243 137.000
76.80238 138.000
76.82232 176.000
76.84227 151.000
76.86222 149.000
76.88216 174.000
76.90211 148.000
76.92206 160.000
76.94200 149.000
76.96195 162.000
76.98190 144.000
77.00184 159.000
77.02179 184.000
77.04174 147.000
77.06169 141.000
77.08163 146.000
77.10158 128.000
77.12153 151.000
77.14147 162.000
77.16142 143.000
77.18137 152.000
77.20131 156.000
77.22126 155.000
77.24121 150.000
77.26116 166.000
77.28110 123.000
77.30105 161.000
77.32100 151.000
77.34094 177.000
77.36089 151.000
77.38084 140.000
77.40078 120.000
77.42073 162.000
77.44068 155.000
77.46062 151.000
77.48057 156.000
77.50052 149.000
77.52047 131.000
77.54041 167.000
77.56036 138.000
77.58031 155.000
77.60025 134.000
77.62020 173.000
77.64015 148.000
77.66009 145.000
77.68004 151.000
77.69999 154.000
77.71994 165.000
77.73988 139.000
77.75983 127.000
77.77978 136.000
77.79972 167.000
77.81967 157.000
77.83962 131.000
77.85956 137.000
77.87951 157.000
77.89946 166.000
77.91940 142.000
77.93935 155.000
77.95930 123.000
77.97925 134.000
77.99919 130.000
78.01914 137.000
78.03909 153.000
78.05903 144.000
78.07898 151.000
78.09893 145.000
78.11887 162.000
78.13882 140.000
78.15877 163.000
78.17872 135.000
78.19866 140.000
78.21861 144.000
78.23856 184.000
78.25850 159.000
78.27845 142.000
78.29840 152.000
78.31834 160.000
78.33829 118.000
78.35824 142.000
78.37819 158.000
78.39813 139.000
78.41808 142.000
78.43803 148.000
78.45797 153.000
78.47792 160.000
78.49787 136.000
78.51781 168.000
78.53776 132.000
78.55771 140.000
78.57765 158.000
78.59760 165.000
78.61755 149.000
78.63750 154.000
78.65744 146.000
78.67739 142.000
78.69734 152.000
78.71728 147.000
78.73723 146.000
78.75718 131.000
78.77712 176.000
78.79707 166.000
78.81702 145.000
78.83697 171.000
78.85691 151.000
78.87686 157.000
78.89681 156.000
78.91675 132.000
78.93670 176.000
78.95665 161.000
78.97659 131.000
78.99654 175.000
79.01649 172.000
79.03643 150.000
79.05638 158.000
79.07633 186.000
79.09628 173.000
79.11622 162.000
79.13617 164.000
79.15612 166.000
79.17606 164.000
79.19601 194.000
79.21596 182.000
79.23590 190.000
79.25585 196.000
79.27580 212.000
79.29575 194.000
79.31569 186.000
79.33564 193.000
79.35559 210.000
79.37553 191.000
79.39548 194.000
79.41543 172.000
79.43537 195.000
79.45532 190.000
79.47527 177.000
79.49521 178.000
79.51516 188.000
79.53511 153.000
79.55506 170.000
79.57500 172.000
79.59495 165.000
79.61490 165.000
79.63484 157.000
79.65479 167.000
79.67474 145.000
79.69468 137.000
79.71463 151.000
79.73458 172.000
79.75453 138.000
79.77447 152.000
79.79442 145.000
79.81437 158.000
79.83431 166.000
79.85426 147.000
79.87421 159.000
79.89415 172.000
79.91410 182.000
79.93405 178.000
79.95399 162.000
79.97394 144.000
79.99389 133.000
80.01384 153.000
80.03378 155.000
80.05373 146.000
80.07368 147.000
80.09362 150.000
80.11357 156.000
80.13352 173.000
80.15346 152.000
80.17341 135.000
80.19336 151.000
80.21331 179.000
80.23325 150.000
80.25320 141.000
80.27315 157.000
80.29309 171.000
80.31304 156.000
80.33299 146.000
80.35293 151.000
80.37288 150.000
80.39283 159.000
80.41278 140.000
80.43272 160.000
80.45267 156.000
80.47262 155.000
80.49256 139.000
80.51251 166.000
80.53246 141.000
80.55240 150.000
80.57235 158.000
80.59230 146.000
80.61224 159.000
80.63219 136.000
80.65214 153.000
80.67209 153.000
80.69203 151.000
80.71198 162.000
80.73193 133.000
80.75187 133.000
80.77182 151.000
80.79177 163.000
80.81171 157.000
80.83166 153.000
80.85161 146.000
80.87156 164.000
80.89150 137.000
80.91145 142.000
80.93140 167.000
80.95134 157.000
80.97129 155.000
80.99124 146.000
81.01118 147.000
81.03113 134.000
81.05108 140.000
81.07102 141.000
81.09097 156.000
81.11092 152.000
81.13087 156.000
81.15081 150.000
81.17076 132.000
81.19071 135.000
81.21065 136.000
81.23060 132.000
81.25055 146.000
81.27049 165.000
81.29044 168.000
81.31039 158.000
81.33034 145.000
81.35028 157.000
81.37023 124.000
81.39018 165.000
81.41012 159.000
81.43007 142.000
81.45002 132.000
81.46996 158.000
81.48991 165.000
81.50986 136.000
81.52980 155.000
81.54975 151.000
81.56970 138.000
81.58965 165.000
81.60959 143.000
81.62954 145.000
81.64949 149.000
81.66943 152.000
81.68938 140.000
81.70933 146.000
81.72927 142.000
81.74922 143.000
81.76917 158.000
81.78912 150.000
81.80906 145.000
81.82901 157.000
81.84896 178.000
81.86890 143.000
81.88885 138.000
81.90880 139.000
81.92874 166.000
81.94869 149.000
81.96864 152.000
81.98859 163.000
82.00853 172.000
82.02848 164.000
82.04843 168.000
82.06837 149.000
82.08832 163.000
82.10827 173.000
82.12821 149.000
82.14816 147.000
82.16811 150.000
82.18805 155.000
82.20800 170.000
82.22795 179.000
82.24790 176.000
82.26784 155.000
82.28779 152.000
82.30774 168.000
82.32768 160.000
82.34763 159.000
82.36758 149.000
82.38752 165.000
82.40747 190.000
82.42742 161.000
82.44737 171.000
82.46731 169.000
82.48726 161.000
82.50721 154.000
82.52715 170.000
82.54710 157.000
82.56705 139.000
82.58699 136.000
82.60694 154.000
82.62689 150.000
82.64683 152.000
82.66678 171.000
82.68673 147.000
82.70668 163.000
82.72662 135.000
82.74657 177.000
82.76652 145.000
82.78646 149.000
82.80641 130.000
82.82636 154.000
82.84630 146.000
82.86625 178.000
82.88620 164.000
82.90615 150.000
82.92609 165.000
82.94604 147.000
82.96599 176.000
82.98593 144.000
83.00588 169.000
83.02583 173.000
83.04577 158.000
83.06572 157.000
83.08567 160.000
83.10561 167.000
83.12556 145.000
83.14551 138.000
83.16546 154.000
83.18540 152.000
83.20535 145.000
83.22530 153.000
83.24524 148.000
83.26519 159.000
83.28514 168.000
83.30508 161.000
83.32503 169.000
83.34498 157.000
83.36493 170.000
83.38487 167.000
83.40482 161.000
83.42477 145.000
83.44471 140.000
83.46466 166.000
83.48461 170.000
83.50455 176.000
83.52450 160.000
83.54445 162.000
83.56440 160.000
83.58434 169.000
83.60429 163.000
83.62424 162.000
83.64418 170.000
83.66413 157.000
83.68408 177.000
83.70402 174.000
83.72397 182.000
83.74392 183.000
83.76386 177.000
83.78381 173.000
83.80376 157.000
83.82371 154.000
83.84365 146.000
83.86360 162.000
83.88355 137.000
83.90349 169.000
83.92344 141.000
83.94339 141.000
83.96333 153.000
83.98328 164.000
84.00323 145.000
84.02318 164.000
84.04312 156.000
84.06307 140.000
84.08302 149.000
84.10296 165.000
84.12291 150.000
84.14286 158.000
84.16280 154.000
84.18275 157.000
84.20270 140.000
84.22264 158.000
84.24259 121.000
84.26254 154.000
84.28249 155.000
84.30243 169.000
84.32238 164.000
84.34233 148.000
84.36227 162.000
84.38222 141.000
84.40217 157.000
84.42211 163.000
84.44206 154.000
84.46201 149.000
84.48196 159.000
84.50190 134.000
84.52185 166.000
84.54180 181.000
84.56174 144.000
84.58169 148.000
84.60164 145.000
84.62158 144.000
84.64153 145.000
84.66148 154.000
84.68142 161.000
84.70137 155.000
84.72132 167.000
84.74127 152.000
84.76121 153.000
84.78116 137.000
84.80111 141.000
84.82105 139.000
84.84100 119.000
84.86095 149.000
84.88089 149.000
84.90084 165.000
84.92079 135.000
84.94074 147.000
84.96068 146.000
84.98063 171.000
85.00058 150.000
85.02052 145.000
85.04047 147.000
85.06042 127.000
85.08036 150.000
85.10031 161.000
85.12026 165.000
85.14021 179.000
85.16015 166.000
85.18010 141.000
85.20005 150.000
85.21999 140.000
85.23994 171.000
85.25989 129.000
85.27983 134.000
85.29978 133.000
85.31973 135.000
85.33967 141.000
85.35962 151.000
85.37957 137.000
85.39952 161.000
85.41946 150.000
85.43941 164.000
85.45936 146.000
85.47930 150.000
85.49925 167.000
85.51920 141.000
85.53914 162.000
85.55909 144.000
85.57904 172.000
85.59899 147.000
85.61893 167.000
85.63888 144.000
85.65883 142.000
85.67877 146.000
85.69872 170.000
85.71867 129.000
85.73861 135.000
85.75856 138.000
85.77851 158.000
85.79845 122.000
85.81840 143.000
85.83835 170.000
85.85830 114.000
85.87824 148.000
85.89819 140.000
85.91814 150.000
85.93808 141.000
85.95803 164.000
85.97798 146.000
85.99792 139.000
86.01787 149.000
86.03782 133.000
86.05777 147.000
86.07771 143.000
86.09766 155.000
86.11761 123.000
86.13755 134.000
86.15750 141.000
86.17745 144.000
86.19739 159.000
86.21734 147.000
86.23729 142.000
86.25723 153.000
86.27718 149.000
86.29713 133.000
86.31708 173.000
86.33702 151.000
86.35697 144.000
86.37692 157.000
86.39686 143.000
86.41681 143.000
86.43676 150.000
86.45670 155.000
86.47665 148.000
86.49660 152.000
86.51655 166.000
86.53649 146.000
86.55644 141.000
86.57639 165.000
86.59633 178.000
86.61628 135.000
86.63623 175.000
86.65617 154.000
86.67612 157.000
86.69607 144.000
86.71602 161.000
86.73596 158.000
86.75591 148.000
86.77586 167.000
86.79580 156.000
86.81575 139.000
86.83570 154.000
86.85564 171.000
86.87559 169.000
86.89554 189.000
86.91548 161.000
86.93543 141.000
86.95538 150.000
86.97533 171.000
86.99527 165.000
87.01522 186.000
87.03517 196.000
87.05511 197.000
87.07506 180.000
87.09501 200.000
87.11495 200.000
87.13490 200.000
87.15485 206.000
87.17480 211.000
87.19474 195.000
87.21469 205.000
87.23464 204.000
87.25458 191.000
87.27453 157.000
87.29448 194.000
87.31442 182.000
87.33437 178.000
87.35432 186.000
87.37426 178.000
87.39421 180.000
87.41416 189.000
87.43411 155.000
87.45405 181.000
87.47400 176.000
87.49395 192.000
87.51389 165.000
87.53384 179.000
87.55379 162.000
87.57373 163.000
87.59368 143.000
87.61363 147.000
87.63358 166.000
87.65352 148.000
87.67347 167.000
87.69342 170.000
87.71336 155.000
87.73331 153.000
87.75326 178.000
87.77320 149.000
87.79315 153.000
87.81310 144.000
87.83304 162.000
87.85299 166.000
87.87294 161.000
87.89289 165.000
87.91283 173.000
87.93278 130.000
87.95273 126.000
87.97267 143.000
87.99262 147.000
88.01257 168.000
88.03251 142.000
88.05246 145.000
88.07241 151.000
88.09236 130.000
88.11230 163.000
88.13225 153.000
88.15220 162.000
88.17214 142.000
88.19209 156.000
88.21204 168.000
88.23198 151.000
88.25193 152.000
88.27188 144.000
88.29183 153.000
88.31177 153.000
88.33172 152.000
88.35167 151.000
88.37161 155.000
88.39156 144.000
88.41151 146.000
88.43145 138.000
88.45140 134.000
88.47135 163.000
88.49129 168.000
88.51124 144.000
88.53119 124.000
88.55114 154.000
88.57108 142.000
88.59103 160.000
88.61098 151.000
88.63092 146.000
88.65087 145.000
88.67082 158.000
88.69076 166.000
88.71071 151.000
88.73066 142.000
88.75061 139.000
88.77055 138.000
88.79050 158.000
88.81045 116.000
88.83039 155.000
88.85034 156.000
88.87029 158.000
88.89023 160.000
88.91018 137.000
88.93013 156.000
88.95007 149.000
88.97002 139.000
88.98997 147.000
89.00992 167.000
89.02986 156.000
89.04981 153.000
89.06976 159.000
89.08970 157.000
89.10965 193.000
89.12960 156.000
89.14954 135.000
89.16949 169.000
89.18944 153.000
89.20939 147.000
89.22933 155.000
89.24928 166.000
89.26923 172.000
89.28917 143.000
89.30912 160.000
89.32907 139.000
89.34901 147.000
89.36896 135.000
89.38891 170.000
89.40885 137.000
89.42880 155.000
89.44875 167.000
89.46870 169.000
89.48864 141.000
89.50859 183.000
89.52854 172.000
89.54848 161.000
89.56843 171.000
89.58838 154.000
89.60832 161.000
89.62827 165.000
89.64822 171.000
89.66817 155.000
89.68811 184.000
89.70806 182.000
89.72801 172.000
89.74795 219.000
89.76790 190.000
89.78785 209.000
89.80779 203.000
89.82774 217.000
89.84769 206.000
89.86764 234.000
89.88758 231.000
89.90753 248.000
89.92748 269.000
89.94742 295.000
89.96737 305.000
89.98732 292.000
90.00726 353.000
