10.00000 121.000
10.01995 132.000
10.03989 122.000
10.05984 122.000
10.07979 102.000
10.09973 95.000
10.11968 113.000
10.13963 120.000
10.15958 98.000
10.17952 110.000
10.19947 97.000
10.21942 104.000
10.23936 120.000
10.25931 114.000
10.27926 93.000
10.29920 113.000
10.31915 96.000
10.33910 109.000
10.35905 101.000
10.37899 100.000
10.39894 109.000
10.41889 90.000
10.43883 117.000
10.45878 118.000
10.47873 108.000
10.49867 109.000
10.51862 104.000
10.53857 105.000
10.55851 133.000
10.57846 110.000
10.59841 109.000
10.61836 112.000
10.63830 119.000
10.65825 90.000
10.67820 127.000
10.69814 121.000
10.71809 107.000
10.73804 99.000
10.75798 107.000
10.77793 108.000
10.79788 111.000
10.81783 122.000
10.83777 95.000
10.85772 116.000
10.87767 93.000
10.89761 115.000
10.91756 102.000
10.93751 83.000
10.95745 95.000
10.97740 105.000
10.99735 110.000
11.01730 114.000
11.03724 113.000
11.05719 126.000
11.07714 103.000
11.09708 111.000
11.11703 126.000
11.13698 91.000
11.15692 96.000
11.17687 126.000
11.19682 109.000
11.21676 123.000
11.23671 102.000
11.25666 115.000
11.27661 116.000
11.29655 104.000
11.31650 133.000
11.33645 116.000
11.35639 122.000
11.37634 127.000
11.39629 115.000
11.41623 101.000
11.43618 102.000
11.45613 100.000
11.47608 104.000
11.49602 106.000
11.51597 116.000
11.53592 105.000
11.55586 108.000
11.57581 122.000
11.59576 109.000
11.61570 140.000
11.63565 102.000
11.65560 107.000
11.67554 108.000
11.69549 110.000
11.71544 103.000
11.73539 115.000
11.75533 105.000
11.77528 109.000
11.79523 116.000
11.81517 128.000
11.83512 111.000
11.85507 120.000
11.87501 103.000
11.89496 96.000
11.91491 114.000
11.93486 91.000
11.95480 121.000
11.97475 106.000
11.99470 123.000
12.01464 111.000
12.03459 114.000
12.05454 100.000
12.07448 99.000
12.09443 110.000
12.11438 99.000
12.13432 100.000
12.15427 117.000
12.17422 113.000
12.19417 106.000
12.21411 113.000
12.23406 107.000
12.25401 95.000
12.27395 107.000
12.29390 115.000
12.31385 118.000
12.33379 105.000
12.35374 127.000
12.37369 99.000
12.39364 107.000
12.41358 124.000
12.43353 133.000
12.45348 108.000
12.47342 107.000
12.49337 122.000
12.51332 105.000
12.53326 104.000
12.55321 120.000
12.57316 106.000
12.59311 109.000
12.61305 100.000
12.63300 105.000
12.65295 94.000
12.67289 108.000
12.69284 121.000
12.71279 107.000
12.73273 100.000
12.75268 131.000
12.77263 106.000
12.79257 119.000
12.81252 121.000
12.83247 100.000
12.85242 97.000
12.87236 100.000
12.89231 111.000
12.91226 100.000
12.93220 122.000
12.95215 105.000
12.97210 129.000
12.99204 112.000
13.01199 109.000
13.03194 97.000
13.05189 103.000
13.07183 102.000
13.09178 111.000
13.11173 113.000
13.13167 105.000
13.15162 117.000
13.17157 110.000
13.19151 114.000
13.21146 103.000
13.23141 121.000
13.25135 96.000
13.27130 108.000
13.29125 132.000
13.31120 89.000
13.33114 101.000
13.35109 117.000
13.37104 91.000
13.39098 101.000
13.41093 122.000
13.43088 92.000
13.45082 89.000
13.47077 126.000
13.49072 109.000
13.51067 120.000
13.53061 114.000
13.55056 101.000
13.57051 126.000
13.59045 110.000
13.61040 85.000
13.63035 92.000
13.65029 97.000
13.67024 101.000
13.69019 95.000
13.71013 110.000
13.73008 100.000
13.75003 104.000
13.76998 106.000
13.78992 106.000
13.80987 111.000
13.82982 113.000
13.84976 108.000
13.86971 106.000
13.88966 104.000
13.90960 121.000
13.92955 105.000
13.94950 102.000
13.96945 135.000
13.98939 110.000
14.00934 99.000
14.02929 126.000
14.04923 96.000
14.06918 116.000
14.08913 132.000
14.10907 92.000
14.12902 104.000
14.14897 93.000
14.16892 94.000
14.18886 105.000
14.20881 115.000
14.22876 125.000
14.24870 90.000
14.26865 106.000
14.28860 110.000
14.30854 109.000
14.32849 123.000
14.34844 118.000
14.36838 117.000
14.38833 107.000
14.40828 103.000
14.42823 105.000
14.44817 112.000
14.46812 98.000
14.48807 127.000
14.50801 106.000
14.52796 111.000
14.54791 130.000
14.56785 96.000
14.58780 99.000
14.60775 89.000
14.62770 97.000
14.64764 99.000
14.66759 98.000
14.68754 115.000
14.70748 97.000
14.72743 96.000
14.74738 118.000
14.76732 106.000
14.78727 120.000
14.80722 96.000
14.82716 120.000
14.84711 132.000
14.86706 106.000
14.88701 114.000
14.90695 87.000
14.92690 92.000
14.94685 131.000
14.96679 131.000
14.98674 114.000
15.00669 107.000
15.02663 104.000
15.04658 116.000
15.06653 100.000
15.08648 127.000
15.10642 110.000
15.12637 128.000
15.14632 95.000
15.16626 99.000
15.18621 97.000
15.20616 105.000
15.22610 132.000
15.24605 115.000
15.26600 114.000
15.28594 119.000
15.30589 134.000
15.32584 113.000
15.34579 106.000
15.36573 121.000
15.38568 111.000
15.40563 122.000
15.42557 114.000
15.44552 104.000
15.46547 100.000
15.48541 110.000
15.50536 108.000
15.52531 127.000
15.54526 109.000
15.56520 99.000
15.58515 123.000
15.60510 125.000
15.62504 105.000
15.64499 117.000
15.66494 113.000
15.68488 118.000
15.70483 119.000
15.72478 120.000
15.74472 127.000
15.76467 115.000
15.78462 106.000
15.80457 105.000
15.82451 100.000
15.84446 120.000
15.86441 124.000
15.88435 112.000
15.90430 110.000
15.92425 98.000
15.94419 112.000
15.96414 114.000
15.98409 112.000
16.00404 119.000
16.02398 140.000
16.04393 116.000
16.06388 116.000
16.08382 119.000
16.10377 120.000
16.12372 130.000
16.14366 126.000
16.16361 142.000
16.18356 117.000
16.20351 161.000
16.22345 135.000
16.24340 139.000
16.26335 153.000
16.28329 117.000
16.30324 128.000
16.32319 158.000
16.34313 137.000
16.36308 118.000
16.38303 135.000
16.40297 149.000
16.42292 114.000
16.44287 131.000
16.46282 134.000
16.48276 127.000
16.50271 119.000
16.52266 118.000
16.54260 107.000
16.56255 127.000
16.58250 124.000
16.60244 116.000
16.62239 128.000
16.64234 124.000
16.66229 133.000
16.68223 110.000
16.70218 129.000
16.72213 100.000
16.74207 133.000
16.76202 120.000
16.78197 153.000
16.80191 122.000
16.82186 124.000
16.84181 149.000
16.86175 124.000
16.88170 137.000
16.90165 128.000
16.92160 128.000
16.94154 115.000
16.96149 126.000
16.98144 122.000
17.00138 133.000
17.02133 145.000
17.04128 120.000
17.06122 137.000
17.08117 125.000
17.10112 176.000
17.12107 151.000
17.14101 148.000
17.16096 137.000
17.18091 173.000
17.20085 149.000
17.22080 133.000
17.24075 173.000
17.26069 121.000
17.28064 125.000
17.30059 145.000
17.32053 116.000
17.34048 133.000
17.36043 121.000
17.38038 140.000
17.40032 127.000
17.42027 127.000
17.44022 120.000
17.46016 133.000
17.48011 107.000
17.50006 128.000
17.52000 127.000
17.53995 129.000
17.55990 116.000
17.57985 123.000
17.59979 103.000
17.61974 122.000
17.63969 116.000
17.65963 90.000
17.67958 139.000
17.69953 120.000
17.71947 111.000
17.73942 110.000
17.75937 119.000
17.77932 109.000
17.79926 116.000
17.81921 116.000
17.83916 120.000
17.85910 108.000
17.87905 131.000
17.89900 92.000
17.91894 109.000
17.93889 127.000
17.95884 146.000
17.97878 133.000
17.99873 105.000
18.01868 114.000
18.03863 130.000
18.05857 127.000
18.07852 99.000
18.09847 128.000
18.11841 123.000
18.13836 117.000
18.15831 122.000
18.17825 114.000
18.19820 136.000
18.21815 130.000
18.23810 118.000
18.25804 137.000
18.27799 127.000
18.29794 161.000
18.31788 204.000
18.33783 233.000
18.35778 296.000
18.37772 302.000
18.39767 315.000
18.41762 270.000
18.43756 220.000
18.45751 168.000
18.47746 146.000
18.49741 129.000
18.51735 127.000
18.53730 133.000
18.55725 127.000
18.57719 124.000
18.59714 123.000
18.61709 124.000
18.63703 109.000
18.65698 110.000
18.67693 107.000
18.69688 98.000
18.71682 136.000
18.73677 130.000
18.75672 122.000
18.77666 130.000
18.79661 87.000
18.81656 109.000
18.83650 124.000
18.85645 107.000
18.87640 116.000
18.89634 124.000
18.91629 120.000
18.93624 107.000
18.95619 129.000
18.97613 127.000
18.99608 112.000
19.01603 113.000
19.03597 112.000
19.05592 129.000
19.07587 111.000
19.09581 115.000
19.11576 117.000
19.13571 128.000
19.15566 132.000
19.17560 106.000
19.19555 143.000
19.21550 122.000
19.23544 128.000
19.25539 118.000
19.27534 107.000
19.29528 123.000
19.31523 135.000
19.33518 133.000
19.35513 141.000
19.37507 125.000
19.39502 131.000
19.41497 132.000
19.43491 126.000
19.45486 117.000
19.47481 128.000
19.49475 118.000
19.51470 124.000
19.53465 123.000
19.55459 119.000
19.57454 126.000
19.59449 107.000
19.61444 107.000
19.63438 128.000
19.65433 129.000
19.67428 117.000
19.69422 132.000
19.71417 119.000
19.73412 114.000
19.75406 134.000
19.77401 148.000
19.79396 149.000
19.81391 133.000
19.83385 137.000
19.85380 148.000
19.87375 157.000
19.89369 148.000
19.91364 193.000
19.93359 214.000
19.95353 271.000
19.97348 264.000
19.99343 324.000
20.01337 332.000
20.03332 314.000
20.05327 327.000
20.07322 304.000
20.09316 269.000
20.11311 262.000
20.13306 216.000
20.15300 208.000
20.17295 245.000
20.19290 180.000
20.21284 168.000
20.23279 144.000
20.25274 162.000
20.27269 161.000
20.29263 148.000
20.31258 151.000
20.33253 155.000
20.35247 141.000
20.37242 142.000
20.39237 172.000
20.41231 164.000
20.43226 177.000
20.45221 225.000
20.47215 221.000
20.49210 276.000
20.51205 278.000
20.53200 353.000
20.55194 409.000
20.57189 435.000
20.59184 511.000
20.61178 518.000
20.63173 510.000
20.65168 490.000
20.67162 496.000
20.69157 408.000
20.71152 335.000
20.73147 302.000
20.75141 318.000
20.77136 239.000
20.79131 266.000
20.81125 225.000
20.83120 227.000
20.85115 226.000
20.87109 226.000
20.89104 244.000
20.91099 218.000
20.93094 232.000
20.95088 216.000
20.97083 212.000
20.99078 193.000
21.01072 191.000
21.03067 196.000
21.05062 159.000
21.07056 192.000
21.09051 147.000
21.11046 144.000
21.13040 132.000
21.15035 143.000
21.17030 141.000
21.19025 134.000
21.21019 149.000
21.23014 134.000
21.25009 131.000
21.27003 122.000
21.28998 111.000
21.30993 118.000
21.32987 140.000
21.34982 122.000
21.36977 131.000
21.38972 146.000
21.40966 126.000
21.42961 137.000
21.44956 131.000
21.46950 115.000
21.48945 125.000
21.50940 119.000
21.52934 138.000
21.54929 117.000
21.56924 105.000
21.58918 147.000
21.60913 82.000
21.62908 133.000
21.64903 115.000
21.66897 127.000
21.68892 110.000
21.70887 124.000
21.72881 123.000
21.74876 116.000
21.76871 102.000
21.78865 128.000
21.80860 117.000
21.82855 150.000
21.84850 127.000
21.86844 129.000
21.88839 127.000
21.90834 142.000
21.92828 139.000
21.94823 122.000
21.96818 111.000
21.98812 113.000
22.00807 150.000
22.02802 115.000
22.04796 127.000
22.06791 148.000
22.08786 117.000
22.10781 111.000
22.12775 129.000
22.14770 134.000
22.16765 115.000
22.18759 133.000
22.20754 139.000
22.22749 121.000
22.24743 140.000
22.26738 115.000
22.28733 120.000
22.30728 132.000
22.32722 118.000
22.34717 133.000
22.36712 143.000
22.38706 144.000
22.40701 135.000
22.42696 118.000
22.44690 131.000
22.46685 137.000
22.48680 135.000
22.50675 113.000
22.52669 128.000
22.54664 140.000
22.56659 139.000
22.58653 150.000
22.60648 135.000
22.62643 127.000
22.64637 138.000
22.66632 142.000
22.68627 135.000
22.70621 125.000
22.72616 158.000
22.74611 133.000
22.76606 143.000
22.78600 132.000
22.80595 116.000
22.82590 150.000
22.84584 120.000
22.86579 126.000
22.88574 138.000
22.90568 122.000
22.92563 152.000
22.94558 141.000
22.96553 141.000
22.98547 126.000
23.00542 145.000
23.02537 131.000
23.04531 147.000
23.06526 139.000
23.08521 149.000
23.10515 135.000
23.12510 143.000
23.14505 127.000
23.16499 128.000
23.18494 126.000
23.20489 125.000
23.22484 146.000
23.24478 125.000
23.26473 128.000
23.28468 136.000
23.30462 113.000
23.32457 143.000
23.34452 135.000
23.36446 130.000
23.38441 127.000
23.40436 160.000
23.42431 123.000
23.44425 153.000
23.46420 139.000
23.48415 138.000
23.50409 133.000
23.52404 122.000
23.54399 138.000
23.56393 142.000
23.58388 140.000
23.60383 139.000
23.62377 138.000
23.64372 117.000
23.66367 124.000
23.68362 126.000
23.70356 129.000
23.72351 153.000
23.74346 145.000
23.76340 141.000
23.78335 127.000
23.80330 129.000
23.82324 145.000
23.84319 131.000
23.86314 126.000
23.88309 150.000
23.90303 158.000
23.92298 117.000
23.94293 137.000
23.96287 111.000
23.98282 167.000
24.00277 130.000
24.02271 158.000
24.04266 130.000
24.06261 134.000
24.08256 147.000
24.10250 160.000
24.12245 138.000
24.14240 130.000
24.16234 134.000
24.18229 147.000
24.20224 137.000
24.22218 154.000
24.24213 142.000
24.26208 138.000
24.28202 138.000
24.30197 149.000
24.32192 137.000
24.34187 124.000
24.36181 152.000
24.38176 125.000
24.40171 123.000
24.42165 141.000
24.44160 143.000
24.46155 129.000
24.48149 150.000
24.50144 142.000
24.52139 137.000
24.54134 148.000
24.56128 165.000
24.58123 151.000
24.60118 159.000
24.62112 165.000
24.64107 148.000
24.66102 161.000
24.68096 160.000
24.70091 150.000
24.72086 149.000
24.74080 145.000
24.76075 152.000
24.78070 151.000
24.80065 162.000
24.82059 150.000
24.84054 176.000
24.86049 144.000
24.88043 130.000
24.90038 163.000
24.92033 153.000
24.94027 164.000
24.96022 158.000
24.98017 149.000
25.00012 139.000
25.02006 158.000
25.04001 139.000
25.05996 146.000
25.07990 169.000
25.09985 164.000
25.11980 149.000
25.13974 130.000
25.15969 138.000
25.17964 148.000
25.19958 169.000
25.21953 147.000
25.23948 140.000
25.25943 166.000
25.27937 151.000
25.29932 157.000
25.31927 150.000
25.33921 161.000
25.35916 159.000
25.37911 138.000
25.39905 155.000
25.41900 146.000
25.43895 162.000
25.45890 141.000
25.47884 160.000
25.49879 145.000
25.51874 139.000
25.53868 154.000
25.55863 152.000
25.57858 139.000
25.59852 147.000
25.61847 161.000
25.63842 160.000
25.65837 159.000
25.67831 150.000
25.69826 141.000
25.71821 145.000
25.73815 169.000
25.75810 164.000
25.77805 172.000
25.79799 144.000
25.81794 160.000
25.83789 165.000
25.85783 183.000
25.87778 157.000
25.89773 161.000
25.91768 156.000
25.93762 181.000
25.95757 195.000
25.97752 175.000
25.99746 180.000
26.01741 190.000
26.03736 199.000
26.05730 199.000
26.07725 176.000
26.09720 191.000
26.11715 201.000
26.13709 201.000
26.15704 182.000
26.17699 194.000
26.19693 154.000
26.21688 184.000
26.23683 171.000
26.25677 173.000
26.27672 185.000
26.29667 176.000
26.31661 173.000
26.33656 157.000
26.35651 167.000
26.37646 159.000
26.39640 149.000
26.41635 150.000
26.43630 187.000
26.45624 163.000
26.47619 153.000
26.49614 164.000
26.51608 156.000
26.53603 161.000
26.55598 150.000
26.57593 143.000
26.59587 168.000
26.61582 166.000
26.63577 156.000
26.65571 170.000
26.67566 164.000
26.69561 161.000
26.71555 167.000
26.73550 154.000
26.75545 172.000
26.77539 170.000
26.79534 164.000
26.81529 153.000
26.83524 183.000
26.85518 152.000
26.87513 164.000
26.89508 173.000
26.91502 177.000
26.93497 174.000
26.95492 158.000
26.97486 158.000
26.99481 167.000
27.01476 169.000
27.03471 169.000
27.05465 190.000
27.07460 178.000
27.09455 184.000
27.11449 155.000
27.13444 173.000
27.15439 176.000
27.17433 205.000
27.19428 179.000
27.21423 174.000
27.23417 198.000
27.25412 155.000
27.27407 165.000
27.29402 173.000
27.31396 156.000
27.33391 197.000
27.35386 184.000
27.37380 178.000
27.39375 161.000
27.41370 153.000
27.43364 173.000
27.45359 178.000
27.47354 168.000
27.49349 169.000
27.51343 156.000
27.53338 163.000
27.55333 153.000
27.57327 177.000
27.59322 196.000
27.61317 174.000
27.63311 166.000
27.65306 164.000
27.67301 172.000
27.69296 183.000
27.71290 167.000
27.73285 180.000
27.75280 162.000
27.77274 177.000
27.79269 164.000
27.81264 169.000
27.83258 185.000
27.85253 172.000
27.87248 176.000
27.89242 175.000
27.91237 188.000
27.93232 189.000
27.95227 152.000
27.97221 158.000
27.99216 160.000
28.01211 190.000
28.03205 184.000
28.05200 188.000
28.07195 191.000
28.09189 194.000
28.11184 180.000
28.13179 187.000
28.15174 173.000
28.17168 187.000
28.19163 175.000
28.21158 169.000
28.23152 199.000
28.25147 191.000
28.27142 158.000
28.29136 158.000
28.31131 185.000
28.33126 188.000
28.35120 184.000
28.37115 165.000
28.39110 171.000
28.41105 204.000
28.43099 166.000
28.45094 195.000
28.47089 192.000
28.49083 165.000
28.51078 181.000
28.53073 189.000
28.55067 180.000
28.57062 200.000
28.59057 190.000
28.61052 196.000
28.63046 191.000
28.65041 178.000
28.67036 185.000
28.69030 195.000
28.71025 189.000
28.73020 183.000
28.75014 171.000
28.77009 187.000
28.79004 183.000
28.80998 190.000
28.82993 198.000
28.84988 197.000
28.86983 180.000
28.88977 177.000
28.90972 175.000
28.92967 189.000
28.94961 207.000
28.96956 203.000
28.98951 207.000
29.00945 191.000
29.02940 191.000
29.04935 185.000
29.06930 217.000
29.08924 172.000
29.10919 186.000
29.12914 192.000
29.14908 178.000
29.16903 192.000
29.18898 192.000
29.20892 209.000
29.22887 206.000
29.24882 202.000
29.26877 234.000
29.28871 210.000
29.30866 224.000
29.32861 243.000
29.34855 251.000
29.36850 294.000
29.38845 300.000
29.40839 340.000
29.42834 357.000
29.44829 373.000
29.46823 366.000
29.48818 394.000
29.50813 391.000
29.52808 385.000
29.54802 342.000
29.56797 318.000
29.58792 309.000
29.60786 291.000
29.62781 257.000
29.64776 280.000
29.66770 265.000
29.68765 231.000
29.70760 241.000
29.72755 222.000
29.74749 221.000
29.76744 192.000
29.78739 230.000
29.80733 234.000
29.82728 196.000
29.84723 218.000
29.86717 216.000
29.88712 234.000
29.90707 190.000
29.92701 181.000
29.94696 194.000
29.96691 211.000
29.98686 205.000
30.00680 231.000
30.02675 264.000
30.04670 205.000
30.06664 225.000
30.08659 255.000
30.10654 253.000
30.12648 288.000
30.14643 354.000
30.16638 388.000
30.18633 474.000
30.20627 537.000
30.22622 681.000
30.24617 695.000
30.26611 674.000
30.28606 634.000
30.30601 590.000
30.32595 493.000
30.34590 408.000
30.36585 355.000
30.38579 312.000
30.40574 262.000
30.42569 246.000
30.44564 203.000
30.46558 207.000
30.48553 185.000
30.50548 186.000
30.52542 197.000
30.54537 198.000
30.56532 191.000
30.58526 187.000
30.60521 202.000
30.62516 184.000
30.64511 195.000
30.66505 167.000
30.68500 197.000
30.70495 193.000
30.72489 188.000
30.74484 208.000
30.76479 212.000
30.78473 181.000
30.80468 214.000
30.82463 190.000
30.84458 201.000
30.86452 181.000
30.88447 183.000
30.90442 201.000
30.92436 195.000
30.94431 183.000
30.96426 209.000
30.98420 183.000
31.00415 184.000
31.02410 188.000
31.04404 171.000
31.06399 191.000
31.08394 204.000
31.10389 165.000
31.12383 215.000
31.14378 180.000
31.16373 188.000
31.18367 179.000
31.20362 200.000
31.22357 174.000
31.24351 198.000
31.26346 209.000
31.28341 211.000
31.30336 197.000
31.32330 200.000
31.34325 205.000
31.36320 190.000
31.38314 184.000
31.40309 216.000
31.42304 195.000
31.44298 223.000
31.46293 184.000
31.48288 199.000
31.50282 210.000
31.52277 224.000
31.54272 260.000
31.56267 200.000
31.58261 221.000
31.60256 243.000
31.62251 220.000
31.64245 253.000
31.66240 234.000
31.68235 239.000
31.70229 273.000
31.72224 277.000
31.74219 259.000
31.76214 273.000
31.78208 257.000
31.80203 266.000
31.82198 266.000
31.84192 261.000
31.86187 252.000
31.88182 238.000
31.90176 223.000
31.92171 252.000
31.94166 227.000
31.96160 225.000
31.98155 252.000
32.00150 274.000
32.02145 251.000
32.04139 230.000
32.06134 215.000
32.08129 204.000
32.10123 229.000
32.12118 211.000
32.14113 212.000
32.16107 193.000
32.18102 182.000
32.20097 241.000
32.22092 216.000
32.24086 209.000
32.26081 204.000
32.28076 226.000
32.30070 202.000
32.32065 204.000
32.34060 189.000
32.36054 227.000
32.38049 205.000
32.40044 201.000
32.42039 231.000
32.44033 262.000
32.46028 244.000
32.48023 244.000
32.50017 242.000
32.52012 262.000
32.54007 230.000
32.56001 248.000
32.57996 203.000
32.59991 216.000
32.61985 220.000
32.63980 200.000
32.65975 205.000
32.67970 193.000
32.69964 195.000
32.71959 196.000
32.73954 216.000
32.75948 194.000
32.77943 204.000
32.79938 178.000
32.81932 218.000
32.83927 190.000
32.85922 183.000
32.87917 181.000
32.89911 189.000
32.91906 206.000
32.93901 202.000
32.95895 188.000
32.97890 238.000
32.99885 210.000
33.01879 201.000
33.03874 218.000
33.05869 191.000
33.07863 201.000
33.09858 232.000
33.11853 235.000
33.13848 264.000
33.15842 264.000
33.17837 284.000
33.19832 323.000
33.21826 327.000
33.23821 360.000
33.25816 419.000
33.27810 367.000
33.29805 430.000
33.31800 433.000
33.33795 389.000
33.35789 360.000
33.37784 410.000
33.39779 359.000
33.41773 347.000
33.43768 318.000
33.45763 310.000
33.47757 318.000
33.49752 272.000
33.51747 264.000
33.53741 273.000
33.55736 273.000
33.57731 265.000
33.59726 263.000
33.61720 264.000
33.63715 248.000
33.65710 264.000
33.67704 279.000
33.69699 270.000
33.71694 262.000
33.73688 283.000
33.75683 297.000
33.77678 289.000
33.79673 332.000
33.81667 371.000
33.83662 408.000
33.85657 419.000
33.87651 466.000
33.89646 499.000
33.91641 569.000
33.93635 595.000
33.95630 609.000
33.97625 658.000
33.99620 593.000
34.01614 571.000
34.03609 562.000
34.05604 498.000
34.07598 488.000
34.09593 478.000
34.11588 443.000
34.13582 443.000
34.15577 413.000
34.17572 406.000
34.19566 403.000
34.21561 388.000
34.23556 371.000
34.25551 397.000
34.27545 382.000
34.29540 371.000
34.31535 365.000
34.33529 315.000
34.35524 331.000
34.37519 319.000
34.39513 338.000
34.41508 328.000
34.43503 316.000
34.45498 284.000
34.47492 292.000
34.49487 272.000
34.51482 261.000
34.53476 265.000
34.55471 291.000
34.57466 254.000
34.59460 256.000
34.61455 260.000
34.63450 290.000
34.65444 253.000
34.67439 258.000
34.69434 239.000
34.71429 270.000
34.73423 223.000
34.75418 232.000
34.77413 222.000
34.79407 239.000
34.81402 247.000
34.83397 224.000
34.85391 262.000
34.87386 232.000
34.89381 253.000
34.91376 231.000
34.93370 233.000
34.95365 271.000
34.97360 217.000
34.99354 224.000
35.01349 242.000
35.03344 221.000
35.05338 252.000
35.07333 258.000
35.09328 249.000
35.11322 252.000
35.13317 281.000
35.15312 246.000
35.17307 279.000
35.19301 284.000
35.21296 313.000
35.23291 293.000
35.25285 284.000
35.27280 315.000
35.29275 339.000
35.31269 338.000
35.33264 366.000
35.35259 378.000
35.37254 420.000
35.39248 445.000
35.41243 473.000
35.43238 532.000
35.45232 552.000
35.47227 559.000
35.49222 711.000
35.51216 823.000
35.53211 952.000
35.55206 1125.000
35.57201 1337.000
35.59195 1609.000
35.61190 1826.000
35.63185 1999.000
35.65179 1876.000
35.67174 1660.000
35.69169 1447.000
35.71163 1346.000
35.73158 1187.000
35.75153 961.000
35.77147 781.000
35.79142 578.000
35.81137 498.000
35.83132 416.000
35.85126 375.000
35.87121 364.000
35.89116 321.000
35.91110 309.000
35.93105 326.000
35.95100 286.000
35.97094 279.000
35.99089 263.000
36.01084 283.000
36.03079 272.000
36.05073 249.000
36.07068 262.000
36.09063 256.000
36.11057 264.000
36.13052 259.000
36.15047 262.000
36.17041 233.000
36.19036 281.000
36.21031 263.000
36.23025 297.000
36.25020 273.000
36.27015 294.000
36.29010 291.000
36.31004 314.000
36.32999 295.000
36.34994 311.000
36.36988 269.000
36.38983 276.000
36.40978 223.000
36.42972 256.000
36.44967 243.000
36.46962 236.000
36.48957 233.000
36.50951 190.000
36.52946 243.000
36.54941 218.000
36.56935 201.000
36.58930 207.000
36.60925 212.000
36.62919 209.000
36.64914 215.000
36.66909 212.000
36.68903 223.000
36.70898 184.000
36.72893 193.000
36.74888 178.000
36.76882 192.000
36.78877 202.000
36.80872 207.000
36.82866 219.000
36.84861 210.000
36.86856 206.000
36.88850 227.000
36.90845 176.000
36.92840 232.000
36.94835 226.000
36.96829 208.000
36.98824 210.000
37.00819 213.000
37.02813 244.000
37.04808 204.000
37.06803 232.000
37.08797 227.000
37.10792 210.000
37.12787 195.000
37.14781 212.000
37.16776 236.000
37.18771 232.000
37.20766 255.000
37.22760 260.000
37.24755 301.000
37.26750 314.000
37.28744 317.000
37.30739 255.000
37.32734 261.000
37.34728 252.000
37.36723 224.000
37.38718 243.000
37.40713 241.000
37.42707 195.000
37.44702 180.000
37.46697 183.000
37.48691 180.000
37.50686 156.000
37.52681 164.000
37.54675 182.000
37.56670 189.000
37.58665 195.000
37.60660 162.000
37.62654 168.000
37.64649 160.000
37.66644 167.000
37.68638 153.000
37.70633 190.000
37.72628 158.000
37.74622 172.000
37.76617 159.000
37.78612 182.000
37.80606 180.000
37.82601 151.000
37.84596 176.000
37.86591 194.000
37.88585 177.000
37.90580 191.000
37.92575 167.000
37.94569 173.000
37.96564 186.000
37.98559 182.000
38.00553 192.000
38.02548 178.000
38.04543 172.000
38.06538 191.000
38.08532 173.000
38.10527 201.000
38.12522 168.000
38.14516 195.000
38.16511 178.000
38.18506 194.000
38.20500 185.000
38.22495 167.000
38.24490 171.000
38.26484 192.000
38.28479 211.000
38.30474 195.000
38.32469 202.000
38.34463 191.000
38.36458 188.000
38.38453 201.000
38.40447 221.000
38.42442 198.000
38.44437 209.000
38.46431 240.000
38.48426 238.000
38.50421 257.000
38.52416 251.000
38.54410 266.000
38.56405 282.000
38.58400 271.000
38.60394 276.000
38.62389 302.000
38.64384 344.000
38.66378 347.000
38.68373 386.000
38.70368 348.000
38.72362 356.000
38.74357 337.000
38.76352 357.000
38.78347 353.000
38.80341 339.000
38.82336 324.000
38.84331 316.000
38.86325 283.000
38.88320 275.000
38.90315 285.000
38.92309 253.000
38.94304 264.000
38.96299 261.000
38.98294 252.000
39.00288 269.000
39.02283 207.000
39.04278 236.000
39.06272 230.000
39.08267 200.000
39.10262 225.000
39.12256 181.000
39.14251 226.000
39.16246 194.000
39.18241 203.000
39.20235 205.000
39.22230 179.000
39.24225 194.000
39.26219 159.000
39.28214 164.000
39.30209 162.000
39.32203 166.000
39.34198 185.000
39.36193 179.000
39.38187 175.000
39.40182 195.000
39.42177 142.000
39.44172 191.000
39.46166 168.000
39.48161 187.000
39.50156 186.000
39.52150 181.000
39.54145 190.000
39.56140 172.000
39.58134 182.000
39.60129 168.000
39.62124 163.000
39.64119 161.000
39.66113 151.000
39.68108 180.000
39.70103 188.000
39.72097 177.000
39.74092 161.000
39.76087 162.000
39.78081 162.000
39.80076 157.000
39.82071 152.000
39.84065 179.000
39.86060 156.000
39.88055 178.000
39.90050 181.000
39.92044 161.000
39.94039 185.000
39.96034 166.000
39.98028 151.000
40.00023 149.000
40.02018 151.000
40.04012 160.000
40.06007 183.000
40.08002 192.000
40.09997 156.000
40.11991 146.000
40.13986 191.000
40.15981 172.000
40.17975 158.000
40.19970 184.000
40.21965 177.000
40.23959 187.000
40.25954 144.000
40.27949 170.000
40.29943 177.000
40.31938 185.000
40.33933 182.000
40.35928 156.000
40.37922 136.000
40.39917 178.000
40.41912 190.000
40.43906 161.000
40.45901 181.000
40.47896 150.000
40.49890 186.000
40.51885 178.000
40.53880 158.000
40.55875 205.000
40.57869 165.000
40.59864 174.000
40.61859 194.000
40.63853 139.000
40.65848 177.000
40.67843 180.000
40.69837 150.000
40.71832 180.000
40.73827 170.000
40.75822 174.000
40.77816 178.000
40.79811 158.000
40.81806 194.000
40.83800 177.000
40.85795 177.000
40.87790 172.000
40.89784 208.000
40.91779 193.000
40.93774 197.000
40.95768 174.000
40.97763 162.000
40.99758 198.000
41.01753 192.000
41.03747 198.000
41.05742 210.000
41.07737 204.000
41.09731 198.000
41.11726 223.000
41.13721 254.000
41.15715 233.000
41.17710 224.000
41.19705 210.000
41.21700 214.000
41.23694 220.000
41.25689 252.000
41.27684 230.000
41.29678 236.000
41.31673 235.000
41.33668 222.000
41.35662 229.000
41.37657 232.000
41.39652 234.000
41.41646 243.000
41.43641 239.000
41.45636 245.000
41.47631 245.000
41.49625 230.000
41.51620 264.000
41.53615 253.000
41.55609 273.000
41.57604 285.000
41.59599 279.000
41.61593 344.000
41.63588 305.000
41.65583 334.000
41.67578 334.000
41.69572 336.000
41.71567 340.000
41.73562 326.000
41.75556 338.000
41.77551 325.000
41.79546 323.000
41.81540 317.000
41.83535 307.000
41.85530 308.000
41.87524 283.000
41.89519 276.000
41.91514 303.000
41.93509 284.000
41.95503 273.000
41.97498 234.000
41.99493 244.000
42.01487 241.000
42.03482 243.000
42.05477 235.000
42.07471 207.000
42.09466 206.000
42.11461 199.000
42.13456 226.000
42.15450 196.000
42.17445 198.000
42.19440 212.000
42.21434 190.000
42.23429 208.000
42.25424 179.000
42.27418 189.000
42.29413 161.000
42.31408 193.000
42.33403 193.000
42.35397 195.000
42.37392 205.000
42.39387 184.000
42.41381 174.000
42.43376 167.000
42.45371 202.000
42.47365 184.000
42.49360 179.000
42.51355 193.000
42.53349 185.000
42.55344 147.000
42.57339 186.000
42.59334 214.000
42.61328 202.000
42.63323 190.000
42.65318 180.000
42.67312 206.000
42.69307 184.000
42.71302 196.000
42.73296 188.000
42.75291 184.000
42.77286 219.000
42.79281 204.000
42.81275 190.000
42.83270 190.000
42.85265 194.000
42.87259 210.000
42.89254 208.000
42.91249 237.000
42.93243 212.000
42.95238 206.000
42.97233 194.000
42.99227 234.000
43.01222 231.000
43.03217 209.000
43.05212 245.000
43.07206 227.000
43.09201 203.000
43.11196 235.000
43.13190 254.000
43.15185 269.000
43.17180 299.000
43.19174 316.000
43.21169 331.000
43.23164 346.000
43.25159 351.000
43.27153 416.000
43.29148 434.000
43.31143 521.000
43.33137 476.000
43.35132 445.000
43.37127 367.000
43.39121 383.000
43.41116 377.000
43.43111 395.000
43.45105 323.000
43.47100 292.000
43.49095 246.000
43.51090 245.000
43.53084 208.000
43.55079 203.000
43.57074 209.000
43.59068 174.000
43.61063 197.000
43.63058 174.000
43.65052 140.000
43.67047 141.000
43.69042 165.000
43.71037 184.000
43.73031 182.000
43.75026 182.000
43.77021 135.000
43.79015 172.000
43.81010 143.000
43.83005 148.000
43.84999 145.000
43.86994 185.000
43.88989 154.000
43.90984 174.000
43.92978 138.000
43.94973 144.000
43.96968 167.000
43.98962 176.000
44.00957 167.000
44.02952 161.000
44.04946 154.000
44.06941 147.000
44.08936 147.000
44.10930 149.000
44.12925 171.000
44.14920 140.000
44.16915 147.000
44.18909 162.000
44.20904 167.000
44.22899 150.000
44.24893 161.000
44.26888 172.000
44.28883 182.000
44.30877 157.000
44.32872 166.000
44.34867 170.000
44.36862 184.000
44.38856 166.000
44.40851 148.000
44.42846 176.000
44.44840 162.000
44.46835 208.000
44.48830 179.000
44.50824 170.000
44.52819 149.000
44.54814 169.000
44.56808 195.000
44.58803 171.000
44.60798 160.000
44.62793 159.000
44.64787 173.000
44.66782 163.000
44.68777 141.000
44.70771 147.000
44.72766 158.000
44.74761 150.000
44.76755 144.000
44.78750 127.000
44.80745 182.000
44.82740 150.000
44.84734 157.000
44.86729 168.000
44.88724 147.000
44.90718 168.000
44.92713 159.000
44.94708 183.000
44.96702 179.000
44.98697 168.000
45.00692 208.000
45.02686 207.000
45.04681 180.000
45.06676 212.000
45.08671 217.000
45.10665 181.000
45.12660 192.000
45.14655 200.000
45.16649 176.000
45.18644 184.000
45.20639 202.000
45.22633 192.000
45.24628 164.000
45.26623 150.000
45.28618 169.000
45.30612 168.000
45.32607 172.000
45.34602 138.000
45.36596 146.000
45.38591 171.000
45.40586 150.000
45.42580 142.000
45.44575 156.000
45.46570 143.000
45.48565 144.000
45.50559 160.000
45.52554 155.000
45.54549 159.000
45.56543 143.000
45.58538 145.000
45.60533 147.000
45.62527 133.000
45.64522 167.000
45.66517 160.000
45.68511 165.000
45.70506 150.000
45.72501 154.000
45.74496 169.000
45.76490 169.000
45.78485 174.000
45.80480 169.000
45.82474 154.000
45.84469 117.000
45.86464 151.000
45.88458 160.000
45.90453 145.000
45.92448 133.000
45.94443 147.000
45.96437 140.000
45.98432 162.000
46.00427 144.000
46.02421 128.000
46.04416 147.000
46.06411 133.000
46.08405 122.000
46.10400 163.000
46.12395 133.000
46.14389 168.000
46.16384 158.000
46.18379 139.000
46.20374 159.000
46.22368 160.000
46.24363 161.000
46.26358 158.000
46.28352 142.000
46.30347 151.000
46.32342 156.000
46.34336 134.000
46.36331 134.000
46.38326 161.000
46.40321 178.000
46.42315 157.000
46.44310 163.000
46.46305 157.000
46.48299 174.000
46.50294 162.000
46.52289 164.000
46.54283 173.000
46.56278 172.000
46.58273 168.000
46.60267 183.000
46.62262 189.000
46.64257 162.000
46.66252 158.000
46.68246 186.000
46.70241 164.000
46.72236 129.000
46.74230 161.000
46.76225 174.000
46.78220 160.000
46.80214 188.000
46.82209 179.000
46.84204 156.000
46.86199 143.000
46.88193 163.000
46.90188 174.000
46.92183 154.000
46.94177 171.000
46.96172 147.000
46.98167 144.000
47.00161 162.000
47.02156 169.000
47.04151 142.000
47.06146 132.000
47.08140 151.000
47.10135 126.000
47.12130 157.000
47.14124 137.000
47.16119 136.000
47.18114 134.000
47.20108 161.000
47.22103 161.000
47.24098 149.000
47.26092 147.000
47.28087 150.000
47.30082 165.000
47.32077 139.000
47.34071 152.000
47.36066 148.000
47.38061 165.000
47.40055 161.000
47.42050 161.000
47.44045 154.000
47.46039 164.000
47.48034 177.000
47.50029 148.000
47.52024 143.000
47.54018 137.000
47.56013 161.000
47.58008 128.000
47.60002 144.000
47.61997 121.000
47.63992 138.000
47.65986 146.000
47.67981 150.000
47.69976 163.000
47.71970 142.000
47.73965 158.000
47.75960 153.000
47.77955 148.000
47.79949 114.000
47.81944 121.000
47.83939 170.000
47.85933 142.000
47.87928 124.000
47.89923 150.000
47.91917 150.000
47.93912 163.000
47.95907 176.000
47.97902 147.000
47.99896 143.000
48.01891 150.000
48.03886 151.000
48.05880 153.000
48.07875 163.000
48.09870 138.000
48.11864 147.000
48.13859 158.000
48.15854 157.000
48.17848 147.000
48.19843 164.000
48.21838 157.000
48.23833 137.000
48.25827 154.000
48.27822 140.000
48.29817 163.000
48.31811 169.000
48.33806 162.000
48.35801 161.000
48.37795 169.000
48.39790 177.000
48.41785 165.000
48.43780 157.000
48.45774 143.000
48.47769 161.000
48.49764 159.000
48.51758 141.000
48.53753 164.000
48.55748 146.000
48.57742 170.000
48.59737 157.000
48.61732 183.000
48.63726 194.000
48.65721 169.000
48.67716 175.000
48.69711 169.000
48.71705 191.000
48.73700 213.000
48.75695 186.000
48.77689 182.000
48.79684 180.000
48.81679 174.000
48.83673 185.000
48.85668 178.000
48.87663 194.000
48.89658 211.000
48.91652 156.000
48.93647 186.000
48.95642 162.000
48.97636 175.000
48.99631 180.000
49.01626 175.000
49.03620 131.000
49.05615 142.000
49.07610 140.000
49.09605 162.000
49.11599 139.000
49.13594 167.000
49.15589 164.000
49.17583 147.000
49.19578 161.000
49.21573 149.000
49.23567 162.000
49.25562 158.000
49.27557 164.000
49.29551 129.000
49.31546 146.000
49.33541 148.000
49.35536 146.000
49.37530 153.000
49.39525 137.000
49.41520 156.000
49.43514 134.000
49.45509 177.000
49.47504 140.000
49.49498 156.000
49.51493 138.000
49.53488 153.000
49.55483 179.000
49.57477 145.000
49.59472 139.000
49.61467 144.000
49.63461 142.000
49.65456 133.000
49.67451 157.000
49.69445 134.000
49.71440 141.000
49.73435 147.000
49.75429 154.000
49.77424 149.000
49.79419 140.000
49.81414 150.000
49.83408 149.000
49.85403 136.000
49.87398 154.000
49.89392 114.000
49.91387 156.000
49.93382 146.000
49.95376 155.000
49.97371 149.000
49.99366 130.000
50.01361 179.000
50.03355 161.000
50.05350 129.000
50.07345 143.000
50.09339 140.000
50.11334 142.000
50.13329 134.000
50.15323 134.000
50.17318 153.000
50.19313 131.000
50.21307 138.000
50.23302 147.000
50.25297 143.000
50.27292 141.000
50.29286 154.000
50.31281 143.000
50.33276 131.000
50.35270 141.000
50.37265 144.000
50.39260 146.000
50.41254 138.000
50.43249 150.000
50.45244 146.000
50.47239 153.000
50.49233 180.000
50.51228 148.000
50.53223 146.000
50.55217 154.000
50.57212 182.000
50.59207 158.000
50.61201 158.000
50.63196 183.000
50.65191 170.000
50.67186 157.000
50.69180 159.000
50.71175 175.000
50.73170 155.000
50.75164 169.000
50.77159 172.000
50.79154 173.000
50.81148 158.000
50.83143 179.000
50.85138 162.000
50.87132 180.000
50.89127 176.000
50.91122 199.000
50.93117 166.000
50.95111 159.000
50.97106 180.000
50.99101 159.000
51.01095 164.000
51.03090 167.000
51.05085 154.000
51.07079 157.000
51.09074 155.000
51.11069 144.000
51.13064 121.000
51.15058 131.000
51.17053 142.000
51.19048 149.000
51.21042 156.000
51.23037 148.000
51.25032 136.000
51.27026 139.000
51.29021 158.000
51.31016 138.000
51.33010 145.000
51.35005 155.000
51.37000 116.000
51.38995 153.000
51.40989 121.000
51.42984 132.000
51.44979 132.000
51.46973 120.000
51.48968 132.000
51.50963 124.000
51.52957 136.000
51.54952 142.000
51.56947 122.000
51.58942 162.000
51.60936 139.000
51.62931 118.000
51.64926 122.000
51.66920 139.000
51.68915 131.000
51.70910 146.000
51.72904 110.000
51.74899 135.000
51.76894 135.000
51.78888 142.000
51.80883 115.000
51.82878 113.000
51.84873 121.000
51.86867 129.000
51.88862 159.000
51.90857 147.000
51.92851 128.000
51.94846 133.000
51.96841 148.000
51.98835 148.000
52.00830 141.000
52.02825 139.000
52.04820 132.000
52.06814 143.000
52.08809 124.000
52.10804 144.000
52.12798 141.000
52.14793 136.000
52.16788 138.000
52.18782 127.000
52.20777 142.000
52.22772 156.000
52.24767 130.000
52.26761 118.000
52.28756 134.000
52.30751 118.000
52.32745 135.000
52.34740 135.000
52.36735 138.000
52.38729 119.000
52.40724 127.000
52.42719 127.000
52.44713 146.000
52.46708 143.000
52.48703 152.000
52.50698 142.000
52.52692 135.000
52.54687 125.000
52.56682 169.000
52.58676 157.000
52.60671 157.000
52.62666 142.000
52.64660 162.000
52.66655 155.000
52.68650 144.000
52.70645 138.000
52.72639 143.000
52.74634 133.000
52.76629 146.000
52.78623 148.000
52.80618 170.000
52.82613 142.000
52.84607 173.000
52.86602 161.000
52.88597 135.000
52.90591 159.000
52.92586 155.000
52.94581 147.000
52.96576 181.000
52.98570 159.000
53.00565 165.000
53.02560 173.000
53.04554 150.000
53.06549 132.000
53.08544 166.000
53.10538 149.000
53.12533 153.000
53.14528 160.000
53.16523 175.000
53.18517 136.000
53.20512 152.000
53.22507 160.000
53.24501 160.000
53.26496 137.000
53.28491 157.000
53.30485 156.000
53.32480 199.000
53.34475 160.000
53.36469 155.000
53.38464 185.000
53.40459 157.000
53.42454 145.000
53.44448 166.000
53.46443 168.000
53.48438 171.000
53.50432 160.000
53.52427 176.000
53.54422 177.000
53.56416 167.000
53.58411 182.000
53.60406 202.000
53.62401 189.000
53.64395 191.000
53.66390 205.000
53.68385 255.000
53.70379 283.000
53.72374 266.000
53.74369 263.000
53.76363 285.000
53.78358 231.000
53.80353 253.000
53.82348 229.000
53.84342 247.000
53.86337 227.000
53.88332 199.000
53.90326 228.000
53.92321 195.000
53.94316 177.000
53.96310 188.000
53.98305 167.000
54.00300 137.000
54.02294 157.000
54.04289 172.000
54.06284 135.000
54.08279 160.000
54.10273 130.000
54.12268 157.000
54.14263 143.000
54.16257 153.000
54.18252 146.000
54.20247 144.000
54.22241 146.000
54.24236 160.000
54.26231 149.000
54.28226 142.000
54.30220 130.000
54.32215 149.000
54.34210 153.000
54.36204 139.000
54.38199 156.000
54.40194 136.000
54.42188 115.000
54.44183 161.000
54.46178 150.000
54.48172 143.000
54.50167 143.000
54.52162 120.000
54.54157 143.000
54.56151 130.000
54.58146 143.000
54.60141 133.000
54.62135 130.000
54.64130 146.000
54.66125 145.000
54.68119 141.000
54.70114 126.000
54.72109 132.000
54.74104 146.000
54.76098 125.000
54.78093 145.000
54.80088 142.000
54.82082 134.000
54.84077 154.000
54.86072 167.000
54.88066 130.000
54.90061 147.000
54.92056 169.000
54.94050 159.000
54.96045 158.000
54.98040 188.000
55.00035 165.000
55.02029 168.000
55.04024 168.000
55.06019 182.000
55.08013 167.000
55.10008 162.000
55.12003 169.000
55.13997 168.000
55.15992 167.000
55.17987 174.000
55.19982 207.000
55.21976 180.000
55.23971 170.000
55.25966 167.000
55.27960 163.000
55.29955 162.000
55.31950 166.000
55.33944 167.000
55.35939 159.000
55.37934 170.000
55.39929 173.000
55.41923 151.000
55.43918 171.000
55.45913 152.000
55.47907 162.000
55.49902 161.000
55.51897 146.000
55.53891 144.000
55.55886 162.000
55.57881 156.000
55.59875 142.000
55.61870 161.000
55.63865 149.000
55.65860 154.000
55.67854 131.000
55.69849 149.000
55.71844 157.000
55.73838 155.000
55.75833 141.000
55.77828 170.000
55.79822 157.000
55.81817 152.000
55.83812 142.000
55.85807 146.000
55.87801 131.000
55.89796 166.000
55.91791 156.000
55.93785 132.000
55.95780 167.000
55.97775 127.000
55.99769 140.000
56.01764 132.000
56.03759 138.000
56.05753 138.000
56.07748 138.000
56.09743 146.000
56.11738 135.000
56.13732 144.000
56.15727 149.000
56.17722 136.000
56.19716 153.000
56.21711 131.000
56.23706 128.000
56.25700 144.000
56.27695 148.000
56.29690 133.000
56.31685 158.000
56.33679 151.000
56.35674 135.000
56.37669 148.000
56.39663 138.000
56.41658 143.000
56.43653 155.000
56.45647 149.000
56.47642 155.000
56.49637 149.000
56.51631 154.000
56.53626 135.000
56.55621 139.000
56.57616 139.000
56.59610 134.000
56.61605 146.000
56.63600 121.000
56.65594 145.000
56.67589 142.000
56.69584 147.000
56.71578 129.000
56.73573 154.000
56.75568 148.000
56.77563 169.000
56.79557 135.000
56.81552 149.000
56.83547 150.000
56.85541 153.000
56.87536 147.000
56.89531 166.000
56.91525 172.000
56.93520 174.000
56.95515 164.000
56.97510 204.000
56.99504 195.000
57.01499 173.000
57.03494 189.000
57.05488 216.000
57.07483 215.000
57.09478 228.000
57.11472 220.000
57.13467 247.000
57.15462 272.000
57.17456 289.000
57.19451 325.000
57.21446 373.000
57.23441 445.000
57.25435 455.000
57.27430 520.000
57.29425 521.000
57.31419 476.000
57.33414 403.000
57.35409 427.000
57.37403 413.000
57.39398 365.000
57.41393 418.000
57.43388 386.000
57.45382 373.000
57.47377 310.000
57.49372 286.000
57.51366 266.000
57.53361 236.000
57.55356 212.000
57.57350 214.000
57.59345 202.000
57.61340 188.000
57.63334 189.000
57.65329 189.000
57.67324 136.000
57.69319 151.000
57.71313 156.000
57.73308 161.000
57.75303 171.000
57.77297 151.000
57.79292 148.000
57.81287 156.000
57.83281 149.000
57.85276 153.000
57.87271 136.000
57.89266 169.000
57.91260 152.000
57.93255 137.000
57.95250 155.000
57.97244 152.000
57.99239 155.000
58.01234 145.000
58.03228 177.000
58.05223 149.000
58.07218 167.000
58.09212 157.000
58.11207 162.000
58.13202 179.000
58.15197 166.000
58.17191 183.000
58.19186 176.000
58.21181 163.000
58.23175 191.000
58.25170 195.000
58.27165 163.000
58.29159 193.000
58.31154 170.000
58.33149 190.000
58.35144 164.000
58.37138 167.000
58.39133 148.000
58.41128 178.000
58.43122 175.000
58.45117 162.000
58.47112 152.000
58.49106 149.000
58.51101 117.000
58.53096 155.000
58.55090 146.000
58.57085 149.000
58.59080 158.000
58.61075 165.000
58.63069 114.000
58.65064 157.000
58.67059 154.000
58.69053 161.000
58.71048 156.000
58.73043 145.000
58.75037 144.000
58.77032 136.000
58.79027 145.000
58.81022 139.000
58.83016 140.000
58.85011 150.000
58.87006 149.000
58.89000 157.000
58.90995 132.000
58.92990 142.000
58.94984 126.000
58.96979 148.000
58.98974 143.000
59.00969 159.000
59.02963 134.000
59.04958 132.000
59.06953 169.000
59.08947 155.000
59.10942 146.000
59.12937 160.000
59.14931 153.000
59.16926 149.000
59.18921 120.000
59.20915 171.000
59.22910 155.000
59.24905 147.000
59.26900 144.000
59.28894 143.000
59.30889 182.000
59.32884 155.000
59.34878 152.000
59.36873 165.000
59.38868 148.000
59.40862 163.000
59.42857 155.000
59.44852 171.000
59.46847 184.000
59.48841 150.000
59.50836 158.000
59.52831 160.000
59.54825 178.000
59.56820 157.000
59.58815 165.000
59.60809 171.000
59.62804 175.000
59.64799 171.000
59.66793 171.000
59.68788 178.000
59.70783 170.000
59.72778 201.000
59.74772 195.000
59.76767 195.000
59.78762 188.000
59.80756 225.000
59.82751 210.000
59.84746 200.000
59.86740 228.000
59.88735 207.000
59.90730 211.000
59.92725 225.000
59.94719 236.000
59.96714 219.000
59.98709 225.000
60.00703 193.000
60.02698 202.000
60.04693 221.000
60.06687 211.000
60.08682 210.000
60.10677 204.000
60.12671 201.000
60.14666 183.000
60.16661 181.000
60.18656 202.000
60.20650 161.000
60.22645 188.000
60.24640 169.000
60.26634 160.000
60.28629 173.000
60.30624 162.000
60.32618 139.000
60.34613 154.000
60.36608 149.000
60.38603 171.000
60.40597 151.000
60.42592 143.000
60.44587 165.000
60.46581 147.000
60.48576 152.000
60.50571 155.000
60.52565 158.000
60.54560 137.000
60.56555 146.000
60.58550 168.000
60.60544 147.000
60.62539 163.000
60.64534 173.000
60.66528 171.000
60.68523 169.000
60.70518 180.000
60.72512 182.000
60.74507 163.000
60.76502 166.000
60.78496 146.000
60.80491 182.000
60.82486 170.000
60.84481 180.000
60.86475 168.000
60.88470 179.000
60.90465 169.000
60.92459 147.000
60.94454 186.000
60.96449 205.000
60.98443 170.000
61.00438 167.000
61.02433 179.000
61.04428 187.000
61.06422 209.000
61.08417 199.000
61.10412 215.000
61.12406 209.000
61.14401 228.000
61.16396 205.000
61.18390 208.000
61.20385 212.000
61.22380 241.000
61.24374 233.000
61.26369 231.000
61.28364 243.000
61.30359 229.000
61.32353 241.000
61.34348 237.000
61.36343 234.000
61.38337 241.000
61.40332 258.000
61.42327 243.000
61.44321 253.000
61.46316 299.000
61.48311 270.000
61.50306 292.000
61.52300 242.000
61.54295 303.000
61.56290 295.000
61.58284 256.000
61.60279 203.000
61.62274 271.000
61.64268 254.000
61.66263 258.000
61.68258 249.000
61.70252 247.000
61.72247 253.000
61.74242 233.000
61.76237 219.000
61.78231 237.000
61.80226 227.000
61.82221 183.000
61.84215 201.000
61.86210 184.000
61.88205 208.000
61.90199 175.000
61.92194 210.000
61.94189 204.000
61.96184 190.000
61.98178 215.000
62.00173 201.000
62.02168 208.000
62.04162 201.000
62.06157 184.000
62.08152 209.000
62.10146 200.000
62.12141 173.000
62.14136 195.000
62.16131 185.000
62.18125 210.000
62.20120 204.000
62.22115 207.000
62.24109 168.000
62.26104 185.000
62.28099 197.000
62.30093 211.000
62.32088 206.000
62.34083 201.000
62.36077 191.000
62.38072 181.000
62.40067 172.000
62.42062 191.000
62.44056 195.000
62.46051 193.000
62.48046 189.000
62.50040 192.000
62.52035 208.000
62.54030 207.000
62.56024 198.000
62.58019 211.000
62.60014 203.000
62.62009 218.000
62.64003 219.000
62.65998 220.000
62.67993 261.000
62.69987 253.000
62.71982 267.000
62.73977 277.000
62.75971 296.000
62.77966 310.000
62.79961 356.000
62.81955 399.000
62.83950 468.000
62.85945 513.000
62.87940 569.000
62.89934 583.000
62.91929 589.000
62.93924 595.000
62.95918 535.000
62.97913 533.000
62.99908 467.000
63.01902 424.000
63.03897 493.000
63.05892 431.000
63.07887 427.000
63.09881 376.000
63.11876 391.000
63.13871 331.000
63.15865 301.000
63.17860 258.000
63.19855 238.000
63.21849 235.000
63.23844 198.000
63.25839 202.000
63.27833 179.000
63.29828 196.000
63.31823 184.000
63.33818 193.000
63.35812 141.000
63.37807 149.000
63.39802 156.000
63.41796 142.000
63.43791 152.000
63.45786 165.000
63.47780 151.000
63.49775 127.000
63.51770 151.000
63.53765 145.000
63.55759 142.000
63.57754 154.000
63.59749 156.000
63.61743 152.000
63.63738 147.000
63.65733 158.000
63.67727 149.000
63.69722 179.000
63.71717 142.000
63.73712 139.000
63.75706 146.000
63.77701 151.000
63.79696 146.000
63.81690 155.000
63.83685 145.000
63.85680 165.000
63.87674 152.000
63.89669 156.000
63.91664 135.000
63.93658 157.000
63.95653 144.000
63.97648 179.000
63.99643 149.000
64.01637 148.000
64.03632 123.000
64.05627 161.000
64.07621 171.000
64.09616 161.000
64.11611 166.000
64.13605 161.000
64.15600 124.000
64.17595 142.000
64.19590 149.000
64.21584 146.000
64.23579 174.000
64.25574 161.000
64.27568 153.000
64.29563 155.000
64.31558 155.000
64.33552 133.000
64.35547 148.000
64.37542 135.000
64.39536 152.000
64.41531 151.000
64.43526 135.000
64.45521 127.000
64.47515 130.000
64.49510 134.000
64.51505 142.000
64.53499 140.000
64.55494 133.000
64.57489 129.000
64.59483 154.000
64.61478 150.000
64.63473 153.000
64.65468 138.000
64.67462 127.000
64.69457 145.000
64.71452 152.000
64.73446 140.000
64.75441 137.000
64.77436 135.000
64.79430 145.000
64.81425 153.000
64.83420 155.000
64.85414 151.000
64.87409 147.000
64.89404 138.000
64.91399 145.000
64.93393 160.000
64.95388 137.000
64.97383 153.000
64.99377 149.000
65.01372 129.000
65.03367 153.000
65.05361 118.000
65.07356 145.000
65.09351 151.000
65.11346 156.000
65.13340 133.000
65.15335 130.000
65.17330 159.000
65.19324 149.000
65.21319 149.000
65.23314 135.000
65.25308 148.000
65.27303 149.000
65.29298 138.000
65.31293 120.000
65.33287 155.000
65.35282 129.000
65.37277 159.000
65.39271 150.000
65.41266 141.000
65.43261 173.000
65.45255 155.000
65.47250 173.000
65.49245 157.000
65.51239 164.000
65.53234 162.000
65.55229 152.000
65.57224 147.000
65.59218 166.000
65.61213 168.000
65.63208 157.000
65.65202 156.000
65.67197 157.000
65.69192 200.000
65.71186 167.000
65.73181 180.000
65.75176 188.000
65.77171 166.000
65.79165 158.000
65.81160 170.000
65.83155 184.000
65.85149 168.000
65.87144 190.000
65.89139 186.000
65.91133 174.000
65.93128 201.000
65.95123 185.000
65.97117 182.000
65.99112 190.000
66.01107 200.000
66.03102 194.000
66.05096 184.000
66.07091 191.000
66.09086 197.000
66.11080 193.000
66.13075 198.000
66.15070 183.000
66.17064 182.000
66.19059 184.000
66.21054 207.000
66.23049 175.000
66.25043 190.000
66.27038 188.000
66.29033 213.000
66.31027 187.000
66.33022 206.000
66.35017 205.000
66.37011 192.000
66.39006 159.000
66.41001 181.000
66.42995 162.000
66.44990 166.000
66.46985 186.000
66.48980 183.000
66.50974 161.000
66.52969 150.000
66.54964 171.000
66.56958 156.000
66.58953 156.000
66.60948 167.000
66.62942 146.000
66.64937 168.000
66.66932 165.000
66.68927 139.000
66.70921 153.000
66.72916 159.000
66.74911 150.000
66.76905 111.000
66.78900 159.000
66.80895 140.000
66.82889 164.000
66.84884 153.000
66.86879 133.000
66.88874 134.000
66.90868 133.000
66.92863 143.000
66.94858 142.000
66.96852 143.000
66.98847 148.000
67.00842 130.000
67.02836 158.000
67.04831 147.000
67.06826 144.000
67.08820 129.000
67.10815 131.000
67.12810 139.000
67.14805 149.000
67.16799 123.000
67.18794 135.000
67.20789 171.000
67.22783 153.000
67.24778 154.000
67.26773 141.000
67.28767 157.000
67.30762 147.000
67.32757 147.000
67.34752 146.000
67.36746 135.000
67.38741 136.000
67.40736 127.000
67.42730 141.000
67.44725 143.000
67.46720 143.000
67.48714 149.000
67.50709 168.000
67.52704 149.000
67.54698 163.000
67.56693 142.000
67.58688 136.000
67.60683 142.000
67.62677 156.000
67.64672 143.000
67.66667 160.000
67.68661 153.000
67.70656 135.000
67.72651 156.000
67.74645 151.000
67.76640 160.000
67.78635 174.000
67.80630 164.000
67.82624 166.000
67.84619 172.000
67.86614 154.000
67.88608 169.000
67.90603 165.000
67.92598 183.000
67.94592 193.000
67.96587 189.000
67.98582 182.000
68.00576 200.000
68.02571 196.000
68.04566 221.000
68.06561 218.000
68.08555 211.000
68.10550 212.000
68.12545 251.000
68.14539 213.000
68.16534 227.000
68.18529 183.000
68.20523 172.000
68.22518 183.000
68.24513 181.000
68.26508 183.000
68.28502 218.000
68.30497 182.000
68.32492 187.000
68.34486 144.000
68.36481 182.000
68.38476 168.000
68.40470 157.000
68.42465 170.000
68.44460 163.000
68.46455 159.000
68.48449 146.000
68.50444 142.000
68.52439 127.000
68.54433 152.000
68.56428 163.000
68.58423 135.000
68.60417 133.000
68.62412 150.000
68.64407 144.000
68.66401 145.000
68.68396 142.000
68.70391 149.000
68.72386 126.000
68.74380 134.000
68.76375 149.000
68.78370 126.000
68.80364 138.000
68.82359 146.000
68.84354 153.000
68.86348 131.000
68.88343 126.000
68.90338 142.000
68.92333 116.000
68.94327 134.000
68.96322 141.000
68.98317 131.000
69.00311 123.000
69.02306 151.000
69.04301 115.000
69.06295 135.000
69.08290 130.000
69.10285 132.000
69.12279 140.000
69.14274 146.000
69.16269 121.000
69.18264 122.000
69.20258 142.000
69.22253 110.000
69.24248 126.000
69.26242 122.000
69.28237 165.000
69.30232 130.000
69.32226 117.000
69.34221 102.000
69.36216 138.000
69.38211 117.000
69.40205 132.000
69.42200 127.000
69.44195 141.000
69.46189 138.000
69.48184 141.000
69.50179 133.000
69.52173 147.000
69.54168 137.000
69.56163 136.000
69.58157 131.000
69.60152 125.000
69.62147 151.000
69.64142 140.000
69.66136 102.000
69.68131 143.000
69.70126 145.000
69.72120 154.000
69.74115 136.000
69.76110 125.000
69.78104 120.000
69.80099 141.000
69.82094 133.000
69.84089 134.000
69.86083 134.000
69.88078 139.000
69.90073 111.000
69.92067 141.000
69.94062 129.000
69.96057 126.000
69.98051 130.000
70.00046 120.000
70.02041 127.000
70.04035 125.000
70.06030 137.000
70.08025 140.000
70.10020 127.000
70.12014 130.000
70.14009 131.000
70.16004 153.000
70.17998 129.000
70.19993 113.000
70.21988 141.000
70.23982 139.000
70.25977 136.000
70.27972 119.000
70.29967 130.000
70.31961 122.000
70.33956 136.000
70.35951 120.000
70.37945 129.000
70.39940 117.000
70.41935 121.000
70.43929 132.000
70.45924 124.000
70.47919 139.000
70.49914 130.000
70.51908 146.000
70.53903 142.000
70.55898 129.000
70.57892 123.000
70.59887 142.000
70.61882 131.000
70.63876 127.000
70.65871 144.000
70.67866 143.000
70.69860 136.000
70.71855 127.000
70.73850 125.000
70.75845 113.000
70.77839 136.000
70.79834 144.000
70.81829 123.000
70.83823 149.000
70.85818 119.000
70.87813 131.000
70.89807 127.000
70.91802 144.000
70.93797 157.000
70.95792 158.000
70.97786 135.000
70.99781 145.000
71.01776 140.000
71.03770 123.000
71.05765 144.000
71.07760 129.000
71.09754 138.000
71.11749 164.000
71.13744 160.000
71.15738 124.000
71.17733 144.000
71.19728 156.000
71.21723 151.000
71.23717 164.000
71.25712 138.000
71.27707 133.000
71.29701 162.000
71.31696 178.000
71.33691 195.000
71.35685 183.000
71.37680 156.000
71.39675 165.000
71.41670 183.000
71.43664 186.000
71.45659 178.000
71.47654 188.000
71.49648 159.000
71.51643 171.000
71.53638 174.000
71.55632 155.000
71.57627 164.000
71.59622 157.000
71.61616 159.000
71.63611 147.000
71.65606 133.000
71.67601 169.000
71.69595 146.000
71.71590 148.000
71.73585 143.000
71.75579 155.000
71.77574 155.000
71.79569 133.000
71.81563 141.000
71.83558 132.000
71.85553 129.000
71.87548 155.000
71.89542 148.000
71.91537 144.000
71.93532 135.000
71.95526 139.000
71.97521 152.000
71.99516 153.000
72.01510 134.000
72.03505 132.000
72.05500 143.000
72.07495 154.000
72.09489 109.000
72.11484 152.000
72.13479 143.000
72.15473 149.000
72.17468 126.000
72.19463 135.000
72.21457 155.000
72.23452 152.000
72.25447 153.000
72.27441 153.000
72.29436 149.000
72.31431 137.000
72.33426 161.000
72.35420 146.000
72.37415 151.000
72.39410 170.000
72.41404 143.000
72.43399 153.000
72.45394 161.000
72.47388 163.000
72.49383 142.000
72.51378 164.000
72.53373 155.000
72.55367 162.000
72.57362 127.000
72.59357 122.000
72.61351 153.000
72.63346 165.000
72.65341 131.000
72.67335 150.000
72.69330 159.000
72.71325 138.000
72.73319 154.000
72.75314 163.000
72.77309 159.000
72.79304 137.000
72.81298 146.000
72.83293 141.000
72.85288 133.000
72.87282 122.000
72.89277 136.000
72.91272 140.000
72.93266 145.000
72.95261 108.000
72.97256 157.000
72.99251 152.000
73.01245 121.000
73.03240 136.000
73.05235 129.000
73.07229 139.000
73.09224 125.000
73.11219 111.000
73.13213 126.000
73.15208 141.000
73.17203 125.000
73.19197 113.000
73.21192 132.000
73.23187 162.000
73.25182 146.000
73.27176 135.000
73.29171 136.000
73.31166 134.000
73.33160 154.000
73.35155 140.000
73.37150 150.000
73.39144 121.000
73.41139 131.000
73.43134 137.000
73.45129 139.000
73.47123 135.000
73.49118 145.000
73.51113 159.000
73.53107 131.000
73.55102 131.000
73.57097 152.000
73.59091 132.000
73.61086 132.000
73.63081 131.000
73.65076 150.000
73.67070 109.000
73.69065 126.000
73.71060 131.000
73.73054 140.000
73.75049 133.000
73.77044 143.000
73.79038 128.000
73.81033 128.000
73.83028 144.000
73.85022 150.000
73.87017 135.000
73.89012 134.000
73.91007 128.000
73.93001 127.000
73.94996 134.000
73.96991 156.000
73.98985 147.000
74.00980 134.000
74.02975 141.000
74.04969 147.000
74.06964 170.000
74.08959 150.000
74.10954 139.000
74.12948 142.000
74.14943 131.000
74.16938 149.000
74.18932 144.000
74.20927 161.000
74.22922 155.000
74.24916 160.000
74.26911 174.000
74.28906 179.000
74.30900 180.000
74.32895 180.000
74.34890 160.000
74.36885 199.000
74.38879 205.000
74.40874 204.000
74.42869 211.000
74.44863 251.000
74.46858 215.000
74.48853 226.000
74.50847 200.000
74.52842 201.000
74.54837 192.000
74.56832 214.000
74.58826 166.000
74.60821 205.000
74.62816 208.000
74.64810 183.000
74.66805 204.000
74.68800 174.000
74.70794 175.000
74.72789 186.000
74.74784 161.000
74.76778 157.000
74.78773 150.000
74.80768 157.000
74.82763 164.000
74.84757 152.000
74.86752 166.000
74.88747 142.000
74.90741 159.000
74.92736 135.000
74.94731 160.000
74.96725 139.000
74.98720 162.000
75.00715 151.000
75.02710 152.000
75.04704 156.000
75.06699 148.000
75.08694 159.000
75.10688 146.000
75.12683 133.000
75.14678 137.000
75.16672 154.000
75.18667 151.000
75.20662 133.000
75.22657 133.000
75.24651 145.000
75.26646 172.000
75.28641 166.000
75.30635 181.000
75.32630 188.000
75.34625 169.000
75.36619 164.000
75.38614 163.000
75.40609 168.000
75.42603 134.000
75.44598 176.000
75.46593 168.000
75.48588 195.000
75.50582 154.000
75.52577 137.000
75.54572 171.000
75.56566 162.000
75.58561 154.000
75.60556 135.000
75.62550 176.000
75.64545 159.000
75.66540 128.000
75.68535 148.000
75.70529 164.000
75.72524 126.000
75.74519 146.000
75.76513 145.000
75.78508 135.000
75.80503 134.000
75.82497 147.000
75.84492 144.000
75.86487 127.000
75.88481 140.000
75.90476 138.000
75.92471 146.000
75.94466 136.000
75.96460 122.000
75.98455 126.000
76.00450 142.000
76.02444 114.000
76.04439 116.000
76.06434 128.000
76.08428 139.000
76.10423 131.000
76.12418 129.000
76.14413 126.000
76.16407 105.000
76.18402 122.000
76.20397 158.000
76.22391 140.000
76.24386 112.000
76.26381 124.000
76.28375 141.000
76.30370 125.000
76.32365 132.000
76.34359 122.000
76.36354 122.000
76.38349 139.000
76.40344 138.000
76.42338 118.000
76.44333 123.000
76.46328 135.000
76.48322 114.000
76.50317 133.000
76.52312 131.000
76.54306 126.000
76.56301 128.000
76.58296 129.000
76.60291 127.000
76.62285 137.000
76.64280 129.000
76.66275 124.000
76.68269 134.000
76.70264 135.000
76.72259 154.000
76.74253 147.000
76.76248 139.000
76.78243 135.000
76.80238 146.000
76.82232 118.000
76.84227 139.000
76.86222 136.000
76.88216 125.000
76.90211 112.000
76.92206 152.000
76.94200 125.000
76.96195 148.000
76.98190 132.000
77.00184 140.000
77.02179 136.000
77.04174 144.000
77.06169 146.000
77.08163 133.000
77.10158 143.000
77.12153 150.000
77.14147 146.000
77.16142 142.000
77.18137 148.000
77.20131 158.000
77.22126 128.000
77.24121 143.000
77.26116 151.000
77.28110 165.000
77.30105 136.000
77.32100 169.000
77.34094 126.000
77.36089 145.000
77.38084 162.000
77.40078 143.000
77.42073 138.000
77.44068 148.000
77.46062 112.000
77.48057 135.000
77.50052 114.000
77.52047 120.000
77.54041 123.000
77.56036 123.000
77.58031 137.000
77.60025 119.000
77.62020 137.000
77.64015 143.000
77.66009 140.000
77.68004 139.000
77.69999 150.000
77.71994 136.000
77.73988 123.000
77.75983 151.000
77.77978 136.000
77.79972 134.000
77.81967 136.000
77.83962 153.000
77.85956 114.000
77.87951 131.000
77.89946 121.000
77.91940 137.000
77.93935 133.000
77.95930 130.000
77.97925 146.000
77.99919 130.000
78.01914 146.000
78.03909 122.000
78.05903 127.000
78.07898 117.000
78.09893 116.000
78.11887 159.000
78.13882 136.000
78.15877 149.000
78.17872 121.000
78.19866 127.000
78.21861 137.000
78.23856 122.000
78.25850 113.000
78.27845 119.000
78.29840 118.000
78.31834 138.000
78.33829 141.000
78.35824 144.000
78.37819 130.000
78.39813 109.000
78.41808 136.000
78.43803 129.000
78.45797 149.000
78.47792 128.000
78.49787 129.000
78.51781 119.000
78.53776 127.000
78.55771 133.000
78.57765 147.000
78.59760 125.000
78.61755 122.000
78.63750 147.000
78.65744 142.000
78.67739 114.000
78.69734 121.000
78.71728 125.000
78.73723 144.000
78.75718 151.000
78.77712 118.000
78.79707 146.000
78.81702 151.000
78.83697 139.000
78.85691 142.000
78.87686 147.000
78.89681 125.000
78.91675 132.000
78.93670 149.000
78.95665 150.000
78.97659 151.000
78.99654 122.000
79.01649 122.000
79.03643 124.000
79.05638 128.000
79.07633 142.000
79.09628 151.000
79.11622 130.000
79.13617 142.000
79.15612 117.000
79.17606 145.000
79.19601 110.000
79.21596 128.000
79.23590 132.000
79.25585 160.000
79.27580 142.000
79.29575 117.000
79.31569 152.000
79.33564 127.000
79.35559 128.000
79.37553 165.000
79.39548 140.000
79.41543 168.000
79.43537 141.000
79.45532 166.000
79.47527 148.000
79.49521 140.000
79.51516 126.000
79.53511 153.000
79.55506 142.000
79.57500 149.000
79.59495 141.000
79.61490 134.000
79.63484 140.000
79.65479 150.000
79.67474 137.000
79.69468 138.000
79.71463 155.000
79.73458 162.000
79.75453 143.000
79.77447 143.000
79.79442 139.000
79.81437 134.000
79.83431 129.000
79.85426 145.000
79.87421 139.000
79.89415 126.000
79.91410 112.000
79.93405 140.000
79.95399 132.000
79.97394 132.000
79.99389 107.000
80.01384 135.000
80.03378 139.000
80.05373 121.000
80.07368 127.000
80.09362 133.000
80.11357 132.000
80.13352 128.000
80.15346 135.000
80.17341 122.000
80.19336 122.000
80.21331 126.000
80.23325 128.000
80.25320 132.000
80.27315 135.000
80.29309 130.000
80.31304 114.000
80.33299 134.000
80.35293 126.000
80.37288 150.000
80.39283 125.000
80.41278 114.000
80.43272 130.000
80.45267 132.000
80.47262 122.000
80.49256 152.000
80.51251 138.000
80.53246 137.000
80.55240 127.000
80.57235 129.000
80.59230 119.000
80.61224 111.000
80.63219 130.000
80.65214 125.000
80.67209 111.000
80.69203 126.000
80.71198 128.000
80.73193 132.000
80.75187 125.000
80.77182 123.000
80.79177 126.000
80.81171 121.000
80.83166 112.000
80.85161 116.000
80.87156 117.000
80.89150 147.000
80.91145 129.000
80.93140 116.000
80.95134 124.000
80.97129 136.000
80.99124 141.000
81.01118 130.000
81.03113 135.000
81.05108 114.000
81.07102 127.000
81.09097 127.000
81.11092 149.000
81.13087 127.000
81.15081 102.000
81.17076 123.000
81.19071 136.000
81.21065 129.000
81.23060 111.000
81.25055 134.000
81.27049 129.000
81.29044 109.000
81.31039 114.000
81.33034 129.000
81.35028 124.000
81.37023 147.000
81.39018 118.000
81.41012 115.000
81.43007 142.000
81.45002 116.000
81.46996 122.000
81.48991 129.000
81.50986 125.000
81.52980 149.000
81.54975 149.000
81.56970 110.000
81.58965 128.000
81.60959 99.000
81.62954 121.000
81.64949 125.000
81.66943 110.000
81.68938 122.000
81.70933 135.000
81.72927 135.000
81.74922 131.000
81.76917 111.000
81.78912 117.000
81.80906 112.000
81.82901 112.000
81.84896 132.000
81.86890 133.000
81.88885 131.000
81.90880 121.000
81.92874 120.000
81.94869 140.000
81.96864 121.000
81.98859 136.000
82.00853 140.000
82.02848 139.000
82.04843 134.000
82.06837 114.000
82.08832 113.000
82.10827 138.000
82.12821 116.000
82.14816 141.000
82.16811 134.000
82.18805 132.000
82.20800 105.000
82.22795 145.000
82.24790 141.000
82.26784 151.000
82.28779 140.000
82.30774 131.000
82.32768 112.000
82.34763 135.000
82.36758 127.000
82.38752 140.000
82.40747 136.000
82.42742 146.000
82.44737 141.000
82.46731 130.000
82.48726 165.000
82.50721 165.000
82.52715 144.000
82.54710 148.000
82.56705 162.000
82.58699 135.000
82.60694 122.000
82.62689 138.000
82.64683 137.000
82.66678 137.000
82.68673 143.000
82.70668 145.000
82.72662 134.000
82.74657 133.000
82.76652 138.000
82.78646 136.000
82.80641 137.000
82.82636 138.000
82.84630 148.000
82.86625 140.000
82.88620 139.000
82.90615 141.000
82.92609 104.000
82.94604 142.000
82.96599 127.000
82.98593 153.000
83.00588 151.000
83.02583 117.000
83.04577 134.000
83.06572 126.000
83.08567 148.000
83.10561 129.000
83.12556 135.000
83.14551 133.000
83.16546 159.000
83.18540 124.000
83.20535 162.000
83.22530 149.000
83.24524 131.000
83.26519 133.000
83.28514 142.000
83.30508 139.000
83.32503 148.000
83.34498 137.000
83.36493 122.000
83.38487 138.000
83.40482 138.000
83.42477 168.000
83.44471 137.000
83.46466 129.000
83.48461 129.000
83.50455 148.000
83.52450 144.000
83.54445 126.000
83.56440 153.000
83.58434 138.000
83.60429 145.000
83.62424 129.000
83.64418 153.000
83.66413 142.000
83.68408 144.000
83.70402 134.000
83.72397 126.000
83.74392 130.000
83.76386 139.000
83.78381 137.000
83.80376 141.000
83.82371 129.000
83.84365 145.000
83.86360 152.000
83.88355 138.000
83.90349 125.000
83.92344 118.000
83.94339 123.000
83.96333 123.000
83.98328 134.000
84.00323 144.000
84.02318 139.000
84.04312 134.000
84.06307 124.000
84.08302 142.000
84.10296 153.000
84.12291 134.000
84.14286 133.000
84.16280 114.000
84.18275 120.000
84.20270 132.000
84.22264 146.000
84.24259 119.000
84.26254 140.000
84.28249 140.000
84.30243 148.000
84.32238 153.000
84.34233 127.000
84.36227 130.000
84.38222 124.000
84.40217 124.000
84.42211 140.000
84.44206 122.000
84.46201 137.000
84.48196 130.000
84.50190 130.000
84.52185 138.000
84.54180 153.000
84.56174 146.000
84.58169 130.000
84.60164 149.000
84.62158 136.000
84.64153 146.000
84.66148 131.000
84.68142 140.000
84.70137 134.000
84.72132 138.000
84.74127 140.000
84.76121 144.000
84.78116 138.000
84.80111 121.000
84.82105 133.000
84.84100 123.000
84.86095 137.000
84.88089 130.000
84.90084 124.000
84.92079 144.000
84.94074 123.000
84.96068 134.000
84.98063 110.000
85.00058 131.000
85.02052 160.000
85.04047 133.000
85.06042 146.000
85.08036 154.000
85.10031 128.000
85.12026 121.000
85.14021 132.000
85.16015 145.000
85.18010 132.000
85.20005 118.000
85.21999 136.000
85.23994 103.000
85.25989 124.000
85.27983 149.000
85.29978 121.000
85.31973 143.000
85.33967 117.000
85.35962 134.000
85.37957 152.000
85.39952 120.000
85.41946 134.000
85.43941 150.000
85.45936 146.000
85.47930 146.000
85.49925 124.000
85.51920 137.000
85.53914 135.000
85.55909 113.000
85.57904 123.000
85.59899 127.000
85.61893 120.000
85.63888 108.000
85.65883 118.000
85.67877 137.000
85.69872 129.000
85.71867 141.000
85.73861 122.000
85.75856 141.000
85.77851 109.000
85.79845 120.000
85.81840 114.000
85.83835 120.000
85.85830 124.000
85.87824 124.000
85.89819 123.000
85.91814 135.000
85.93808 136.000
85.95803 133.000
85.97798 132.000
85.99792 139.000
86.01787 124.000
86.03782 122.000
86.05777 138.000
86.07771 134.000
86.09766 134.000
86.11761 125.000
86.13755 120.000
86.15750 120.000
86.17745 114.000
86.19739 153.000
86.21734 112.000
86.23729 123.000
86.25723 119.000
86.27718 134.000
86.29713 122.000
86.31708 137.000
86.33702 106.000
86.35697 123.000
86.37692 127.000
86.39686 115.000
86.41681 132.000
86.43676 124.000
86.45670 120.000
86.47665 113.000
86.49660 109.000
86.51655 128.000
86.53649 130.000
86.55644 142.000
86.57639 118.000
86.59633 140.000
86.61628 131.000
86.63623 109.000
86.65617 107.000
86.67612 137.000
86.69607 131.000
86.71602 115.000
86.73596 124.000
86.75591 109.000
86.77586 141.000
86.79580 127.000
86.81575 140.000
86.83570 139.000
86.85564 113.000
86.87559 146.000
86.89554 112.000
86.91548 132.000
86.93543 153.000
86.95538 117.000
86.97533 138.000
86.99527 152.000
87.01522 122.000
87.03517 137.000
87.05511 133.000
87.07506 149.000
87.09501 140.000
87.11495 149.000
87.13490 124.000
87.15485 128.000
87.17480 158.000
87.19474 135.000
87.21469 159.000
87.23464 158.000
87.25458 153.000
87.27453 130.000
87.29448 165.000
87.31442 150.000
87.33437 131.000
87.35432 151.000
87.37426 167.000
87.39421 164.000
87.41416 136.000
87.43411 144.000
87.45405 160.000
87.47400 143.000
87.49395 152.000
87.51389 134.000
87.53384 126.000
87.55379 125.000
87.57373 145.000
87.59368 170.000
87.61363 141.000
87.63358 130.000
87.65352 135.000
87.67347 127.000
87.69342 149.000
87.71336 134.000
87.73331 120.000
87.75326 140.000
87.77320 138.000
87.79315 123.000
87.81310 146.000
87.83304 132.000
87.85299 144.000
87.87294 122.000
87.89289 133.000
87.91283 135.000
87.93278 128.000
87.95273 119.000
87.97267 122.000
87.99262 141.000
88.01257 137.000
88.03251 129.000
88.05246 147.000
88.07241 140.000
88.09236 131.000
88.11230 126.000
88.13225 133.000
88.15220 117.000
88.17214 139.000
88.19209 93.000
88.21204 126.000
88.23198 140.000
88.25193 133.000
88.27188 114.000
88.29183 153.000
88.31177 142.000
88.33172 116.000
88.35167 145.000
88.37161 122.000
88.39156 138.000
88.41151 131.000
88.43145 120.000
88.45140 123.000
88.47135 121.000
88.49129 124.000
88.51124 143.000
88.53119 128.000
88.55114 123.000
88.57108 143.000
88.59103 124.000
88.61098 123.000
88.63092 113.000
88.65087 143.000
88.67082 126.000
88.69076 133.000
88.71071 114.000
88.73066 114.000
88.75061 137.000
88.77055 124.000
88.79050 130.000
88.81045 129.000
88.83039 153.000
88.85034 133.000
88.87029 122.000
88.89023 129.000
88.91018 128.000
88.93013 124.000
88.95007 129.000
88.97002 134.000
88.98997 121.000
89.00992 126.000
89.02986 134.000
89.04981 111.000
89.06976 125.000
89.08970 145.000
89.10965 125.000
89.12960 106.000
89.14954 129.000
89.16949 113.000
89.18944 140.000
89.20939 125.000
89.22933 124.000
89.24928 133.000
89.26923 146.000
89.28917 141.000
89.30912 139.000
89.32907 126.000
89.34901 133.000
89.36896 139.000
89.38891 125.000
89.40885 139.000
89.42880 134.000
89.44875 119.000
89.46870 140.000
89.48864 139.000
89.50859 157.000
89.52854 172.000
89.54848 145.000
89.56843 120.000
89.58838 129.000
89.60832 148.000
89.62827 145.000
89.64822 132.000
89.66817 137.000
89.68811 145.000
89.70806 144.000
89.72801 120.000
89.74795 135.000
89.76790 140.000
89.78785 149.000
89.80779 129.000
89.82774 112.000
89.84769 134.000
89.86764 139.000
89.88758 142.000
89.90753 153.000
89.92748 177.000
89.94742 160.000
89.96737 176.000
89.98732 177.000
90.00726 182.000
