10.00000 288.000
10.01995 296.000
10.03989 244.000
10.05984 277.000
10.07979 241.000
10.09973 253.000
10.11968 296.000
10.13963 261.000
10.15958 254.000
10.17952 251.000
10.19947 252.000
10.21942 274.000
10.23936 267.000
10.25931 270.000
10.27926 234.000
10.29920 248.000
10.31915 296.000
10.33910 259.000
10.35905 294.000
10.37899 260.000
10.39894 266.000
10.41889 264.000
10.43883 236.000
10.45878 265.000
10.47873 247.000
10.49867 270.000
10.51862 235.000
10.53857 261.000
10.55851 310.000
10.57846 279.000
10.59841 259.000
10.61836 237.000
10.63830 253.000
10.65825 280.000
10.67820 305.000
10.69814 261.000
10.71809 251.000
10.73804 265.000
10.75798 257.000
10.77793 271.000
10.79788 254.000
10.81783 282.000
10.83777 275.000
10.85772 286.000
10.87767 271.000
10.89761 275.000
10.91756 264.000
10.93751 271.000
10.95745 264.000
10.97740 254.000
10.99735 268.000
11.01730 263.000
11.03724 271.000
11.05719 256.000
11.07714 246.000
11.09708 266.000
11.11703 259.000
11.13698 269.000
11.15692 251.000
11.17687 259.000
11.19682 273.000
11.21676 246.000
11.23671 313.000
11.25666 303.000
11.27661 274.000
11.29655 277.000
11.31650 261.000
11.33645 282.000
11.35639 271.000
11.37634 265.000
11.39629 286.000
11.41623 299.000
11.43618 270.000
11.45613 275.000
11.47608 304.000
11.49602 254.000
11.51597 258.000
11.53592 268.000
11.55586 260.000
11.57581 263.000
11.59576 264.000
11.61570 275.000
11.63565 280.000
11.65560 264.000
11.67554 287.000
11.69549 272.000
11.71544 276.000
11.73539 278.000
11.75533 283.000
11.77528 285.000
11.79523 294.000
11.81517 269.000
11.83512 255.000
11.85507 252.000
11.87501 263.000
11.89496 269.000
11.91491 258.000
11.93486 278.000
11.95480 279.000
11.97475 300.000
11.99470 272.000
12.01464 257.000
12.03459 288.000
12.05454 290.000
12.07448 266.000
12.09443 305.000
12.11438 271.000
12.13432 279.000
12.15427 299.000
12.17422 265.000
12.19417 267.000
12.21411 300.000
12.23406 282.000
12.25401 280.000
12.27395 278.000
12.29390 270.000
12.31385 254.000
12.33379 273.000
12.35374 283.000
12.37369 264.000
12.39364 257.000
12.41358 299.000
12.43353 269.000
12.45348 280.000
12.47342 293.000
12.49337 272.000
12.51332 268.000
12.53326 290.000
12.55321 276.000
12.57316 258.000
12.59311 269.000
12.61305 300.000
12.63300 280.000
12.65295 290.000
12.67289 279.000
12.69284 259.000
12.71279 303.000
12.73273 248.000
12.75268 306.000
12.77263 254.000
12.79257 254.000
12.81252 283.000
12.83247 309.000
12.85242 263.000
12.87236 265.000
12.89231 250.000
12.91226 277.000
12.93220 287.000
12.95215 288.000
12.97210 267.000
12.99204 268.000
13.01199 252.000
13.03194 287.000
13.05189 268.000
13.07183 272.000
13.09178 285.000
13.11173 277.000
13.13167 278.000
13.15162 259.000
13.17157 263.000
13.19151 285.000
13.21146 278.000
13.23141 279.000
13.25135 266.000
13.27130 262.000
13.29125 278.000
13.31120 255.000
13.33114 300.000
13.35109 292.000
13.37104 286.000
13.39098 261.000
13.41093 255.000
13.43088 262.000
13.45082 292.000
13.47077 300.000
13.49072 281.000
13.51067 272.000
13.53061 250.000
13.55056 283.000
13.57051 260.000
13.59045 238.000
13.61040 287.000
13.63035 308.000
13.65029 276.000
13.67024 308.000
13.69019 283.000
13.71013 297.000
13.73008 265.000
13.75003 275.000
13.76998 301.000
13.78992 273.000
13.80987 282.000
13.82982 314.000
13.84976 278.000
13.86971 271.000
13.88966 244.000
13.90960 248.000
13.92955 287.000
13.94950 257.000
13.96945 274.000
13.98939 272.000
14.00934 257.000
14.02929 283.000
14.04923 310.000
14.06918 309.000
14.08913 262.000
14.10907 281.000
14.12902 316.000
14.14897 292.000
14.16892 280.000
14.18886 330.000
14.20881 269.000
14.22876 265.000
14.24870 262.000
14.26865 304.000
14.28860 280.000
14.30854 280.000
14.32849 309.000
14.34844 282.000
14.36838 266.000
14.38833 272.000
14.40828 262.000
14.42823 320.000
14.44817 272.000
14.46812 293.000
14.48807 290.000
14.50801 333.000
14.52796 298.000
14.54791 301.000
14.56785 271.000
14.58780 281.000
14.60775 284.000
14.62770 260.000
14.64764 264.000
14.66759 275.000
14.68754 284.000
14.70748 281.000
14.72743 271.000
14.74738 270.000
14.76732 298.000
14.78727 305.000
14.80722 303.000
14.82716 283.000
14.84711 284.000
14.86706 303.000
14.88701 281.000
14.90695 288.000
14.92690 279.000
14.94685 287.000
14.96679 308.000
14.98674 287.000
15.00669 274.000
15.02663 286.000
15.04658 301.000
15.06653 275.000
15.08648 286.000
15.10642 263.000
15.12637 241.000
15.14632 292.000
15.16626 294.000
15.18621 286.000
15.20616 295.000
15.22610 290.000
15.24605 294.000
15.26600 307.000
15.28594 286.000
15.30589 276.000
15.32584 323.000
15.34579 311.000
15.36573 313.000
15.38568 310.000
15.40563 305.000
15.42557 304.000
15.44552 296.000
15.46547 334.000
15.48541 289.000
15.50536 290.000
15.52531 302.000
15.54526 299.000
15.56520 333.000
15.58515 297.000
15.60510 356.000
15.62504 314.000
15.64499 378.000
15.66494 355.000
15.68488 367.000
15.70483 393.000
15.72478 443.000
15.74472 423.000
15.76467 544.000
15.78462 680.000
15.80457 900.000
15.82451 1259.000
15.84446 1642.000
15.86441 2022.000
15.88435 2098.000
15.90430 1777.000
15.92425 1337.000
15.94419 876.000
15.96414 586.000
15.98409 480.000
16.00404 380.000
16.02398 366.000
16.04393 352.000
16.06388 384.000
16.08382 332.000
16.10377 327.000
16.12372 341.000
16.14366 336.000
16.16361 337.000
16.18356 304.000
16.20351 308.000
16.22345 331.000
16.24340 318.000
16.26335 295.000
16.28329 325.000
16.30324 315.000
16.32319 336.000
16.34313 298.000
16.36308 306.000
16.38303 303.000
16.40297 314.000
16.42292 292.000
16.44287 306.000
16.46282 279.000
16.48276 294.000
16.50271 316.000
16.52266 317.000
16.54260 286.000
16.56255 309.000
16.58250 294.000
16.60244 322.000
16.62239 306.000
16.64234 335.000
16.66229 301.000
16.68223 280.000
16.70218 328.000
16.72213 318.000
16.74207 284.000
16.76202 289.000
16.78197 309.000
16.80191 316.000
16.82186 315.000
16.84181 349.000
16.86175 342.000
16.88170 323.000
16.90165 337.000
16.92160 332.000
16.94154 318.000
16.96149 319.000
16.98144 290.000
17.00138 297.000
17.02133 283.000
17.04128 277.000
17.06122 292.000
17.08117 293.000
17.10112 265.000
17.12107 295.000
17.14101 278.000
17.16096 308.000
17.18091 308.000
17.20085 326.000
17.22080 308.000
17.24075 303.000
17.26069 308.000
17.28064 314.000
17.30059 292.000
17.32053 282.000
17.34048 288.000
17.36043 311.000
17.38038 301.000
17.40032 288.000
17.42027 289.000
17.44022 267.000
17.46016 278.000
17.48011 269.000
17.50006 301.000
17.52000 296.000
17.53995 326.000
17.55990 317.000
17.57985 322.000
17.59979 311.000
17.61974 278.000
17.63969 285.000
17.65963 304.000
17.67958 305.000
17.69953 305.000
17.71947 293.000
17.73942 271.000
17.75937 320.000
17.77932 280.000
17.79926 289.000
17.81921 282.000
17.83916 311.000
17.85910 297.000
17.87905 300.000
17.89900 304.000
17.91894 261.000
17.93889 300.000
17.95884 303.000
17.97878 272.000
17.99873 310.000
18.01868 310.000
18.03863 310.000
18.05857 282.000
18.07852 280.000
18.09847 312.000
18.11841 285.000
18.13836 314.000
18.15831 297.000
18.17825 293.000
18.19820 325.000
18.21815 329.000
18.23810 284.000
18.25804 292.000
18.27799 326.000
18.29794 282.000
18.31788 336.000
18.33783 347.000
18.35778 357.000
18.37772 381.000
18.39767 404.000
18.41762 481.000
18.43756 495.000
18.45751 471.000
18.47746 440.000
18.49741 400.000
18.51735 383.000
18.53730 356.000
18.55725 337.000
18.57719 345.000
18.59714 337.000
18.61709 339.000
18.63703 334.000
18.65698 323.000
18.67693 340.000
18.69688 324.000
18.71682 291.000
18.73677 319.000
18.75672 301.000
18.77666 287.000
18.79661 305.000
18.81656 310.000
18.83650 292.000
18.85645 272.000
18.87640 306.000
18.89634 311.000
18.91629 320.000
18.93624 326.000
18.95619 289.000
18.97613 307.000
18.99608 294.000
19.01603 287.000
19.03597 312.000
19.05592 306.000
19.07587 306.000
19.09581 275.000
19.11576 308.000
19.13571 341.000
19.15566 291.000
19.17560 311.000
19.19555 320.000
19.21550 310.000
19.23544 287.000
19.25539 291.000
19.27534 297.000
19.29528 329.000
19.31523 294.000
19.33518 334.000
19.35513 277.000
19.37507 317.000
19.39502 305.000
19.41497 315.000
19.43491 340.000
19.45486 282.000
19.47481 309.000
19.49475 314.000
19.51470 278.000
19.53465 296.000
19.55459 293.000
19.57454 299.000
19.59449 304.000
19.61444 279.000
19.63438 285.000
19.65433 315.000
19.67428 323.000
19.69422 305.000
19.71417 284.000
19.73412 346.000
19.75406 289.000
19.77401 324.000
19.79396 337.000
19.81391 302.000
19.83385 291.000
19.85380 296.000
19.87375 300.000
19.89369 305.000
19.91364 297.000
19.93359 292.000
19.95353 319.000
19.97348 297.000
19.99343 341.000
20.01337 333.000
20.03332 312.000
20.05327 333.000
20.07322 283.000
20.09316 290.000
20.11311 306.000
20.13306 284.000
20.15300 315.000
20.17295 326.000
20.19290 319.000
20.21284 318.000
20.23279 312.000
20.25274 320.000
20.27269 285.000
20.29263 267.000
20.31258 312.000
20.33253 309.000
20.35247 329.000
20.37242 325.000
20.39237 297.000
20.41231 301.000
20.43226 327.000
20.45221 323.000
20.47215 324.000
20.49210 286.000
20.51205 335.000
20.53200 339.000
20.55194 344.000
20.57189 312.000
20.59184 287.000
20.61178 283.000
20.63173 337.000
20.65168 320.000
20.67162 276.000
20.69157 325.000
20.71152 320.000
20.73147 293.000
20.75141 314.000
20.77136 334.000
20.79131 326.000
20.81125 320.000
20.83120 320.000
20.85115 349.000
20.87109 327.000
20.89104 334.000
20.91099 361.000
20.93094 374.000
20.95088 394.000
20.97083 408.000
20.99078 461.000
21.01072 521.000
21.03067 595.000
21.05062 680.000
21.07056 687.000
21.09051 737.000
21.11046 813.000
21.13040 790.000
21.15035 718.000
21.17030 658.000
21.19025 502.000
21.21019 477.000
21.23014 428.000
21.25009 368.000
21.27003 363.000
21.28998 322.000
21.30993 317.000
21.32987 341.000
21.34982 351.000
21.36977 334.000
21.38972 337.000
21.40966 341.000
21.42961 319.000
21.44956 321.000
21.46950 330.000
21.48945 293.000
21.50940 316.000
21.52934 319.000
21.54929 359.000
21.56924 317.000
21.58918 337.000
21.60913 341.000
21.62908 334.000
21.64903 315.000
21.66897 326.000
21.68892 302.000
21.70887 327.000
21.72881 306.000
21.74876 309.000
21.76871 331.000
21.78865 325.000
21.80860 331.000
21.82855 325.000
21.84850 322.000
21.86844 323.000
21.88839 329.000
21.90834 287.000
21.92828 326.000
21.94823 314.000
21.96818 302.000
21.98812 318.000
22.00807 349.000
22.02802 343.000
22.04796 327.000
22.06791 319.000
22.08786 312.000
22.10781 312.000
22.12775 345.000
22.14770 327.000
22.16765 341.000
22.18759 342.000
22.20754 339.000
22.22749 341.000
22.24743 337.000
22.26738 348.000
22.28733 323.000
22.30728 330.000
22.32722 362.000
22.34717 372.000
22.36712 343.000
22.38706 346.000
22.40701 339.000
22.42696 329.000
22.44690 334.000
22.46685 339.000
22.48680 320.000
22.50675 317.000
22.52669 330.000
22.54664 330.000
22.56659 309.000
22.58653 299.000
22.60648 319.000
22.62643 309.000
22.64637 366.000
22.66632 317.000
22.68627 305.000
22.70621 333.000
22.72616 307.000
22.74611 314.000
22.76606 338.000
22.78600 326.000
22.80595 371.000
22.82590 381.000
22.84584 356.000
22.86579 327.000
22.88574 365.000
22.90568 361.000
22.92563 353.000
22.94558 330.000
22.96553 338.000
22.98547 349.000
23.00542 350.000
23.02537 327.000
23.04531 340.000
23.06526 317.000
23.08521 349.000
23.10515 320.000
23.12510 350.000
23.14505 343.000
23.16499 346.000
23.18494 334.000
23.20489 309.000
23.22484 333.000
23.24478 368.000
23.26473 342.000
23.28468 323.000
23.30462 335.000
23.32457 352.000
23.34452 372.000
23.36446 340.000
23.38441 325.000
23.40436 367.000
23.42431 286.000
23.44425 334.000
23.46420 324.000
23.48415 356.000
23.50409 324.000
23.52404 361.000
23.54399 320.000
23.56393 350.000
23.58388 350.000
23.60383 326.000
23.62377 345.000
23.64372 321.000
23.66367 316.000
23.68362 370.000
23.70356 310.000
23.72351 326.000
23.74346 322.000
23.76340 343.000
23.78335 306.000
23.80330 328.000
23.82324 326.000
23.84319 316.000
23.86314 329.000
23.88309 328.000
23.90303 337.000
23.92298 379.000
23.94293 352.000
23.96287 341.000
23.98282 365.000
24.00277 323.000
24.02271 346.000
24.04266 345.000
24.06261 338.000
24.08256 327.000
24.10250 318.000
24.12245 349.000
24.14240 351.000
24.16234 340.000
24.18229 356.000
24.20224 348.000
24.22218 339.000
24.24213 362.000
24.26208 348.000
24.28202 352.000
24.30197 371.000
24.32192 337.000
24.34187 370.000
24.36181 389.000
24.38176 365.000
24.40171 375.000
24.42165 335.000
24.44160 379.000
24.46155 346.000
24.48149 335.000
24.50144 321.000
24.52139 358.000
24.54134 341.000
24.56128 330.000
24.58123 339.000
24.60118 363.000
24.62112 358.000
24.64107 355.000
24.66102 330.000
24.68096 350.000
24.70091 334.000
24.72086 333.000
24.74080 346.000
24.76075 355.000
24.78070 397.000
24.80065 343.000
24.82059 353.000
24.84054 367.000
24.86049 351.000
24.88043 372.000
24.90038 350.000
24.92033 376.000
24.94027 393.000
24.96022 359.000
24.98017 380.000
25.00012 415.000
25.02006 366.000
25.04001 377.000
25.05996 373.000
25.07990 355.000
25.09985 354.000
25.11980 327.000
25.13974 384.000
25.15969 384.000
25.17964 375.000
25.19958 376.000
25.21953 353.000
25.23948 343.000
25.25943 407.000
25.27937 350.000
25.29932 348.000
25.31927 360.000
25.33921 325.000
25.35916 381.000
25.37911 367.000
25.39905 373.000
25.41900 363.000
25.43895 352.000
25.45890 323.000
25.47884 391.000
25.49879 351.000
25.51874 351.000
25.53868 359.000
25.55863 355.000
25.57858 339.000
25.59852 401.000
25.61847 392.000
25.63842 361.000
25.65837 383.000
25.67831 343.000
25.69826 341.000
25.71821 347.000
25.73815 340.000
25.75810 376.000
25.77805 394.000
25.79799 361.000
25.81794 375.000
25.83789 372.000
25.85783 383.000
25.87778 356.000
25.89773 344.000
25.91768 326.000
25.93762 334.000
25.95757 371.000
25.97752 374.000
25.99746 363.000
26.01741 363.000
26.03736 406.000
26.05730 371.000
26.07725 377.000
26.09720 360.000
26.11715 358.000
26.13709 385.000
26.15704 359.000
26.17699 359.000
26.19693 387.000
26.21688 379.000
26.23683 395.000
26.25677 371.000
26.27672 380.000
26.29667 366.000
26.31661 420.000
26.33656 391.000
26.35651 373.000
26.37646 396.000
26.39640 382.000
26.41635 365.000
26.43630 370.000
26.45624 367.000
26.47619 373.000
26.49614 365.000
26.51608 363.000
26.53603 401.000
26.55598 371.000
26.57593 448.000
26.59587 378.000
26.61582 407.000
26.63577 404.000
26.65571 402.000
26.67566 432.000
26.69561 363.000
26.71555 409.000
26.73550 397.000
26.75545 381.000
26.77539 393.000
26.79534 399.000
26.81529 372.000
26.83524 413.000
26.85518 351.000
26.87513 383.000
26.89508 435.000
26.91502 422.000
26.93497 395.000
26.95492 369.000
26.97486 382.000
26.99481 395.000
27.01476 355.000
27.03471 421.000
27.05465 385.000
27.07460 400.000
27.09455 339.000
27.11449 403.000
27.13444 400.000
27.15439 401.000
27.17433 419.000
27.19428 399.000
27.21423 396.000
27.23417 406.000
27.25412 414.000
27.27407 393.000
27.29402 439.000
27.31396 413.000
27.33391 415.000
27.35386 379.000
27.37380 407.000
27.39375 448.000
27.41370 368.000
27.43364 413.000
27.45359 364.000
27.47354 420.000
27.49349 377.000
27.51343 386.000
27.53338 390.000
27.55333 395.000
27.57327 401.000
27.59322 405.000
27.61317 405.000
27.63311 415.000
27.65306 386.000
27.67301 388.000
27.69296 446.000
27.71290 411.000
27.73285 433.000
27.75280 427.000
27.77274 397.000
27.79269 429.000
27.81264 390.000
27.83258 417.000
27.85253 432.000
27.87248 395.000
27.89242 399.000
27.91237 422.000
27.93232 398.000
27.95227 411.000
27.97221 407.000
27.99216 406.000
28.01211 364.000
28.03205 408.000
28.05200 397.000
28.07195 375.000
28.09189 357.000
28.11184 415.000
28.13179 417.000
28.15174 447.000
28.17168 424.000
28.19163 422.000
28.21158 433.000
28.23152 395.000
28.25147 415.000
28.27142 426.000
28.29136 434.000
28.31131 430.000
28.33126 411.000
28.35120 434.000
28.37115 384.000
28.39110 422.000
28.41105 407.000
28.43099 426.000
28.45094 375.000
28.47089 433.000
28.49083 424.000
28.51078 467.000
28.53073 424.000
28.55067 424.000
28.57062 410.000
28.59057 441.000
28.61052 460.000
28.63046 444.000
28.65041 386.000
28.67036 436.000
28.69030 431.000
28.71025 451.000
28.73020 441.000
28.75014 446.000
28.77009 430.000
28.79004 443.000
28.80998 444.000
28.82993 409.000
28.84988 421.000
28.86983 406.000
28.88977 442.000
28.90972 435.000
28.92967 436.000
28.94961 423.000
28.96956 429.000
28.98951 423.000
29.00945 399.000
29.02940 431.000
29.04935 414.000
29.06930 456.000
29.08924 451.000
29.10919 417.000
29.12914 456.000
29.14908 428.000
29.16903 443.000
29.18898 434.000
29.20892 436.000
29.22887 451.000
29.24882 441.000
29.26877 452.000
29.28871 460.000
29.30866 470.000
29.32861 450.000
29.34855 477.000
29.36850 543.000
29.38845 545.000
29.40839 540.000
29.42834 574.000
29.44829 533.000
29.46823 536.000
29.48818 520.000
29.50813 503.000
29.52808 466.000
29.54802 523.000
29.56797 481.000
29.58792 454.000
29.60786 438.000
29.62781 440.000
29.64776 445.000
29.66770 461.000
29.68765 457.000
29.70760 461.000
29.72755 409.000
29.74749 438.000
29.76744 461.000
29.78739 467.000
29.80733 410.000
29.82728 429.000
29.84723 443.000
29.86717 436.000
29.88712 475.000
29.90707 458.000
29.92701 428.000
29.94696 459.000
29.96691 438.000
29.98686 470.000
30.00680 437.000
30.02675 441.000
30.04670 462.000
30.06664 443.000
30.08659 490.000
30.10654 539.000
30.12648 477.000
30.14643 497.000
30.16638 470.000
30.18633 524.000
30.20627 486.000
30.22622 566.000
30.24617 570.000
30.26611 613.000
30.28606 737.000
30.30601 825.000
30.32595 768.000
30.34590 762.000
30.36585 696.000
30.38579 709.000
30.40574 682.000
30.42569 602.000
30.44564 579.000
30.46558 524.000
30.48553 498.000
30.50548 515.000
30.52542 556.000
30.54537 465.000
30.56532 523.000
30.58526 492.000
30.60521 469.000
30.62516 489.000
30.64511 471.000
30.66505 471.000
30.68500 450.000
30.70495 422.000
30.72489 432.000
30.74484 426.000
30.76479 447.000
30.78473 430.000
30.80468 434.000
30.82463 450.000
30.84458 437.000
30.86452 455.000
30.88447 444.000
30.90442 446.000
30.92436 474.000
30.94431 443.000
30.96426 451.000
30.98420 467.000
31.00415 464.000
31.02410 402.000
31.04404 459.000
31.06399 445.000
31.08394 430.000
31.10389 460.000
31.12383 416.000
31.14378 445.000
31.16373 442.000
31.18367 437.000
31.20362 425.000
31.22357 477.000
31.24351 440.000
31.26346 423.000
31.28341 425.000
31.30336 431.000
31.32330 434.000
31.34325 422.000
31.36320 463.000
31.38314 458.000
31.40309 475.000
31.42304 450.000
31.44298 460.000
31.46293 442.000
31.48288 482.000
31.50282 412.000
31.52277 467.000
31.54272 446.000
31.56267 447.000
31.58261 453.000
31.60256 431.000
31.62251 445.000
31.64245 456.000
31.66240 423.000
31.68235 461.000
31.70229 434.000
31.72224 488.000
31.74219 455.000
31.76214 463.000
31.78208 417.000
31.80203 462.000
31.82198 498.000
31.84192 478.000
31.86187 483.000
31.88182 505.000
31.90176 491.000
31.92171 432.000
31.94166 496.000
31.96160 529.000
31.98155 531.000
32.00150 546.000
32.02145 585.000
32.04139 604.000
32.06134 552.000
32.08129 502.000
32.10123 534.000
32.12118 536.000
32.14113 515.000
32.16107 436.000
32.18102 486.000
32.20097 435.000
32.22092 506.000
32.24086 416.000
32.26081 450.000
32.28076 446.000
32.30070 429.000
32.32065 437.000
32.34060 459.000
32.36054 439.000
32.38049 471.000
32.40044 470.000
32.42039 467.000
32.44033 484.000
32.46028 533.000
32.48023 513.000
32.50017 559.000
32.52012 546.000
32.54007 564.000
32.56001 528.000
32.57996 520.000
32.59991 501.000
32.61985 515.000
32.63980 520.000
32.65975 457.000
32.67970 496.000
32.69964 431.000
32.71959 434.000
32.73954 441.000
32.75948 466.000
32.77943 458.000
32.79938 419.000
32.81932 421.000
32.83927 459.000
32.85922 462.000
32.87917 441.000
32.89911 449.000
32.91906 450.000
32.93901 430.000
32.95895 422.000
32.97890 451.000
32.99885 400.000
33.01879 443.000
33.03874 411.000
33.05869 465.000
33.07863 414.000
33.09858 426.000
33.11853 436.000
33.13848 417.000
33.15842 447.000
33.17837 420.000
33.19832 440.000
33.21826 432.000
33.23821 441.000
33.25816 448.000
33.27810 421.000
33.29805 455.000
33.31800 473.000
33.33795 416.000
33.35789 447.000
33.37784 434.000
33.39779 449.000
33.41773 434.000
33.43768 443.000
33.45763 437.000
33.47757 437.000
33.49752 422.000
33.51747 453.000
33.53741 441.000
33.55736 424.000
33.57731 413.000
33.59726 425.000
33.61720 424.000
33.63715 455.000
33.65710 435.000
33.67704 433.000
33.69699 411.000
33.71694 468.000
33.73688 445.000
33.75683 396.000
33.77678 421.000
33.79673 438.000
33.81667 398.000
33.83662 423.000
33.85657 447.000
33.87651 410.000
33.89646 472.000
33.91641 458.000
33.93635 428.000
33.95630 400.000
33.97625 453.000
33.99620 443.000
34.01614 410.000
34.03609 425.000
34.05604 477.000
34.07598 437.000
34.09593 431.000
34.11588 437.000
34.13582 460.000
34.15577 437.000
34.17572 456.000
34.19566 457.000
34.21561 422.000
34.23556 411.000
34.25551 454.000
34.27545 435.000
34.29540 460.000
34.31535 464.000
34.33529 415.000
34.35524 445.000
34.37519 448.000
34.39513 442.000
34.41508 464.000
34.43503 495.000
34.45498 473.000
34.47492 499.000
34.49487 492.000
34.51482 517.000
34.53476 563.000
34.55471 522.000
34.57466 582.000
34.59460 673.000
34.61455 644.000
34.63450 730.000
34.65444 726.000
34.67439 750.000
34.69434 768.000
34.71429 844.000
34.73423 815.000
34.75418 855.000
34.77413 839.000
34.79407 846.000
34.81402 818.000
34.83397 814.000
34.85391 781.000
34.87386 716.000
34.89381 635.000
34.91376 674.000
34.93370 633.000
34.95365 601.000
34.97360 648.000
34.99354 553.000
35.01349 527.000
35.03344 533.000
35.05338 498.000
35.07333 536.000
35.09328 567.000
35.11322 557.000
35.13317 556.000
35.15312 501.000
35.17307 559.000
35.19301 548.000
35.21296 529.000
35.23291 511.000
35.25285 529.000
35.27280 587.000
35.29275 602.000
35.31269 603.000
35.33264 606.000
35.35259 708.000
35.37254 766.000
35.39248 810.000
35.41243 907.000
35.43238 1033.000
35.45232 1189.000
35.47227 1200.000
35.49222 1401.000
35.51216 1541.000
35.53211 1794.000
35.55206 1893.000
35.57201 1940.000
35.59195 1927.000
35.61190 1869.000
35.63185 1908.000
35.65179 2102.000
35.67174 2191.000
35.69169 2085.000
35.71163 1877.000
35.73158 1702.000
35.75153 1668.000
35.77147 1599.000
35.79142 1558.000
35.81137 1369.000
35.83132 1230.000
35.85126 1077.000
35.87121 985.000
35.89116 908.000
35.91110 782.000
35.93105 716.000
35.95100 713.000
35.97094 687.000
35.99089 599.000
36.01084 588.000
36.03079 544.000
36.05073 503.000
36.07068 532.000
36.09063 541.000
36.11057 500.000
36.13052 488.000
36.15047 476.000
36.17041 464.000
36.19036 496.000
36.21031 490.000
36.23025 461.000
36.25020 472.000
36.27015 540.000
36.29010 453.000
36.31004 477.000
36.32999 469.000
36.34994 521.000
36.36988 522.000
36.38983 506.000
36.40978 499.000
36.42972 481.000
36.44967 478.000
36.46962 503.000
36.48957 473.000
36.50951 464.000
36.52946 504.000
36.54941 494.000
36.56935 482.000
36.58930 483.000
36.60925 495.000
36.62919 481.000
36.64914 532.000
36.66909 507.000
36.68903 480.000
36.70898 530.000
36.72893 468.000
36.74888 523.000
36.76882 493.000
36.78877 478.000
36.80872 516.000
36.82866 493.000
36.84861 505.000
36.86856 570.000
36.88850 571.000
36.90845 587.000
36.92840 615.000
36.94835 604.000
36.96829 638.000
36.98824 643.000
37.00819 784.000
37.02813 919.000
37.04808 1085.000
37.06803 1259.000
37.08797 1587.000
37.10792 1890.000
37.12787 2078.000
37.14781 2397.000
37.16776 2397.000
37.18771 2240.000
37.20766 2137.000
37.22760 1858.000
37.24755 1668.000
37.26750 1635.000
37.28744 1368.000
37.30739 1180.000
37.32734 923.000
37.34728 833.000
37.36723 739.000
37.38718 715.000
37.40713 624.000
37.42707 653.000
37.44702 594.000
37.46697 590.000
37.48691 544.000
37.50686 547.000
37.52681 501.000
37.54675 491.000
37.56670 494.000
37.58665 505.000
37.60660 502.000
37.62654 483.000
37.64649 502.000
37.66644 437.000
37.68638 431.000
37.70633 425.000
37.72628 403.000
37.74622 480.000
37.76617 439.000
37.78612 458.000
37.80606 447.000
37.82601 451.000
37.84596 441.000
37.86591 425.000
37.88585 455.000
37.90580 466.000
37.92575 431.000
37.94569 455.000
37.96564 463.000
37.98559 470.000
38.00553 463.000
38.02548 435.000
38.04543 469.000
38.06538 455.000
38.08532 456.000
38.10527 454.000
38.12522 409.000
38.14516 467.000
38.16511 493.000
38.18506 442.000
38.20500 458.000
38.22495 496.000
38.24490 469.000
38.26484 492.000
38.28479 479.000
38.30474 484.000
38.32469 484.000
38.34463 558.000
38.36458 545.000
38.38453 502.000
38.40447 493.000
38.42442 519.000
38.44437 565.000
38.46431 616.000
38.48426 562.000
38.50421 654.000
38.52416 625.000
38.54410 709.000
38.56405 768.000
38.58400 857.000
38.60394 964.000
38.62389 1030.000
38.64384 1214.000
38.66378 1334.000
38.68373 1330.000
38.70368 1312.000
38.72362 1332.000
38.74357 1394.000
38.76352 1333.000
38.78347 1283.000
38.80341 1167.000
38.82336 1098.000
38.84331 1005.000
38.86325 963.000
38.88320 968.000
38.90315 892.000
38.92309 873.000
38.94304 847.000
38.96299 853.000
38.98294 830.000
39.00288 817.000
39.02283 785.000
39.04278 775.000
39.06272 747.000
39.08267 723.000
39.10262 683.000
39.12256 650.000
39.14251 667.000
39.16246 594.000
39.18241 583.000
39.20235 558.000
39.22230 550.000
39.24225 525.000
39.26219 550.000
39.28214 542.000
39.30209 548.000
39.32203 624.000
39.34198 634.000
39.36193 710.000
39.38187 709.000
39.40182 667.000
39.42177 679.000
39.44172 684.000
39.46166 679.000
39.48161 612.000
39.50156 585.000
39.52150 564.000
39.54145 533.000
39.56140 517.000
39.58134 480.000
39.60129 450.000
39.62124 460.000
39.64119 446.000
39.66113 423.000
39.68108 388.000
39.70103 418.000
39.72097 398.000
39.74092 429.000
39.76087 391.000
39.78081 394.000
39.80076 405.000
39.82071 416.000
39.84065 381.000
39.86060 412.000
39.88055 467.000
39.90050 399.000
39.92044 419.000
39.94039 456.000
39.96034 443.000
39.98028 413.000
40.00023 399.000
40.02018 401.000
40.04012 428.000
40.06007 404.000
40.08002 388.000
40.09997 429.000
40.11991 434.000
40.13986 443.000
40.15981 427.000
40.17975 421.000
40.19970 408.000
40.21965 407.000
40.23959 424.000
40.25954 382.000
40.27949 390.000
40.29943 396.000
40.31938 394.000
40.33933 383.000
40.35928 360.000
40.37922 391.000
40.39917 380.000
40.41912 409.000
40.43906 417.000
40.45901 391.000
40.47896 392.000
40.49890 391.000
40.51885 380.000
40.53880 392.000
40.55875 389.000
40.57869 386.000
40.59864 424.000
40.61859 410.000
40.63853 387.000
40.65848 391.000
40.67843 411.000
40.69837 396.000
40.71832 402.000
40.73827 383.000
40.75822 350.000
40.77816 416.000
40.79811 403.000
40.81806 410.000
40.83800 396.000
40.85795 393.000
40.87790 415.000
40.89784 419.000
40.91779 437.000
40.93774 403.000
40.95768 350.000
40.97763 387.000
40.99758 394.000
41.01753 369.000
41.03747 377.000
41.05742 398.000
41.07737 418.000
41.09731 416.000
41.11726 371.000
41.13721 441.000
41.15715 422.000
41.17710 410.000
41.19705 413.000
41.21700 411.000
41.23694 403.000
41.25689 386.000
41.27684 413.000
41.29678 412.000
41.31673 452.000
41.33668 390.000
41.35662 402.000
41.37657 410.000
41.39652 383.000
41.41646 370.000
41.43641 413.000
41.45636 402.000
41.47631 404.000
41.49625 391.000
41.51620 415.000
41.53615 408.000
41.55609 399.000
41.57604 446.000
41.59599 441.000
41.61593 393.000
41.63588 417.000
41.65583 388.000
41.67578 393.000
41.69572 381.000
41.71567 393.000
41.73562 398.000
41.75556 412.000
41.77551 426.000
41.79546 409.000
41.81540 420.000
41.83535 405.000
41.85530 386.000
41.87524 394.000
41.89519 385.000
41.91514 401.000
41.93509 395.000
41.95503 447.000
41.97498 401.000
41.99493 443.000
42.01487 417.000
42.03482 413.000
42.05477 413.000
42.07471 425.000
42.09466 394.000
42.11461 434.000
42.13456 423.000
42.15450 461.000
42.17445 445.000
42.19440 401.000
42.21434 429.000
42.23429 446.000
42.25424 419.000
42.27418 408.000
42.29413 428.000
42.31408 418.000
42.33403 412.000
42.35397 450.000
42.37392 417.000
42.39387 448.000
42.41381 451.000
42.43376 423.000
42.45371 452.000
42.47365 452.000
42.49360 462.000
42.51355 464.000
42.53349 454.000
42.55344 470.000
42.57339 489.000
42.59334 502.000
42.61328 525.000
42.63323 476.000
42.65318 486.000
42.67312 513.000
42.69307 508.000
42.71302 536.000
42.73296 549.000
42.75291 580.000
42.77286 570.000
42.79281 593.000
42.81275 613.000
42.83270 666.000
42.85265 675.000
42.87259 682.000
42.89254 800.000
42.91249 838.000
42.93243 874.000
42.95238 971.000
42.97233 1095.000
42.99227 1129.000
43.01222 1259.000
43.03217 1397.000
43.05212 1587.000
43.07206 1668.000
43.09201 1850.000
43.11196 2072.000
43.13190 2156.000
43.15185 2283.000
43.17180 2387.000
43.19174 2346.000
43.21169 2385.000
43.23164 2227.000
43.25159 2207.000
43.27153 2191.000
43.29148 1958.000
43.31143 1884.000
43.33137 1687.000
43.35132 1486.000
43.37127 1404.000
43.39121 1243.000
43.41116 1160.000
43.43111 1032.000
43.45105 1035.000
43.47100 941.000
43.49095 858.000
43.51090 844.000
43.53084 776.000
43.55079 725.000
43.57074 691.000
43.59068 636.000
43.61063 637.000
43.63058 537.000
43.65052 588.000
43.67047 486.000
43.69042 484.000
43.71037 461.000
43.73031 447.000
43.75026 477.000
43.77021 474.000
43.79015 452.000
43.81010 433.000
43.83005 440.000
43.84999 404.000
43.86994 395.000
43.88989 400.000
43.90984 449.000
43.92978 401.000
43.94973 456.000
43.96968 387.000
43.98962 407.000
44.00957 394.000
44.02952 405.000
44.04946 423.000
44.06941 391.000
44.08936 392.000
44.10930 399.000
44.12925 387.000
44.14920 401.000
44.16915 411.000
44.18909 410.000
44.20904 375.000
44.22899 380.000
44.24893 369.000
44.26888 379.000
44.28883 403.000
44.30877 388.000
44.32872 394.000
44.34867 398.000
44.36862 419.000
44.38856 432.000
44.40851 381.000
44.42846 399.000
44.44840 402.000
44.46835 398.000
44.48830 410.000
44.50824 377.000
44.52819 392.000
44.54814 418.000
44.56808 388.000
44.58803 396.000
44.60798 418.000
44.62793 382.000
44.64787 364.000
44.66782 419.000
44.68777 413.000
44.70771 393.000
44.72766 400.000
44.74761 394.000
44.76755 383.000
44.78750 393.000
44.80745 402.000
44.82740 418.000
44.84734 418.000
44.86729 410.000
44.88724 407.000
44.90718 405.000
44.92713 423.000
44.94708 388.000
44.96702 411.000
44.98697 401.000
45.00692 423.000
45.02686 412.000
45.04681 436.000
45.06676 429.000
45.08671 422.000
45.10665 413.000
45.12660 441.000
45.14655 378.000
45.16649 437.000
45.18644 440.000
45.20639 448.000
45.22633 430.000
45.24628 411.000
45.26623 387.000
45.28618 449.000
45.30612 418.000
45.32607 397.000
45.34602 416.000
45.36596 375.000
45.38591 403.000
45.40586 389.000
45.42580 367.000
45.44575 364.000
45.46570 380.000
45.48565 400.000
45.50559 382.000
45.52554 377.000
45.54549 420.000
45.56543 388.000
45.58538 408.000
45.60533 408.000
45.62527 389.000
45.64522 401.000
45.66517 391.000
45.68511 396.000
45.70506 375.000
45.72501 380.000
45.74496 376.000
45.76490 368.000
45.78485 377.000
45.80480 366.000
45.82474 387.000
45.84469 362.000
45.86464 413.000
45.88458 368.000
45.90453 382.000
45.92448 382.000
45.94443 370.000
45.96437 394.000
45.98432 395.000
46.00427 362.000
46.02421 338.000
46.04416 407.000
46.06411 385.000
46.08405 368.000
46.10400 373.000
46.12395 378.000
46.14389 376.000
46.16384 370.000
46.18379 380.000
46.20374 404.000
46.22368 413.000
46.24363 392.000
46.26358 389.000
46.28352 372.000
46.30347 399.000
46.32342 398.000
46.34336 416.000
46.36331 401.000
46.38326 407.000
46.40321 358.000
46.42315 361.000
46.44310 366.000
46.46305 403.000
46.48299 380.000
46.50294 379.000
46.52289 403.000
46.54283 407.000
46.56278 371.000
46.58273 382.000
46.60267 393.000
46.62262 395.000
46.64257 373.000
46.66252 375.000
46.68246 377.000
46.70241 367.000
46.72236 371.000
46.74230 368.000
46.76225 358.000
46.78220 366.000
46.80214 374.000
46.82209 376.000
46.84204 345.000
46.86199 383.000
46.88193 368.000
46.90188 354.000
46.92183 346.000
46.94177 359.000
46.96172 378.000
46.98167 393.000
47.00161 328.000
47.02156 376.000
47.04151 367.000
47.06146 383.000
47.08140 356.000
47.10135 430.000
47.12130 356.000
47.14124 368.000
47.16119 378.000
47.18114 406.000
47.20108 396.000
47.22103 357.000
47.24098 370.000
47.26092 379.000
47.28087 377.000
47.30082 386.000
47.32077 361.000
47.34071 359.000
47.36066 353.000
47.38061 371.000
47.40055 361.000
47.42050 345.000
47.44045 334.000
47.46039 367.000
47.48034 375.000
47.50029 366.000
47.52024 351.000
47.54018 364.000
47.56013 361.000
47.58008 376.000
47.60002 352.000
47.61997 374.000
47.63992 383.000
47.65986 361.000
47.67981 401.000
47.69976 422.000
47.71970 373.000
47.73965 378.000
47.75960 360.000
47.77955 356.000
47.79949 408.000
47.81944 422.000
47.83939 369.000
47.85933 404.000
47.87928 364.000
47.89923 384.000
47.91917 368.000
47.93912 370.000
47.95907 361.000
47.97902 397.000
47.99896 375.000
48.01891 374.000
48.03886 352.000
48.05880 406.000
48.07875 380.000
48.09870 404.000
48.11864 380.000
48.13859 369.000
48.15854 435.000
48.17848 405.000
48.19843 383.000
48.21838 399.000
48.23833 399.000
48.25827 415.000
48.27822 382.000
48.29817 394.000
48.31811 464.000
48.33806 415.000
48.35801 400.000
48.37795 392.000
48.39790 420.000
48.41785 427.000
48.43780 391.000
48.45774 421.000
48.47769 427.000
48.49764 413.000
48.51758 416.000
48.53753 430.000
48.55748 425.000
48.57742 422.000
48.59737 447.000
48.61732 447.000
48.63726 482.000
48.65721 458.000
48.67716 514.000
48.69711 543.000
48.71705 579.000
48.73700 635.000
48.75695 679.000
48.77689 681.000
48.79684 712.000
48.81679 757.000
48.83673 716.000
48.85668 757.000
48.87663 759.000
48.89658 734.000
48.91652 756.000
48.93647 715.000
48.95642 640.000
48.97636 716.000
48.99631 595.000
49.01626 550.000
49.03620 592.000
49.05615 516.000
49.07610 488.000
49.09605 454.000
49.11599 449.000
49.13594 446.000
49.15589 410.000
49.17583 437.000
49.19578 414.000
49.21573 401.000
49.23567 427.000
49.25562 356.000
49.27557 362.000
49.29551 418.000
49.31546 376.000
49.33541 382.000
49.35536 381.000
49.37530 371.000
49.39525 383.000
49.41520 381.000
49.43514 412.000
49.45509 374.000
49.47504 357.000
49.49498 389.000
49.51493 388.000
49.53488 395.000
49.55483 390.000
49.57477 389.000
49.59472 373.000
49.61467 377.000
49.63461 380.000
49.65456 373.000
49.67451 366.000
49.69445 358.000
49.71440 383.000
49.73435 370.000
49.75429 376.000
49.77424 366.000
49.79419 347.000
49.81414 395.000
49.83408 346.000
49.85403 349.000
49.87398 392.000
49.89392 407.000
49.91387 403.000
49.93382 358.000
49.95376 381.000
49.97371 389.000
49.99366 350.000
50.01361 363.000
50.03355 386.000
50.05350 326.000
50.07345 370.000
50.09339 394.000
50.11334 371.000
50.13329 373.000
50.15323 391.000
50.17318 394.000
50.19313 332.000
50.21307 391.000
50.23302 338.000
50.25297 357.000
50.27292 394.000
50.29286 372.000
50.31281 370.000
50.33276 368.000
50.35270 361.000
50.37265 368.000
50.39260 398.000
50.41254 367.000
50.43249 367.000
50.45244 363.000
50.47239 348.000
50.49233 364.000
50.51228 377.000
50.53223 368.000
50.55217 388.000
50.57212 338.000
50.59207 362.000
50.61201 384.000
50.63196 405.000
50.65191 368.000
50.67186 325.000
50.69180 335.000
50.71175 365.000
50.73170 367.000
50.75164 348.000
50.77159 388.000
50.79154 367.000
50.81148 376.000
50.83143 383.000
50.85138 343.000
50.87132 359.000
50.89127 376.000
50.91122 332.000
50.93117 351.000
50.95111 340.000
50.97106 327.000
50.99101 339.000
51.01095 366.000
51.03090 356.000
51.05085 368.000
51.07079 340.000
51.09074 371.000
51.11069 347.000
51.13064 381.000
51.15058 353.000
51.17053 338.000
51.19048 334.000
51.21042 383.000
51.23037 384.000
51.25032 358.000
51.27026 358.000
51.29021 355.000
51.31016 376.000
51.33010 357.000
51.35005 381.000
51.37000 388.000
51.38995 374.000
51.40989 415.000
51.42984 378.000
51.44979 379.000
51.46973 349.000
51.48968 344.000
51.50963 360.000
51.52957 330.000
51.54952 381.000
51.56947 338.000
51.58942 394.000
51.60936 358.000
51.62931 410.000
51.64926 367.000
51.66920 339.000
51.68915 357.000
51.70910 348.000
51.72904 344.000
51.74899 357.000
51.76894 345.000
51.78888 373.000
51.80883 351.000
51.82878 375.000
51.84873 347.000
51.86867 343.000
51.88862 372.000
51.90857 364.000
51.92851 379.000
51.94846 362.000
51.96841 402.000
51.98835 366.000
52.00830 399.000
52.02825 346.000
52.04820 371.000
52.06814 396.000
52.08809 356.000
52.10804 383.000
52.12798 387.000
52.14793 391.000
52.16788 411.000
52.18782 408.000
52.20777 372.000
52.22772 370.000
52.24767 379.000
52.26761 364.000
52.28756 352.000
52.30751 397.000
52.32745 399.000
52.34740 364.000
52.36735 331.000
52.38729 383.000
52.40724 378.000
52.42719 383.000
52.44713 397.000
52.46708 337.000
52.48703 362.000
52.50698 346.000
52.52692 337.000
52.54687 369.000
52.56682 353.000
52.58676 384.000
52.60671 372.000
52.62666 377.000
52.64660 380.000
52.66655 353.000
52.68650 360.000
52.70645 346.000
52.72639 381.000
52.74634 335.000
52.76629 329.000
52.78623 374.000
52.80618 349.000
52.82613 374.000
52.84607 397.000
52.86602 425.000
52.88597 396.000
52.90591 406.000
52.92586 399.000
52.94581 395.000
52.96576 367.000
52.98570 370.000
53.00565 376.000
53.02560 399.000
53.04554 366.000
53.06549 385.000
53.08544 396.000
53.10538 380.000
53.12533 387.000
53.14528 395.000
53.16523 352.000
53.18517 370.000
53.20512 340.000
53.22507 426.000
53.24501 369.000
53.26496 427.000
53.28491 387.000
53.30485 399.000
53.32480 348.000
53.34475 415.000
53.36469 434.000
53.38464 407.000
53.40459 431.000
53.42454 445.000
53.44448 421.000
53.46443 466.000
53.48438 408.000
53.50432 426.000
53.52427 440.000
53.54422 394.000
53.56416 383.000
53.58411 439.000
53.60406 431.000
53.62401 373.000
53.64395 445.000
53.66390 403.000
53.68385 424.000
53.70379 456.000
53.72374 407.000
53.74369 430.000
53.76363 419.000
53.78358 444.000
53.80353 459.000
53.82348 433.000
53.84342 428.000
53.86337 429.000
53.88332 430.000
53.90326 456.000
53.92321 456.000
53.94316 426.000
53.96310 463.000
53.98305 411.000
54.00300 369.000
54.02294 398.000
54.04289 429.000
54.06284 378.000
54.08279 397.000
54.10273 401.000
54.12268 396.000
54.14263 370.000
54.16257 366.000
54.18252 352.000
54.20247 354.000
54.22241 378.000
54.24236 378.000
54.26231 362.000
54.28226 381.000
54.30220 391.000
54.32215 369.000
54.34210 365.000
54.36204 365.000
54.38199 383.000
54.40194 358.000
54.42188 329.000
54.44183 361.000
54.46178 359.000
54.48172 344.000
54.50167 380.000
54.52162 367.000
54.54157 342.000
54.56151 341.000
54.58146 375.000
54.60141 355.000
54.62135 345.000
54.64130 393.000
54.66125 370.000
54.68119 362.000
54.70114 389.000
54.72109 362.000
54.74104 338.000
54.76098 347.000
54.78093 389.000
54.80088 356.000
54.82082 359.000
54.84077 343.000
54.86072 340.000
54.88066 374.000
54.90061 383.000
54.92056 347.000
54.94050 364.000
54.96045 366.000
54.98040 368.000
55.00035 346.000
55.02029 356.000
55.04024 328.000
55.06019 386.000
55.08013 338.000
55.10008 386.000
55.12003 342.000
55.13997 332.000
55.15992 346.000
55.17987 326.000
55.19982 338.000
55.21976 392.000
55.23971 361.000
55.25966 339.000
55.27960 349.000
55.29955 374.000
55.31950 348.000
55.33944 357.000
55.35939 390.000
55.37934 380.000
55.39929 326.000
55.41923 357.000
55.43918 355.000
55.45913 337.000
55.47907 329.000
55.49902 392.000
55.51897 363.000
55.53891 327.000
55.55886 371.000
55.57881 363.000
55.59875 379.000
55.61870 340.000
55.63865 354.000
55.65860 324.000
55.67854 334.000
55.69849 367.000
55.71844 347.000
55.73838 371.000
55.75833 354.000
55.77828 360.000
55.79822 317.000
55.81817 376.000
55.83812 337.000
55.85807 342.000
55.87801 365.000
55.89796 346.000
55.91791 349.000
55.93785 373.000
55.95780 380.000
55.97775 342.000
55.99769 365.000
56.01764 345.000
56.03759 319.000
56.05753 403.000
56.07748 335.000
56.09743 313.000
56.11738 380.000
56.13732 344.000
56.15727 345.000
56.17722 325.000
56.19716 336.000
56.21711 384.000
56.23706 364.000
56.25700 398.000
56.27695 404.000
56.29690 369.000
56.31685 347.000
56.33679 341.000
56.35674 392.000
56.37669 319.000
56.39663 406.000
56.41658 351.000
56.43653 381.000
56.45647 342.000
56.47642 346.000
56.49637 372.000
56.51631 367.000
56.53626 382.000
56.55621 359.000
56.57616 396.000
56.59610 372.000
56.61605 360.000
56.63600 353.000
56.65594 357.000
56.67589 368.000
56.69584 383.000
56.71578 399.000
56.73573 360.000
56.75568 377.000
56.77563 360.000
56.79557 380.000
56.81552 375.000
56.83547 369.000
56.85541 398.000
56.87536 395.000
56.89531 367.000
56.91525 408.000
56.93520 397.000
56.95515 356.000
56.97510 376.000
56.99504 391.000
57.01499 375.000
57.03494 381.000
57.05488 416.000
57.07483 399.000
57.09478 392.000
57.11472 413.000
57.13467 417.000
57.15462 395.000
57.17456 451.000
57.19451 428.000
57.21446 441.000
57.23441 402.000
57.25435 411.000
57.27430 486.000
57.29425 516.000
57.31419 517.000
57.33414 557.000
57.35409 602.000
57.37403 566.000
57.39398 567.000
57.41393 519.000
57.43388 532.000
57.45382 536.000
57.47377 550.000
57.49372 534.000
57.51366 493.000
57.53361 526.000
57.55356 494.000
57.57350 481.000
57.59345 463.000
57.61340 465.000
57.63334 458.000
57.65329 455.000
57.67324 423.000
57.69319 437.000
57.71313 408.000
57.73308 403.000
57.75303 412.000
57.77297 415.000
57.79292 369.000
57.81287 413.000
57.83281 390.000
57.85276 405.000
57.87271 418.000
57.89266 373.000
57.91260 385.000
57.93255 375.000
57.95250 415.000
57.97244 389.000
57.99239 414.000
58.01234 414.000
58.03228 368.000
58.05223 420.000
58.07218 424.000
58.09212 396.000
58.11207 417.000
58.13202 411.000
58.15197 426.000
58.17191 411.000
58.19186 426.000
58.21181 463.000
58.23175 447.000
58.25170 450.000
58.27165 424.000
58.29159 435.000
58.31154 481.000
58.33149 442.000
58.35144 418.000
58.37138 459.000
58.39133 464.000
58.41128 425.000
58.43122 405.000
58.45117 453.000
58.47112 425.000
58.49106 408.000
58.51101 360.000
58.53096 374.000
58.55090 358.000
58.57085 392.000
58.59080 387.000
58.61075 355.000
58.63069 376.000
58.65064 386.000
58.67059 360.000
58.69053 375.000
58.71048 376.000
58.73043 362.000
58.75037 350.000
58.77032 358.000
58.79027 366.000
58.81022 342.000
58.83016 351.000
58.85011 372.000
58.87006 354.000
58.89000 373.000
58.90995 318.000
58.92990 354.000
58.94984 330.000
58.96979 377.000
58.98974 350.000
59.00969 329.000
59.02963 360.000
59.04958 373.000
59.06953 331.000
59.08947 346.000
59.10942 363.000
59.12937 367.000
59.14931 345.000
59.16926 370.000
59.18921 354.000
59.20915 373.000
59.22910 389.000
59.24905 365.000
59.26900 338.000
59.28894 379.000
59.30889 353.000
59.32884 352.000
59.34878 331.000
59.36873 391.000
59.38868 342.000
59.40862 377.000
59.42857 330.000
59.44852 354.000
59.46847 367.000
59.48841 345.000
59.50836 343.000
59.52831 334.000
59.54825 308.000
59.56820 395.000
59.58815 347.000
59.60809 378.000
59.62804 372.000
59.64799 344.000
59.66793 361.000
59.68788 346.000
59.70783 315.000
59.72778 349.000
59.74772 354.000
59.76767 345.000
59.78762 341.000
59.80756 362.000
59.82751 357.000
59.84746 380.000
59.86740 380.000
59.88735 330.000
59.90730 347.000
59.92725 392.000
59.94719 355.000
59.96714 384.000
59.98709 376.000
60.00703 380.000
60.02698 360.000
60.04693 331.000
60.06687 353.000
60.08682 333.000
60.10677 373.000
60.12671 344.000
60.14666 318.000
60.16661 367.000
60.18656 351.000
60.20650 366.000
60.22645 396.000
60.24640 370.000
60.26634 387.000
60.28629 366.000
60.30624 406.000
60.32618 350.000
60.34613 362.000
60.36608 378.000
60.38603 360.000
60.40597 330.000
60.42592 387.000
60.44587 370.000
60.46581 327.000
60.48576 330.000
60.50571 346.000
60.52565 386.000
60.54560 355.000
60.56555 335.000
60.58550 363.000
60.60544 372.000
60.62539 330.000
60.64534 338.000
60.66528 396.000
60.68523 372.000
60.70518 373.000
60.72512 370.000
60.74507 365.000
60.76502 361.000
60.78496 360.000
60.80491 368.000
60.82486 389.000
60.84481 358.000
60.86475 390.000
60.88470 328.000
60.90465 374.000
60.92459 375.000
60.94454 337.000
60.96449 375.000
60.98443 368.000
61.00438 387.000
61.02433 320.000
61.04428 381.000
61.06422 358.000
61.08417 354.000
61.10412 404.000
61.12406 364.000
61.14401 391.000
61.16396 333.000
61.18390 349.000
61.20385 380.000
61.22380 387.000
61.24374 383.000
61.26369 387.000
61.28364 397.000
61.30359 418.000
61.32353 423.000
61.34348 387.000
61.36343 414.000
61.38337 385.000
61.40332 400.000
61.42327 441.000
61.44321 437.000
61.46316 422.000
61.48311 459.000
61.50306 442.000
61.52300 526.000
61.54295 628.000
61.56290 580.000
61.58284 523.000
61.60279 530.000
61.62274 542.000
61.64268 520.000
61.66263 505.000
61.68258 505.000
61.70252 521.000
61.72247 518.000
61.74242 515.000
61.76237 502.000
61.78231 504.000
61.80226 481.000
61.82221 506.000
61.84215 536.000
61.86210 496.000
61.88205 471.000
61.90199 438.000
61.92194 463.000
61.94189 489.000
61.96184 500.000
61.98178 500.000
62.00173 515.000
62.02168 546.000
62.04162 512.000
62.06157 520.000
62.08152 499.000
62.10146 512.000
62.12141 543.000
62.14136 531.000
62.16131 553.000
62.18125 535.000
62.20120 523.000
62.22115 553.000
62.24109 563.000
62.26104 553.000
62.28099 536.000
62.30093 539.000
62.32088 579.000
62.34083 580.000
62.36077 585.000
62.38072 658.000
62.40067 644.000
62.42062 662.000
62.44056 692.000
62.46051 721.000
62.48046 743.000
62.50040 729.000
62.52035 895.000
62.54030 883.000
62.56024 966.000
62.58019 1010.000
62.60014 1061.000
62.62009 1117.000
62.64003 1176.000
62.65998 1272.000
62.67993 1277.000
62.69987 1244.000
62.71982 1244.000
62.73977 1230.000
62.75971 1181.000
62.77966 1176.000
62.79961 1159.000
62.81955 1129.000
62.83950 1054.000
62.85945 1011.000
62.87940 1002.000
62.89934 957.000
62.91929 940.000
62.93924 947.000
62.95918 899.000
62.97913 842.000
62.99908 869.000
63.01902 822.000
63.03897 745.000
63.05892 741.000
63.07887 663.000
63.09881 653.000
63.11876 638.000
63.13871 622.000
63.15865 630.000
63.17860 602.000
63.19855 586.000
63.21849 534.000
63.23844 553.000
63.25839 517.000
63.27833 496.000
63.29828 501.000
63.31823 487.000
63.33818 474.000
63.35812 440.000
63.37807 525.000
63.39802 425.000
63.41796 397.000
63.43791 423.000
63.45786 389.000
63.47780 435.000
63.49775 392.000
63.51770 455.000
63.53765 405.000
63.55759 368.000
63.57754 343.000
63.59749 372.000
63.61743 400.000
63.63738 364.000
63.65733 350.000
63.67727 342.000
63.69722 388.000
63.71717 393.000
63.73712 401.000
63.75706 376.000
63.77701 343.000
63.79696 393.000
63.81690 361.000
63.83685 356.000
63.85680 362.000
63.87674 382.000
63.89669 386.000
63.91664 353.000
63.93658 364.000
63.95653 349.000
63.97648 345.000
63.99643 327.000
64.01637 353.000
64.03632 359.000
64.05627 413.000
64.07621 369.000
64.09616 375.000
64.11611 356.000
64.13605 399.000
64.15600 396.000
64.17595 422.000
64.19590 366.000
64.21584 453.000
64.23579 385.000
64.25574 428.000
64.27568 402.000
64.29563 426.000
64.31558 369.000
64.33552 400.000
64.35547 436.000
64.37542 418.000
64.39536 436.000
64.41531 411.000
64.43526 415.000
64.45521 427.000
64.47515 411.000
64.49510 410.000
64.51505 436.000
64.53499 407.000
64.55494 410.000
64.57489 415.000
64.59483 396.000
64.61478 412.000
64.63473 376.000
64.65468 352.000
64.67462 351.000
64.69457 378.000
64.71452 417.000
64.73446 374.000
64.75441 392.000
64.77436 383.000
64.79430 378.000
64.81425 387.000
64.83420 382.000
64.85414 398.000
64.87409 401.000
64.89404 378.000
64.91399 400.000
64.93393 406.000
64.95388 328.000
64.97383 367.000
64.99377 349.000
65.01372 319.000
65.03367 406.000
65.05361 356.000
65.07356 382.000
65.09351 359.000
65.11346 368.000
65.13340 348.000
65.15335 383.000
65.17330 387.000
65.19324 396.000
65.21319 355.000
65.23314 386.000
65.25308 394.000
65.27303 393.000
65.29298 372.000
65.31293 329.000
65.33287 427.000
65.35282 380.000
65.37277 382.000
65.39271 387.000
65.41266 399.000
65.43261 349.000
65.45255 414.000
65.47250 399.000
65.49245 424.000
65.51239 418.000
65.53234 411.000
65.55229 435.000
65.57224 412.000
65.59218 403.000
65.61213 413.000
65.63208 435.000
65.65202 418.000
65.67197 457.000
65.69192 448.000
65.71186 490.000
65.73181 409.000
65.75176 508.000
65.77171 485.000
65.79165 429.000
65.81160 479.000
65.83155 437.000
65.85149 432.000
65.87144 427.000
65.89139 457.000
65.91133 435.000
65.93128 416.000
65.95123 462.000
65.97117 447.000
65.99112 429.000
66.01107 463.000
66.03102 422.000
66.05096 410.000
66.07091 422.000
66.09086 403.000
66.11080 435.000
66.13075 422.000
66.15070 412.000
66.17064 402.000
66.19059 466.000
66.21054 444.000
66.23049 469.000
66.25043 465.000
66.27038 462.000
66.29033 480.000
66.31027 480.000
66.33022 465.000
66.35017 473.000
66.37011 481.000
66.39006 525.000
66.41001 506.000
66.42995 453.000
66.44990 483.000
66.46985 460.000
66.48980 501.000
66.50974 466.000
66.52969 456.000
66.54964 504.000
66.56958 460.000
66.58953 426.000
66.60948 460.000
66.62942 412.000
66.64937 467.000
66.66932 419.000
66.68927 453.000
66.70921 411.000
66.72916 415.000
66.74911 428.000
66.76905 376.000
66.78900 426.000
66.80895 412.000
66.82889 384.000
66.84884 415.000
66.86879 469.000
66.88874 402.000
66.90868 388.000
66.92863 398.000
66.94858 420.000
66.96852 405.000
66.98847 425.000
67.00842 383.000
67.02836 363.000
67.04831 410.000
67.06826 398.000
67.08820 379.000
67.10815 397.000
67.12810 376.000
67.14805 361.000
67.16799 404.000
67.18794 417.000
67.20789 369.000
67.22783 372.000
67.24778 376.000
67.26773 350.000
67.28767 365.000
67.30762 354.000
67.32757 401.000
67.34752 366.000
67.36746 411.000
67.38741 352.000
67.40736 358.000
67.42730 383.000
67.44725 383.000
67.46720 380.000
67.48714 348.000
67.50709 395.000
67.52704 373.000
67.54698 338.000
67.56693 367.000
67.58688 381.000
67.60683 348.000
67.62677 350.000
67.64672 365.000
67.66667 385.000
67.68661 384.000
67.70656 398.000
67.72651 383.000
67.74645 397.000
67.76640 439.000
67.78635 421.000
67.80630 397.000
67.82624 396.000
67.84619 442.000
67.86614 403.000
67.88608 404.000
67.90603 439.000
67.92598 469.000
67.94592 459.000
67.96587 434.000
67.98582 479.000
68.00576 485.000
68.02571 488.000
68.04566 477.000
68.06561 487.000
68.08555 460.000
68.10550 458.000
68.12545 468.000
68.14539 462.000
68.16534 439.000
68.18529 458.000
68.20523 452.000
68.22518 446.000
68.24513 415.000
68.26508 385.000
68.28502 420.000
68.30497 448.000
68.32492 429.000
68.34486 411.000
68.36481 393.000
68.38476 420.000
68.40470 414.000
68.42465 405.000
68.44460 372.000
68.46455 360.000
68.48449 337.000
68.50444 368.000
68.52439 347.000
68.54433 352.000
68.56428 373.000
68.58423 355.000
68.60417 370.000
68.62412 376.000
68.64407 378.000
68.66401 360.000
68.68396 382.000
68.70391 342.000
68.72386 329.000
68.74380 343.000
68.76375 357.000
68.78370 362.000
68.80364 356.000
68.82359 315.000
68.84354 376.000
68.86348 338.000
68.88343 385.000
68.90338 356.000
68.92333 336.000
68.94327 331.000
68.96322 364.000
68.98317 370.000
69.00311 361.000
69.02306 315.000
69.04301 349.000
69.06295 344.000
69.08290 363.000
69.10285 373.000
69.12279 368.000
69.14274 338.000
69.16269 341.000
69.18264 350.000
69.20258 374.000
69.22253 338.000
69.24248 333.000
69.26242 383.000
69.28237 348.000
69.30232 365.000
69.32226 333.000
69.34221 329.000
69.36216 329.000
69.38211 348.000
69.40205 331.000
69.42200 340.000
69.44195 343.000
69.46189 356.000
69.48184 335.000
69.50179 378.000
69.52173 330.000
69.54168 347.000
69.56163 338.000
69.58157 360.000
69.60152 317.000
69.62147 330.000
69.64142 322.000
69.66136 324.000
69.68131 335.000
69.70126 347.000
69.72120 340.000
69.74115 357.000
69.76110 359.000
69.78104 334.000
69.80099 344.000
69.82094 314.000
69.84089 321.000
69.86083 345.000
69.88078 336.000
69.90073 353.000
69.92067 359.000
69.94062 341.000
69.96057 352.000
69.98051 378.000
70.00046 347.000
70.02041 340.000
70.04035 365.000
70.06030 358.000
70.08025 351.000
70.10020 319.000
70.12014 355.000
70.14009 334.000
70.16004 327.000
70.17998 342.000
70.19993 358.000
70.21988 294.000
70.23982 326.000
70.25977 296.000
70.27972 322.000
70.29967 354.000
70.31961 318.000
70.33956 357.000
70.35951 338.000
70.37945 388.000
70.39940 354.000
70.41935 324.000
70.43929 325.000
70.45924 343.000
70.47919 337.000
70.49914 370.000
70.51908 333.000
70.53903 345.000
70.55898 325.000
70.57892 364.000
70.59887 307.000
70.61882 340.000
70.63876 352.000
70.65871 340.000
70.67866 330.000
70.69860 356.000
70.71855 341.000
70.73850 354.000
70.75845 368.000
70.77839 323.000
70.79834 368.000
70.81829 343.000
70.83823 355.000
70.85818 334.000
70.87813 336.000
70.89807 319.000
70.91802 334.000
70.93797 373.000
70.95792 325.000
70.97786 372.000
70.99781 345.000
71.01776 368.000
71.03770 303.000
71.05765 356.000
71.07760 354.000
71.09754 329.000
71.11749 350.000
71.13744 355.000
71.15738 391.000
71.17733 380.000
71.19728 353.000
71.21723 334.000
71.23717 370.000
71.25712 339.000
71.27707 363.000
71.29701 368.000
71.31696 346.000
71.33691 348.000
71.35685 342.000
71.37680 377.000
71.39675 365.000
71.41670 388.000
71.43664 344.000
71.45659 334.000
71.47654 337.000
71.49648 376.000
71.51643 373.000
71.53638 359.000
71.55632 317.000
71.57627 321.000
71.59622 363.000
71.61616 353.000
71.63611 354.000
71.65606 352.000
71.67601 358.000
71.69595 344.000
71.71590 355.000
71.73585 343.000
71.75579 354.000
71.77574 368.000
71.79569 361.000
71.81563 398.000
71.83558 344.000
71.85553 357.000
71.87548 324.000
71.89542 355.000
71.91537 341.000
71.93532 357.000
71.95526 334.000
71.97521 305.000
71.99516 335.000
72.01510 325.000
72.03505 325.000
72.05500 316.000
72.07495 330.000
72.09489 358.000
72.11484 333.000
72.13479 357.000
72.15473 330.000
72.17468 364.000
72.19463 360.000
72.21457 343.000
72.23452 334.000
72.25447 337.000
72.27441 341.000
72.29436 381.000
72.31431 397.000
72.33426 386.000
72.35420 355.000
72.37415 431.000
72.39410 412.000
72.41404 391.000
72.43399 385.000
72.45394 412.000
72.47388 406.000
72.49383 381.000
72.51378 403.000
72.53373 375.000
72.55367 410.000
72.57362 387.000
72.59357 400.000
72.61351 370.000
72.63346 369.000
72.65341 372.000
72.67335 411.000
72.69330 375.000
72.71325 370.000
72.73319 355.000
72.75314 357.000
72.77309 367.000
72.79304 381.000
72.81298 359.000
72.83293 373.000
72.85288 356.000
72.87282 351.000
72.89277 388.000
72.91272 365.000
72.93266 306.000
72.95261 330.000
72.97256 354.000
72.99251 354.000
73.01245 391.000
73.03240 358.000
73.05235 337.000
73.07229 358.000
73.09224 362.000
73.11219 341.000
73.13213 317.000
73.15208 351.000
73.17203 341.000
73.19197 341.000
73.21192 322.000
73.23187 340.000
73.25182 338.000
73.27176 389.000
73.29171 341.000
73.31166 336.000
73.33160 344.000
73.35155 351.000
73.37150 374.000
73.39144 331.000
73.41139 353.000
73.43134 401.000
73.45129 341.000
73.47123 373.000
73.49118 376.000
73.51113 336.000
73.53107 330.000
73.55102 332.000
73.57097 408.000
73.59091 358.000
73.61086 375.000
73.63081 377.000
73.65076 382.000
73.67070 341.000
73.69065 381.000
73.71060 357.000
73.73054 359.000
73.75049 366.000
73.77044 364.000
73.79038 369.000
73.81033 374.000
73.83028 372.000
73.85022 356.000
73.87017 395.000
73.89012 356.000
73.91007 364.000
73.93001 364.000
73.94996 346.000
73.96991 341.000
73.98985 342.000
74.00980 331.000
74.02975 395.000
74.04969 341.000
74.06964 372.000
74.08959 335.000
74.10954 350.000
74.12948 377.000
74.14943 334.000
74.16938 381.000
74.18932 409.000
74.20927 305.000
74.22922 394.000
74.24916 367.000
74.26911 343.000
74.28906 349.000
74.30900 379.000
74.32895 366.000
74.34890 402.000
74.36885 338.000
74.38879 387.000
74.40874 397.000
74.42869 389.000
74.44863 384.000
74.46858 360.000
74.48853 402.000
74.50847 386.000
74.52842 404.000
74.54837 413.000
74.56832 441.000
74.58826 374.000
74.60821 434.000
74.62816 373.000
74.64810 414.000
74.66805 421.000
74.68800 460.000
74.70794 412.000
74.72789 416.000
74.74784 460.000
74.76778 463.000
74.78773 468.000
74.80768 487.000
74.82763 446.000
74.84757 467.000
74.86752 453.000
74.88747 483.000
74.90741 481.000
74.92736 491.000
74.94731 538.000
74.96725 562.000
74.98720 599.000
75.00715 593.000
75.02710 604.000
75.04704 588.000
75.06699 616.000
75.08694 637.000
75.10688 614.000
75.12683 638.000
75.14678 665.000
75.16672 673.000
75.18667 684.000
75.20662 696.000
75.22657 625.000
75.24651 681.000
75.26646 632.000
75.28641 631.000
75.30635 579.000
75.32630 602.000
75.34625 593.000
75.36619 595.000
75.38614 573.000
75.40609 510.000
75.42603 575.000
75.44598 547.000
75.46593 523.000
75.48588 538.000
75.50582 478.000
75.52577 508.000
75.54572 445.000
75.56566 478.000
75.58561 440.000
75.60556 439.000
75.62550 419.000
75.64545 451.000
75.66540 406.000
75.68535 415.000
75.70529 412.000
75.72524 413.000
75.74519 408.000
75.76513 431.000
75.78508 390.000
75.80503 397.000
75.82497 361.000
75.84492 356.000
75.86487 379.000
75.88481 381.000
75.90476 370.000
75.92471 347.000
75.94466 390.000
75.96460 358.000
75.98455 369.000
76.00450 379.000
76.02444 372.000
76.04439 355.000
76.06434 366.000
76.08428 354.000
76.10423 408.000
76.12418 382.000
76.14413 382.000
76.16407 370.000
76.18402 370.000
76.20397 351.000
76.22391 346.000
76.24386 348.000
76.26381 339.000
76.28375 321.000
76.30370 330.000
76.32365 364.000
76.34359 330.000
76.36354 338.000
76.38349 346.000
76.40344 337.000
76.42338 385.000
76.44333 350.000
76.46328 362.000
76.48322 372.000
76.50317 350.000
76.52312 345.000
76.54306 341.000
76.56301 332.000
76.58296 371.000
76.60291 320.000
76.62285 353.000
76.64280 357.000
76.66275 308.000
76.68269 317.000
76.70264 321.000
76.72259 339.000
76.74253 369.000
76.76248 336.000
76.78243 375.000
76.80238 313.000
76.82232 334.000
76.84227 389.000
76.86222 355.000
76.88216 323.000
76.90211 356.000
76.92206 362.000
76.94200 316.000
76.96195 355.000
76.98190 329.000
77.00184 366.000
77.02179 337.000
77.04174 327.000
77.06169 369.000
77.08163 311.000
77.10158 319.000
77.12153 367.000
77.14147 385.000
77.16142 364.000
77.18137 355.000
77.20131 343.000
77.22126 327.000
77.24121 326.000
77.26116 350.000
77.28110 350.000
77.30105 344.000
77.32100 357.000
77.34094 331.000
77.36089 351.000
77.38084 340.000
77.40078 314.000
77.42073 343.000
77.44068 375.000
77.46062 334.000
77.48057 313.000
77.50052 335.000
77.52047 384.000
77.54041 352.000
77.56036 387.000
77.58031 357.000
77.60025 371.000
77.62020 333.000
77.64015 366.000
77.66009 351.000
77.68004 377.000
77.69999 370.000
77.71994 333.000
77.73988 330.000
77.75983 353.000
77.77978 343.000
77.79972 354.000
77.81967 355.000
77.83962 334.000
77.85956 352.000
77.87951 337.000
77.89946 370.000
77.91940 370.000
77.93935 370.000
77.95930 367.000
77.97925 325.000
77.99919 339.000
78.01914 321.000
78.03909 330.000
78.05903 371.000
78.07898 345.000
78.09893 329.000
78.11887 363.000
78.13882 352.000
78.15877 357.000
78.17872 367.000
78.19866 389.000
78.21861 364.000
78.23856 395.000
78.25850 424.000
78.27845 390.000
78.29840 374.000
78.31834 375.000
78.33829 379.000
78.35824 426.000
78.37819 380.000
78.39813 387.000
78.41808 350.000
78.43803 347.000
78.45797 361.000
78.47792 367.000
78.49787 379.000
78.51781 361.000
78.53776 344.000
78.55771 341.000
78.57765 361.000
78.59760 336.000
78.61755 365.000
78.63750 371.000
78.65744 347.000
78.67739 385.000
78.69734 404.000
78.71728 341.000
78.73723 356.000
78.75718 416.000
78.77712 383.000
78.79707 371.000
78.81702 369.000
78.83697 420.000
78.85691 407.000
78.87686 385.000
78.89681 428.000
78.91675 443.000
78.93670 429.000
78.95665 441.000
78.97659 446.000
78.99654 503.000
79.01649 500.000
79.03643 531.000
79.05638 533.000
79.07633 505.000
79.09628 538.000
79.11622 501.000
79.13617 525.000
79.15612 549.000
79.17606 562.000
79.19601 564.000
79.21596 488.000
79.23590 535.000
79.25585 534.000
79.27580 481.000
79.29575 493.000
79.31569 501.000
79.33564 469.000
79.35559 460.000
79.37553 484.000
79.39548 471.000
79.41543 420.000
79.43537 454.000
79.45532 449.000
79.47527 427.000
79.49521 421.000
79.51516 422.000
79.53511 454.000
79.55506 388.000
79.57500 396.000
79.59495 405.000
79.61490 353.000
79.63484 373.000
79.65479 370.000
79.67474 351.000
79.69468 342.000
79.71463 339.000
79.73458 367.000
79.75453 361.000
79.77447 347.000
79.79442 358.000
79.81437 362.000
79.83431 369.000
79.85426 359.000
79.87421 349.000
79.89415 339.000
79.91410 375.000
79.93405 371.000
79.95399 369.000
79.97394 372.000
79.99389 342.000
80.01384 333.000
80.03378 351.000
80.05373 359.000
80.07368 343.000
80.09362 309.000
80.11357 360.000
80.13352 365.000
80.15346 364.000
80.17341 341.000
80.19336 355.000
80.21331 380.000
80.23325 361.000
80.25320 351.000
80.27315 336.000
80.29309 373.000
80.31304 324.000
80.33299 356.000
80.35293 321.000
80.37288 388.000
80.39283 329.000
80.41278 331.000
80.43272 367.000
80.45267 372.000
80.47262 366.000
80.49256 336.000
80.51251 332.000
80.53246 355.000
80.55240 354.000
80.57235 321.000
80.59230 376.000
80.61224 335.000
80.63219 317.000
80.65214 334.000
80.67209 326.000
80.69203 343.000
80.71198 355.000
80.73193 344.000
80.75187 334.000
80.77182 356.000
80.79177 340.000
80.81171 339.000
80.83166 319.000
80.85161 348.000
80.87156 308.000
80.89150 296.000
80.91145 351.000
80.93140 378.000
80.95134 304.000
80.97129 358.000
80.99124 373.000
81.01118 334.000
81.03113 322.000
81.05108 354.000
81.07102 319.000
81.09097 316.000
81.11092 335.000
81.13087 350.000
81.15081 356.000
81.17076 358.000
81.19071 325.000
81.21065 350.000
81.23060 348.000
81.25055 314.000
81.27049 319.000
81.29044 368.000
81.31039 333.000
81.33034 304.000
81.35028 324.000
81.37023 345.000
81.39018 333.000
81.41012 357.000
81.43007 374.000
81.45002 318.000
81.46996 317.000
81.48991 349.000
81.50986 364.000
81.52980 380.000
81.54975 339.000
81.56970 329.000
81.58965 305.000
81.60959 351.000
81.62954 324.000
81.64949 320.000
81.66943 341.000
81.68938 335.000
81.70933 310.000
81.72927 332.000
81.74922 336.000
81.76917 315.000
81.78912 341.000
81.80906 327.000
81.82901 345.000
81.84896 325.000
81.86890 306.000
81.88885 322.000
81.90880 344.000
81.92874 337.000
81.94869 312.000
81.96864 368.000
81.98859 354.000
82.00853 382.000
82.02848 313.000
82.04843 322.000
82.06837 376.000
82.08832 361.000
82.10827 357.000
82.12821 322.000
82.14816 310.000
82.16811 342.000
82.18805 378.000
82.20800 344.000
82.22795 339.000
82.24790 361.000
82.26784 354.000
82.28779 345.000
82.30774 337.000
82.32768 364.000
82.34763 325.000
82.36758 361.000
82.38752 345.000
82.40747 346.000
82.42742 356.000
82.44737 359.000
82.46731 350.000
82.48726 354.000
82.50721 383.000
82.52715 340.000
82.54710 361.000
82.56705 354.000
82.58699 349.000
82.60694 374.000
82.62689 359.000
82.64683 383.000
82.66678 405.000
82.68673 368.000
82.70668 341.000
82.72662 368.000
82.74657 390.000
82.76652 387.000
82.78646 357.000
82.80641 382.000
82.82636 409.000
82.84630 385.000
82.86625 388.000
82.88620 384.000
82.90615 367.000
82.92609 340.000
82.94604 335.000
82.96599 381.000
82.98593 353.000
83.00588 343.000
83.02583 359.000
83.04577 350.000
83.06572 379.000
83.08567 370.000
83.10561 359.000
83.12556 378.000
83.14551 382.000
83.16546 360.000
83.18540 346.000
83.20535 377.000
83.22530 344.000
83.24524 346.000
83.26519 334.000
83.28514 369.000
83.30508 361.000
83.32503 349.000
83.34498 360.000
83.36493 362.000
83.38487 342.000
83.40482 341.000
83.42477 346.000
83.44471 363.000
83.46466 359.000
83.48461 343.000
83.50455 364.000
83.52450 351.000
83.54445 361.000
83.56440 318.000
83.58434 343.000
83.60429 386.000
83.62424 347.000
83.64418 335.000
83.66413 374.000
83.68408 370.000
83.70402 381.000
83.72397 348.000
83.74392 341.000
83.76386 385.000
83.78381 341.000
83.80376 368.000
83.82371 357.000
83.84365 412.000
83.86360 330.000
83.88355 357.000
83.90349 335.000
83.92344 350.000
83.94339 351.000
83.96333 384.000
83.98328 364.000
84.00323 342.000
84.02318 377.000
84.04312 349.000
84.06307 369.000
84.08302 352.000
84.10296 336.000
84.12291 359.000
84.14286 337.000
84.16280 338.000
84.18275 354.000
84.20270 365.000
84.22264 372.000
84.24259 333.000
84.26254 322.000
84.28249 364.000
84.30243 362.000
84.32238 371.000
84.34233 334.000
84.36227 383.000
84.38222 351.000
84.40217 380.000
84.42211 313.000
84.44206 348.000
84.46201 371.000
84.48196 331.000
84.50190 351.000
84.52185 427.000
84.54180 350.000
84.56174 313.000
84.58169 328.000
84.60164 358.000
84.62158 339.000
84.64153 362.000
84.66148 391.000
84.68142 343.000
84.70137 356.000
84.72132 356.000
84.74127 349.000
84.76121 341.000
84.78116 331.000
84.80111 364.000
84.82105 353.000
84.84100 333.000
84.86095 326.000
84.88089 337.000
84.90084 385.000
84.92079 351.000
84.94074 348.000
84.96068 364.000
84.98063 351.000
85.00058 359.000
85.02052 354.000
85.04047 337.000
85.06042 304.000
85.08036 330.000
85.10031 344.000
85.12026 303.000
85.14021 324.000
85.16015 351.000
85.18010 305.000
85.20005 361.000
85.21999 354.000
85.23994 347.000
85.25989 327.000
85.27983 334.000
85.29978 348.000
85.31973 344.000
85.33967 318.000
85.35962 346.000
85.37957 334.000
85.39952 342.000
85.41946 336.000
85.43941 345.000
85.45936 334.000
85.47930 351.000
85.49925 344.000
85.51920 305.000
85.53914 306.000
85.55909 332.000
85.57904 349.000
85.59899 335.000
85.61893 333.000
85.63888 327.000
85.65883 335.000
85.67877 346.000
85.69872 314.000
85.71867 319.000
85.73861 303.000
85.75856 339.000
85.77851 362.000
85.79845 328.000
85.81840 320.000
85.83835 352.000
85.85830 314.000
85.87824 365.000
85.89819 344.000
85.91814 325.000
85.93808 299.000
85.95803 343.000
85.97798 341.000
85.99792 358.000
86.01787 304.000
86.03782 327.000
86.05777 325.000
86.07771 346.000
86.09766 318.000
86.11761 331.000
86.13755 357.000
86.15750 320.000
86.17745 300.000
86.19739 335.000
86.21734 342.000
86.23729 348.000
86.25723 309.000
86.27718 331.000
86.29713 339.000
86.31708 344.000
86.33702 350.000
86.35697 331.000
86.37692 329.000
86.39686 349.000
86.41681 338.000
86.43676 329.000
86.45670 328.000
86.47665 328.000
86.49660 364.000
86.51655 373.000
86.53649 368.000
86.55644 341.000
86.57639 329.000
86.59633 330.000
86.61628 333.000
86.63623 341.000
86.65617 338.000
86.67612 317.000
86.69607 339.000
86.71602 312.000
86.73596 352.000
86.75591 339.000
86.77586 371.000
86.79580 326.000
86.81575 344.000
86.83570 327.000
86.85564 376.000
86.87559 351.000
86.89554 336.000
86.91548 343.000
86.93543 343.000
86.95538 361.000
86.97533 375.000
86.99527 374.000
87.01522 364.000
87.03517 355.000
87.05511 361.000
87.07506 320.000
87.09501 350.000
87.11495 365.000
87.13490 365.000
87.15485 341.000
87.17480 379.000
87.19474 327.000
87.21469 363.000
87.23464 351.000
87.25458 355.000
87.27453 345.000
87.29448 361.000
87.31442 358.000
87.33437 367.000
87.35432 346.000
87.37426 362.000
87.39421 401.000
87.41416 369.000
87.43411 374.000
87.45405 348.000
87.47400 354.000
87.49395 377.000
87.51389 364.000
87.53384 355.000
87.55379 302.000
87.57373 379.000
87.59368 350.000
87.61363 366.000
87.63358 334.000
87.65352 352.000
87.67347 344.000
87.69342 382.000
87.71336 358.000
87.73331 379.000
87.75326 367.000
87.77320 332.000
87.79315 380.000
87.81310 330.000
87.83304 340.000
87.85299 359.000
87.87294 328.000
87.89289 353.000
87.91283 367.000
87.93278 344.000
87.95273 332.000
87.97267 367.000
87.99262 346.000
88.01257 353.000
88.03251 349.000
88.05246 339.000
88.07241 352.000
88.09236 336.000
88.11230 344.000
88.13225 348.000
88.15220 348.000
88.17214 322.000
88.19209 314.000
88.21204 304.000
88.23198 350.000
88.25193 342.000
88.27188 340.000
88.29183 338.000
88.31177 311.000
88.33172 333.000
88.35167 371.000
88.37161 346.000
88.39156 338.000
88.41151 358.000
88.43145 350.000
88.45140 350.000
88.47135 365.000
88.49129 320.000
88.51124 363.000
88.53119 322.000
88.55114 343.000
88.57108 334.000
88.59103 337.000
88.61098 359.000
88.63092 356.000
88.65087 322.000
88.67082 352.000
88.69076 356.000
88.71071 342.000
88.73066 345.000
88.75061 351.000
88.77055 365.000
88.79050 364.000
88.81045 327.000
88.83039 336.000
88.85034 324.000
88.87029 356.000
88.89023 326.000
88.91018 324.000
88.93013 354.000
88.95007 299.000
88.97002 374.000
88.98997 347.000
89.00992 312.000
89.02986 353.000
89.04981 354.000
89.06976 280.000
89.08970 337.000
89.10965 358.000
89.12960 327.000
89.14954 356.000
89.16949 365.000
89.18944 328.000
89.20939 301.000
89.22933 331.000
89.24928 317.000
89.26923 322.000
89.28917 329.000
89.30912 332.000
89.32907 361.000
89.34901 367.000
89.36896 349.000
89.38891 326.000
89.40885 342.000
89.42880 302.000
89.44875 333.000
89.46870 357.000
89.48864 351.000
89.50859 294.000
89.52854 357.000
89.54848 371.000
89.56843 316.000
89.58838 343.000
89.60832 320.000
89.62827 351.000
89.64822 347.000
89.66817 343.000
89.68811 370.000
89.70806 332.000
89.72801 387.000
89.74795 363.000
89.76790 361.000
89.78785 344.000
89.80779 363.000
89.82774 351.000
89.84769 347.000
89.86764 393.000
89.88758 386.000
89.90753 362.000
89.92748 366.000
89.94742 328.000
89.96737 375.000
89.98732 385.000
90.00726 370.000
