10.00000 48.000
10.01995 44.000
10.03989 45.000
10.05984 43.000
10.07979 63.000
10.09973 54.000
10.11968 60.000
10.13963 68.000
10.15958 62.000
10.17952 54.000
10.19947 53.000
10.21942 46.000
10.23936 51.000
10.25931 56.000
10.27926 56.000
10.29920 52.000
10.31915 55.000
10.33910 53.000
10.35905 52.000
10.37899 55.000
10.39894 53.000
10.41889 63.000
10.43883 67.000
10.45878 47.000
10.47873 61.000
10.49867 53.000
10.51862 68.000
10.53857 60.000
10.55851 58.000
10.57846 53.000
10.59841 50.000
10.61836 58.000
10.63830 54.000
10.65825 43.000
10.67820 63.000
10.69814 49.000
10.71809 51.000
10.73804 40.000
10.75798 47.000
10.77793 67.000
10.79788 50.000
10.81783 57.000
10.83777 45.000
10.85772 51.000
10.87767 49.000
10.89761 48.000
10.91756 58.000
10.93751 59.000
10.95745 56.000
10.97740 44.000
10.99735 61.000
11.01730 41.000
11.03724 64.000
11.05719 47.000
11.07714 53.000
11.09708 58.000
11.11703 37.000
11.13698 61.000
11.15692 58.000
11.17687 50.000
11.19682 47.000
11.21676 67.000
11.23671 44.000
11.25666 67.000
11.27661 66.000
11.29655 42.000
11.31650 57.000
11.33645 51.000
11.35639 51.000
11.37634 58.000
11.39629 53.000
11.41623 45.000
11.43618 49.000
11.45613 59.000
11.47608 73.000
11.49602 55.000
11.51597 53.000
11.53592 54.000
11.55586 60.000
11.57581 43.000
11.59576 57.000
11.61570 70.000
11.63565 58.000
11.65560 52.000
11.67554 53.000
11.69549 62.000
11.71544 55.000
11.73539 63.000
11.75533 56.000
11.77528 48.000
11.79523 58.000
11.81517 54.000
11.83512 51.000
11.85507 51.000
11.87501 70.000
11.89496 55.000
11.91491 47.000
11.93486 52.000
11.95480 50.000
11.97475 61.000
11.99470 63.000
12.01464 47.000
12.03459 57.000
12.05454 52.000
12.07448 72.000
12.09443 52.000
12.11438 56.000
12.13432 64.000
12.15427 58.000
12.17422 51.000
12.19417 56.000
12.21411 67.000
12.23406 54.000
12.25401 52.000
12.27395 70.000
12.29390 68.000
12.31385 52.000
12.33379 58.000
12.35374 62.000
12.37369 61.000
12.39364 54.000
12.41358 42.000
12.43353 60.000
12.45348 57.000
12.47342 60.000
12.49337 58.000
12.51332 57.000
12.53326 57.000
12.55321 48.000
12.57316 59.000
12.59311 56.000
12.61305 45.000
12.63300 54.000
12.65295 48.000
12.67289 46.000
12.69284 51.000
12.71279 56.000
12.73273 64.000
12.75268 74.000
12.77263 50.000
12.79257 60.000
12.81252 72.000
12.83247 51.000
12.85242 64.000
12.87236 49.000
12.89231 57.000
12.91226 63.000
12.93220 64.000
12.95215 57.000
12.97210 54.000
12.99204 60.000
13.01199 45.000
13.03194 46.000
13.05189 67.000
13.07183 60.000
13.09178 62.000
13.11173 72.000
13.13167 53.000
13.15162 52.000
13.17157 77.000
13.19151 54.000
13.21146 42.000
13.23141 52.000
13.25135 65.000
13.27130 61.000
13.29125 56.000
13.31120 47.000
13.33114 73.000
13.35109 48.000
13.37104 75.000
13.39098 53.000
13.41093 44.000
13.43088 46.000
13.45082 51.000
13.47077 61.000
13.49072 63.000
13.51067 64.000
13.53061 69.000
13.55056 67.000
13.57051 64.000
13.59045 66.000
13.61040 51.000
13.63035 64.000
13.65029 69.000
13.67024 59.000
13.69019 46.000
13.71013 67.000
13.73008 50.000
13.75003 55.000
13.76998 62.000
13.78992 68.000
13.80987 49.000
13.82982 77.000
13.84976 55.000
13.86971 58.000
13.88966 56.000
13.90960 50.000
13.92955 63.000
13.94950 68.000
13.96945 70.000
13.98939 64.000
14.00934 57.000
14.02929 56.000
14.04923 62.000
14.06918 73.000
14.08913 71.000
14.10907 59.000
14.12902 76.000
14.14897 82.000
14.16892 71.000
14.18886 75.000
14.20881 77.000
14.22876 71.000
14.24870 65.000
14.26865 71.000
14.28860 72.000
14.30854 62.000
14.32849 66.000
14.34844 70.000
14.36838 65.000
14.38833 61.000
14.40828 63.000
14.42823 66.000
14.44817 70.000
14.46812 58.000
14.48807 78.000
14.50801 77.000
14.52796 77.000
14.54791 91.000
14.56785 57.000
14.58780 71.000
14.60775 71.000
14.62770 72.000
14.64764 72.000
14.66759 80.000
14.68754 81.000
14.70748 63.000
14.72743 84.000
14.74738 71.000
14.76732 85.000
14.78727 70.000
14.80722 91.000
14.82716 79.000
14.84711 78.000
14.86706 75.000
14.88701 90.000
14.90695 86.000
14.92690 109.000
14.94685 96.000
14.96679 146.000
14.98674 106.000
15.00669 121.000
15.02663 136.000
15.04658 140.000
15.06653 129.000
15.08648 133.000
15.10642 157.000
15.12637 139.000
15.14632 138.000
15.16626 161.000
15.18621 146.000
15.20616 167.000
15.22610 144.000
15.24605 165.000
15.26600 168.000
15.28594 161.000
15.30589 159.000
15.32584 184.000
15.34579 191.000
15.36573 248.000
15.38568 205.000
15.40563 222.000
15.42557 276.000
15.44552 266.000
15.46547 314.000
15.48541 327.000
15.50536 382.000
15.52531 482.000
15.54526 600.000
15.56520 811.000
15.58515 1059.000
15.60510 1688.000
15.62504 2719.000
15.64499 4365.000
15.66494 6971.000
15.68488 10568.000
15.70483 13396.000
15.72478 14420.000
15.74472 12444.000
15.76467 9048.000
15.78462 5756.000
15.80457 3208.000
15.82451 1871.000
15.84446 1070.000
15.86441 643.000
15.88435 525.000
15.90430 423.000
15.92425 362.000
15.94419 280.000
15.96414 236.000
15.98409 240.000
16.00404 206.000
16.02398 219.000
16.04393 198.000
16.06388 178.000
16.08382 154.000
16.10377 175.000
16.12372 156.000
16.14366 139.000
16.16361 126.000
16.18356 123.000
16.20351 124.000
16.22345 124.000
16.24340 117.000
16.26335 111.000
16.28329 98.000
16.30324 104.000
16.32319 118.000
16.34313 110.000
16.36308 117.000
16.38303 83.000
16.40297 100.000
16.42292 92.000
16.44287 91.000
16.46282 95.000
16.48276 87.000
16.50271 90.000
16.52266 95.000
16.54260 79.000
16.56255 82.000
16.58250 75.000
16.60244 60.000
16.62239 81.000
16.64234 75.000
16.66229 55.000
16.68223 74.000
16.70218 79.000
16.72213 67.000
16.74207 70.000
16.76202 69.000
16.78197 64.000
16.80191 51.000
16.82186 50.000
16.84181 88.000
16.86175 58.000
16.88170 59.000
16.90165 56.000
16.92160 62.000
16.94154 52.000
16.96149 66.000
16.98144 45.000
17.00138 69.000
17.02133 61.000
17.04128 48.000
17.06122 61.000
17.08117 50.000
17.10112 59.000
17.12107 53.000
17.14101 55.000
17.16096 53.000
17.18091 60.000
17.20085 49.000
17.22080 57.000
17.24075 57.000
17.26069 52.000
17.28064 53.000
17.30059 40.000
17.32053 56.000
17.34048 57.000
17.36043 59.000
17.38038 57.000
17.40032 47.000
17.42027 55.000
17.44022 42.000
17.46016 37.000
17.48011 50.000
17.50006 52.000
17.52000 58.000
17.53995 43.000
17.55990 50.000
17.57985 57.000
17.59979 56.000
17.61974 39.000
17.63969 50.000
17.65963 56.000
17.67958 45.000
17.69953 45.000
17.71947 57.000
17.73942 36.000
17.75937 43.000
17.77932 48.000
17.79926 52.000
17.81921 69.000
17.83916 55.000
17.85910 60.000
17.87905 42.000
17.89900 57.000
17.91894 57.000
17.93889 39.000
17.95884 43.000
17.97878 42.000
17.99873 40.000
18.01868 49.000
18.03863 55.000
18.05857 63.000
18.07852 52.000
18.09847 55.000
18.11841 44.000
18.13836 45.000
18.15831 43.000
18.17825 50.000
18.19820 54.000
18.21815 60.000
18.23810 47.000
18.25804 69.000
18.27799 71.000
18.29794 53.000
18.31788 74.000
18.33783 86.000
18.35778 76.000
18.37772 83.000
18.39767 102.000
18.41762 76.000
18.43756 68.000
18.45751 71.000
18.47746 69.000
18.49741 50.000
18.51735 56.000
18.53730 52.000
18.55725 50.000
18.57719 45.000
18.59714 57.000
18.61709 44.000
18.63703 62.000
18.65698 47.000
18.67693 47.000
18.69688 60.000
18.71682 49.000
18.73677 54.000
18.75672 49.000
18.77666 64.000
18.79661 61.000
18.81656 46.000
18.83650 54.000
18.85645 54.000
18.87640 51.000
18.89634 35.000
18.91629 41.000
18.93624 53.000
18.95619 49.000
18.97613 47.000
18.99608 53.000
19.01603 44.000
19.03597 48.000
19.05592 44.000
19.07587 49.000
19.09581 47.000
19.11576 52.000
19.13571 41.000
19.15566 33.000
19.17560 63.000
19.19555 56.000
19.21550 53.000
19.23544 45.000
19.25539 51.000
19.27534 59.000
19.29528 41.000
19.31523 39.000
19.33518 38.000
19.35513 55.000
19.37507 57.000
19.39502 54.000
19.41497 58.000
19.43491 48.000
19.45486 50.000
19.47481 57.000
19.49475 42.000
19.51470 47.000
19.53465 54.000
19.55459 46.000
19.57454 45.000
19.59449 55.000
19.61444 49.000
19.63438 40.000
19.65433 53.000
19.67428 47.000
19.69422 54.000
19.71417 39.000
19.73412 49.000
19.75406 58.000
19.77401 53.000
19.79396 37.000
19.81391 43.000
19.83385 57.000
19.85380 43.000
19.87375 62.000
19.89369 46.000
19.91364 56.000
19.93359 60.000
19.95353 58.000
19.97348 48.000
19.99343 69.000
20.01337 49.000
20.03332 41.000
20.05327 58.000
20.07322 52.000
20.09316 43.000
20.11311 49.000
20.13306 56.000
20.15300 37.000
20.17295 50.000
20.19290 53.000
20.21284 53.000
20.23279 50.000
20.25274 40.000
20.27269 52.000
20.29263 42.000
20.31258 47.000
20.33253 59.000
20.35247 61.000
20.37242 54.000
20.39237 33.000
20.41231 61.000
20.43226 58.000
20.45221 48.000
20.47215 44.000
20.49210 55.000
20.51205 48.000
20.53200 44.000
20.55194 43.000
20.57189 64.000
20.59184 57.000
20.61178 54.000
20.63173 51.000
20.65168 41.000
20.67162 55.000
20.69157 54.000
20.71152 44.000
20.73147 53.000
20.75141 46.000
20.77136 50.000
20.79131 55.000
20.81125 52.000
20.83120 49.000
20.85115 65.000
20.87109 48.000
20.89104 47.000
20.91099 54.000
20.93094 48.000
20.95088 53.000
20.97083 36.000
20.99078 51.000
21.01072 61.000
21.03067 50.000
21.05062 50.000
21.07056 44.000
21.09051 44.000
21.11046 48.000
21.13040 56.000
21.15035 50.000
21.17030 49.000
21.19025 57.000
21.21019 43.000
21.23014 41.000
21.25009 47.000
21.27003 47.000
21.28998 60.000
21.30993 38.000
21.32987 51.000
21.34982 40.000
21.36977 44.000
21.38972 43.000
21.40966 57.000
21.42961 61.000
21.44956 49.000
21.46950 54.000
21.48945 46.000
21.50940 52.000
21.52934 45.000
21.54929 62.000
21.56924 53.000
21.58918 55.000
21.60913 67.000
21.62908 58.000
21.64903 49.000
21.66897 52.000
21.68892 47.000
21.70887 42.000
21.72881 49.000
21.74876 43.000
21.76871 53.000
21.78865 62.000
21.80860 47.000
21.82855 60.000
21.84850 50.000
21.86844 44.000
21.88839 56.000
21.90834 35.000
21.92828 52.000
21.94823 39.000
21.96818 65.000
21.98812 46.000
22.00807 48.000
22.02802 49.000
22.04796 51.000
22.06791 42.000
22.08786 47.000
22.10781 42.000
22.12775 52.000
22.14770 44.000
22.16765 58.000
22.18759 47.000
22.20754 45.000
22.22749 49.000
22.24743 43.000
22.26738 42.000
22.28733 60.000
22.30728 50.000
22.32722 45.000
22.34717 44.000
22.36712 56.000
22.38706 52.000
22.40701 45.000
22.42696 59.000
22.44690 43.000
22.46685 52.000
22.48680 44.000
22.50675 58.000
22.52669 48.000
22.54664 53.000
22.56659 63.000
22.58653 47.000
22.60648 40.000
22.62643 61.000
22.64637 49.000
22.66632 49.000
22.68627 61.000
22.70621 48.000
22.72616 59.000
22.74611 56.000
22.76606 45.000
22.78600 75.000
22.80595 60.000
22.82590 54.000
22.84584 56.000
22.86579 58.000
22.88574 49.000
22.90568 58.000
22.92563 51.000
22.94558 46.000
22.96553 40.000
22.98547 46.000
23.00542 55.000
23.02537 61.000
23.04531 49.000
23.06526 53.000
23.08521 63.000
23.10515 57.000
23.12510 47.000
23.14505 62.000
23.16499 50.000
23.18494 38.000
23.20489 66.000
23.22484 53.000
23.24478 52.000
23.26473 53.000
23.28468 49.000
23.30462 42.000
23.32457 62.000
23.34452 51.000
23.36446 59.000
23.38441 52.000
23.40436 41.000
23.42431 77.000
23.44425 47.000
23.46420 44.000
23.48415 61.000
23.50409 53.000
23.52404 62.000
23.54399 67.000
23.56393 70.000
23.58388 43.000
23.60383 52.000
23.62377 63.000
23.64372 53.000
23.66367 59.000
23.68362 54.000
23.70356 62.000
23.72351 61.000
23.74346 64.000
23.76340 59.000
23.78335 70.000
23.80330 63.000
23.82324 56.000
23.84319 45.000
23.86314 51.000
23.88309 46.000
23.90303 46.000
23.92298 50.000
23.94293 40.000
23.96287 43.000
23.98282 44.000
24.00277 59.000
24.02271 58.000
24.04266 59.000
24.06261 43.000
24.08256 68.000
24.10250 57.000
24.12245 53.000
24.14240 42.000
24.16234 44.000
24.18229 47.000
24.20224 55.000
24.22218 56.000
24.24213 53.000
24.26208 54.000
24.28202 49.000
24.30197 60.000
24.32192 74.000
24.34187 53.000
24.36181 51.000
24.38176 52.000
24.40171 58.000
24.42165 48.000
24.44160 55.000
24.46155 43.000
24.48149 58.000
24.50144 49.000
24.52139 51.000
24.54134 66.000
24.56128 55.000
24.58123 52.000
24.60118 47.000
24.62112 54.000
24.64107 52.000
24.66102 42.000
24.68096 52.000
24.70091 55.000
24.72086 60.000
24.74080 60.000
24.76075 55.000
24.78070 51.000
24.80065 47.000
24.82059 54.000
24.84054 64.000
24.86049 53.000
24.88043 57.000
24.90038 57.000
24.92033 56.000
24.94027 65.000
24.96022 60.000
24.98017 58.000
25.00012 52.000
25.02006 52.000
25.04001 47.000
25.05996 49.000
25.07990 49.000
25.09985 43.000
25.11980 59.000
25.13974 66.000
25.15969 67.000
25.17964 52.000
25.19958 52.000
25.21953 53.000
25.23948 48.000
25.25943 44.000
25.27937 53.000
25.29932 61.000
25.31927 49.000
25.33921 53.000
25.35916 44.000
25.37911 61.000
25.39905 64.000
25.41900 42.000
25.43895 67.000
25.45890 64.000
25.47884 62.000
25.49879 49.000
25.51874 54.000
25.53868 60.000
25.55863 59.000
25.57858 50.000
25.59852 56.000
25.61847 64.000
25.63842 55.000
25.65837 61.000
25.67831 56.000
25.69826 57.000
25.71821 58.000
25.73815 61.000
25.75810 51.000
25.77805 46.000
25.79799 68.000
25.81794 59.000
25.83789 51.000
25.85783 54.000
25.87778 44.000
25.89773 57.000
25.91768 62.000
25.93762 47.000
25.95757 47.000
25.97752 55.000
25.99746 61.000
26.01741 50.000
26.03736 58.000
26.05730 51.000
26.07725 68.000
26.09720 80.000
26.11715 63.000
26.13709 65.000
26.15704 63.000
26.17699 45.000
26.19693 60.000
26.21688 57.000
26.23683 67.000
26.25677 47.000
26.27672 48.000
26.29667 52.000
26.31661 36.000
26.33656 66.000
26.35651 61.000
26.37646 64.000
26.39640 57.000
26.41635 69.000
26.43630 49.000
26.45624 46.000
26.47619 55.000
26.49614 58.000
26.51608 46.000
26.53603 54.000
26.55598 52.000
26.57593 46.000
26.59587 61.000
26.61582 44.000
26.63577 52.000
26.65571 60.000
26.67566 53.000
26.69561 59.000
26.71555 62.000
26.73550 41.000
26.75545 56.000
26.77539 55.000
26.79534 55.000
26.81529 61.000
26.83524 34.000
26.85518 48.000
26.87513 49.000
26.89508 56.000
26.91502 51.000
26.93497 54.000
26.95492 57.000
26.97486 48.000
26.99481 56.000
27.01476 59.000
27.03471 60.000
27.05465 64.000
27.07460 61.000
27.09455 58.000
27.11449 59.000
27.13444 71.000
27.15439 66.000
27.17433 55.000
27.19428 48.000
27.21423 69.000
27.23417 58.000
27.25412 56.000
27.27407 61.000
27.29402 48.000
27.31396 57.000
27.33391 57.000
27.35386 55.000
27.37380 67.000
27.39375 66.000
27.41370 49.000
27.43364 54.000
27.45359 58.000
27.47354 52.000
27.49349 51.000
27.51343 60.000
27.53338 59.000
27.55333 63.000
27.57327 65.000
27.59322 66.000
27.61317 66.000
27.63311 55.000
27.65306 51.000
27.67301 49.000
27.69296 64.000
27.71290 47.000
27.73285 65.000
27.75280 52.000
27.77274 50.000
27.79269 50.000
27.81264 50.000
27.83258 63.000
27.85253 49.000
27.87248 46.000
27.89242 52.000
27.91237 52.000
27.93232 63.000
27.95227 65.000
27.97221 51.000
27.99216 57.000
28.01211 60.000
28.03205 59.000
28.05200 47.000
28.07195 57.000
28.09189 34.000
28.11184 58.000
28.13179 54.000
28.15174 49.000
28.17168 55.000
28.19163 56.000
28.21158 49.000
28.23152 65.000
28.25147 46.000
28.27142 67.000
28.29136 51.000
28.31131 59.000
28.33126 56.000
28.35120 54.000
28.37115 62.000
28.39110 57.000
28.41105 65.000
28.43099 78.000
28.45094 50.000
28.47089 69.000
28.49083 63.000
28.51078 65.000
28.53073 54.000
28.55067 53.000
28.57062 60.000
28.59057 62.000
28.61052 59.000
28.63046 74.000
28.65041 50.000
28.67036 58.000
28.69030 57.000
28.71025 59.000
28.73020 60.000
28.75014 48.000
28.77009 57.000
28.79004 49.000
28.80998 49.000
28.82993 43.000
28.84988 53.000
28.86983 48.000
28.88977 48.000
28.90972 54.000
28.92967 60.000
28.94961 49.000
28.96956 63.000
28.98951 56.000
29.00945 52.000
29.02940 44.000
29.04935 57.000
29.06930 70.000
29.08924 54.000
29.10919 54.000
29.12914 79.000
29.14908 56.000
29.16903 62.000
29.18898 64.000
29.20892 63.000
29.22887 70.000
29.24882 56.000
29.26877 62.000
29.28871 47.000
29.30866 68.000
29.32861 55.000
29.34855 56.000
29.36850 61.000
29.38845 58.000
29.40839 75.000
29.42834 47.000
29.44829 52.000
29.46823 75.000
29.48818 68.000
29.50813 79.000
29.52808 62.000
29.54802 56.000
29.56797 80.000
29.58792 47.000
29.60786 57.000
29.62781 54.000
29.64776 59.000
29.66770 58.000
29.68765 70.000
29.70760 54.000
29.72755 65.000
29.74749 58.000
29.76744 71.000
29.78739 67.000
29.80733 70.000
29.82728 67.000
29.84723 67.000
29.86717 63.000
29.88712 63.000
29.90707 60.000
29.92701 55.000
29.94696 74.000
29.96691 62.000
29.98686 67.000
30.00680 78.000
30.02675 71.000
30.04670 77.000
30.06664 99.000
30.08659 92.000
30.10654 107.000
30.12648 122.000
30.14643 113.000
30.16638 109.000
30.18633 126.000
30.20627 131.000
30.22622 123.000
30.24617 141.000
30.26611 158.000
30.28606 133.000
30.30601 146.000
30.32595 110.000
30.34590 94.000
30.36585 89.000
30.38579 70.000
30.40574 73.000
30.42569 72.000
30.44564 72.000
30.46558 58.000
30.48553 58.000
30.50548 61.000
30.52542 45.000
30.54537 58.000
30.56532 50.000
30.58526 64.000
30.60521 75.000
30.62516 58.000
30.64511 65.000
30.66505 60.000
30.68500 74.000
30.70495 62.000
30.72489 61.000
30.74484 72.000
30.76479 68.000
30.78473 72.000
30.80468 54.000
30.82463 77.000
30.84458 72.000
30.86452 44.000
30.88447 51.000
30.90442 75.000
30.92436 52.000
30.94431 53.000
30.96426 56.000
30.98420 55.000
31.00415 51.000
31.02410 60.000
31.04404 64.000
31.06399 51.000
31.08394 55.000
31.10389 62.000
31.12383 51.000
31.14378 62.000
31.16373 58.000
31.18367 78.000
31.20362 58.000
31.22357 68.000
31.24351 66.000
31.26346 72.000
31.28341 93.000
31.30336 66.000
31.32330 83.000
31.34325 62.000
31.36320 61.000
31.38314 80.000
31.40309 83.000
31.42304 74.000
31.44298 72.000
31.46293 83.000
31.48288 88.000
31.50282 87.000
31.52277 89.000
31.54272 92.000
31.56267 112.000
31.58261 135.000
31.60256 164.000
31.62251 224.000
31.64245 314.000
31.66240 403.000
31.68235 551.000
31.70229 590.000
31.72224 762.000
31.74219 877.000
31.76214 891.000
31.78208 928.000
31.80203 780.000
31.82198 709.000
31.84192 608.000
31.86187 484.000
31.88182 372.000
31.90176 294.000
31.92171 236.000
31.94166 176.000
31.96160 159.000
31.98155 123.000
32.00150 100.000
32.02145 94.000
32.04139 97.000
32.06134 87.000
32.08129 83.000
32.10123 89.000
32.12118 76.000
32.14113 77.000
32.16107 73.000
32.18102 69.000
32.20097 67.000
32.22092 67.000
32.24086 60.000
32.26081 59.000
32.28076 63.000
32.30070 87.000
32.32065 50.000
32.34060 76.000
32.36054 70.000
32.38049 55.000
32.40044 70.000
32.42039 79.000
32.44033 71.000
32.46028 52.000
32.48023 52.000
32.50017 55.000
32.52012 59.000
32.54007 44.000
32.56001 61.000
32.57996 66.000
32.59991 60.000
32.61985 57.000
32.63980 51.000
32.65975 64.000
32.67970 67.000
32.69964 62.000
32.71959 53.000
32.73954 52.000
32.75948 58.000
32.77943 69.000
32.79938 54.000
32.81932 74.000
32.83927 64.000
32.85922 70.000
32.87917 65.000
32.89911 54.000
32.91906 60.000
32.93901 67.000
32.95895 65.000
32.97890 76.000
32.99885 67.000
33.01879 66.000
33.03874 63.000
33.05869 76.000
33.07863 73.000
33.09858 63.000
33.11853 68.000
33.13848 63.000
33.15842 66.000
33.17837 65.000
33.19832 50.000
33.21826 57.000
33.23821 41.000
33.25816 62.000
33.27810 75.000
33.29805 63.000
33.31800 44.000
33.33795 56.000
33.35789 67.000
33.37784 52.000
33.39779 58.000
33.41773 53.000
33.43768 61.000
33.45763 58.000
33.47757 62.000
33.49752 66.000
33.51747 60.000
33.53741 59.000
33.55736 58.000
33.57731 57.000
33.59726 64.000
33.61720 58.000
33.63715 74.000
33.65710 55.000
33.67704 62.000
33.69699 60.000
33.71694 44.000
33.73688 51.000
33.75683 52.000
33.77678 67.000
33.79673 47.000
33.81667 67.000
33.83662 56.000
33.85657 62.000
33.87651 50.000
33.89646 59.000
33.91641 65.000
33.93635 54.000
33.95630 56.000
33.97625 51.000
33.99620 54.000
34.01614 60.000
34.03609 52.000
34.05604 57.000
34.07598 49.000
34.09593 61.000
34.11588 81.000
34.13582 68.000
34.15577 65.000
34.17572 62.000
34.19566 75.000
34.21561 79.000
34.23556 73.000
34.25551 66.000
34.27545 87.000
34.29540 78.000
34.31535 66.000
34.33529 54.000
34.35524 88.000
34.37519 65.000
34.39513 69.000
34.41508 69.000
34.43503 59.000
34.45498 68.000
34.47492 64.000
34.49487 63.000
34.51482 73.000
34.53476 76.000
34.55471 62.000
34.57466 78.000
34.59460 60.000
34.61455 82.000
34.63450 63.000
34.65444 61.000
34.67439 56.000
34.69434 70.000
34.71429 56.000
34.73423 58.000
34.75418 71.000
34.77413 60.000
34.79407 78.000
34.81402 53.000
34.83397 67.000
34.85391 53.000
34.87386 66.000
34.89381 69.000
34.91376 59.000
34.93370 66.000
34.95365 72.000
34.97360 51.000
34.99354 64.000
35.01349 60.000
35.03344 66.000
35.05338 64.000
35.07333 65.000
35.09328 84.000
35.11322 79.000
35.13317 52.000
35.15312 95.000
35.17307 77.000
35.19301 69.000
35.21296 83.000
35.23291 83.000
35.25285 93.000
35.27280 102.000
35.29275 74.000
35.31269 84.000
35.33264 96.000
35.35259 92.000
35.37254 95.000
35.39248 104.000
35.41243 117.000
35.43238 127.000
35.45232 137.000
35.47227 134.000
35.49222 169.000
35.51216 173.000
35.53211 180.000
35.55206 227.000
35.57201 239.000
35.59195 280.000
35.61190 337.000
35.63185 351.000
35.65179 370.000
35.67174 410.000
35.69169 390.000
35.71163 395.000
35.73158 448.000
35.75153 562.000
35.77147 665.000
35.79142 854.000
35.81137 1042.000
35.83132 1264.000
35.85126 1251.000
35.87121 1332.000
35.89116 1106.000
35.91110 980.000
35.93105 844.000
35.95100 807.000
35.97094 611.000
35.99089 433.000
36.01084 327.000
36.03079 212.000
36.05073 179.000
36.07068 149.000
36.09063 129.000
36.11057 107.000
36.13052 104.000
36.15047 93.000
36.17041 89.000
36.19036 104.000
36.21031 74.000
36.23025 72.000
36.25020 87.000
36.27015 65.000
36.29010 68.000
36.31004 64.000
36.32999 78.000
36.34994 83.000
36.36988 74.000
36.38983 77.000
36.40978 64.000
36.42972 69.000
36.44967 51.000
36.46962 51.000
36.48957 54.000
36.50951 60.000
36.52946 68.000
36.54941 73.000
36.56935 85.000
36.58930 71.000
36.60925 65.000
36.62919 89.000
36.64914 111.000
36.66909 108.000
36.68903 132.000
36.70898 167.000
36.72893 154.000
36.74888 197.000
36.76882 184.000
36.78877 181.000
36.80872 165.000
36.82866 170.000
36.84861 134.000
36.86856 136.000
36.88850 136.000
36.90845 97.000
36.92840 80.000
36.94835 79.000
36.96829 85.000
36.98824 80.000
37.00819 79.000
37.02813 76.000
37.04808 78.000
37.06803 92.000
37.08797 96.000
37.10792 77.000
37.12787 71.000
37.14781 73.000
37.16776 67.000
37.18771 88.000
37.20766 94.000
37.22760 95.000
37.24755 76.000
37.26750 85.000
37.28744 106.000
37.30739 91.000
37.32734 83.000
37.34728 72.000
37.36723 95.000
37.38718 78.000
37.40713 75.000
37.42707 91.000
37.44702 73.000
37.46697 83.000
37.48691 77.000
37.50686 60.000
37.52681 59.000
37.54675 78.000
37.56670 62.000
37.58665 66.000
37.60660 55.000
37.62654 61.000
37.64649 85.000
37.66644 73.000
37.68638 72.000
37.70633 88.000
37.72628 59.000
37.74622 64.000
37.76617 56.000
37.78612 63.000
37.80606 83.000
37.82601 62.000
37.84596 65.000
37.86591 67.000
37.88585 64.000
37.90580 93.000
37.92575 83.000
37.94569 101.000
37.96564 78.000
37.98559 100.000
38.00553 92.000
38.02548 61.000
38.04543 67.000
38.06538 84.000
38.08532 86.000
38.10527 71.000
38.12522 74.000
38.14516 96.000
38.16511 65.000
38.18506 79.000
38.20500 61.000
38.22495 79.000
38.24490 65.000
38.26484 76.000
38.28479 79.000
38.30474 79.000
38.32469 60.000
38.34463 83.000
38.36458 81.000
38.38453 88.000
38.40447 78.000
38.42442 74.000
38.44437 85.000
38.46431 58.000
38.48426 96.000
38.50421 83.000
38.52416 81.000
38.54410 66.000
38.56405 85.000
38.58400 87.000
38.60394 80.000
38.62389 89.000
38.64384 68.000
38.66378 88.000
38.68373 83.000
38.70368 80.000
38.72362 89.000
38.74357 99.000
38.76352 95.000
38.78347 81.000
38.80341 107.000
38.82336 101.000
38.84331 108.000
38.86325 109.000
38.88320 108.000
38.90315 98.000
38.92309 99.000
38.94304 116.000
38.96299 142.000
38.98294 121.000
39.00288 117.000
39.02283 151.000
39.04278 168.000
39.06272 165.000
39.08267 160.000
39.10262 194.000
39.12256 244.000
39.14251 274.000
39.16246 286.000
39.18241 341.000
39.20235 415.000
39.22230 504.000
39.24225 647.000
39.26219 840.000
39.28214 1127.000
39.30209 1398.000
39.32203 1712.000
39.34198 1960.000
39.36193 2184.000
39.38187 2168.000
39.40182 2085.000
39.42177 1775.000
39.44172 1659.000
39.46166 1502.000
39.48161 1246.000
39.50156 1085.000
39.52150 799.000
39.54145 542.000
39.56140 430.000
39.58134 322.000
39.60129 285.000
39.62124 233.000
39.64119 235.000
39.66113 199.000
39.68108 180.000
39.70103 166.000
39.72097 136.000
39.74092 151.000
39.76087 150.000
39.78081 141.000
39.80076 133.000
39.82071 114.000
39.84065 106.000
39.86060 103.000
39.88055 99.000
39.90050 120.000
39.92044 100.000
39.94039 92.000
39.96034 110.000
39.98028 89.000
40.00023 95.000
40.02018 92.000
40.04012 80.000
40.06007 76.000
40.08002 78.000
40.09997 78.000
40.11991 77.000
40.13986 84.000
40.15981 83.000
40.17975 80.000
40.19970 71.000
40.21965 68.000
40.23959 78.000
40.25954 68.000
40.27949 72.000
40.29943 80.000
40.31938 70.000
40.33933 69.000
40.35928 67.000
40.37922 66.000
40.39917 67.000
40.41912 69.000
40.43906 58.000
40.45901 52.000
40.47896 61.000
40.49890 61.000
40.51885 77.000
40.53880 74.000
40.55875 60.000
40.57869 59.000
40.59864 60.000
40.61859 60.000
40.63853 67.000
40.65848 50.000
40.67843 75.000
40.69837 66.000
40.71832 51.000
40.73827 59.000
40.75822 58.000
40.77816 63.000
40.79811 63.000
40.81806 52.000
40.83800 49.000
40.85795 59.000
40.87790 60.000
40.89784 71.000
40.91779 52.000
40.93774 61.000
40.95768 79.000
40.97763 67.000
40.99758 59.000
41.01753 60.000
41.03747 69.000
41.05742 69.000
41.07737 70.000
41.09731 52.000
41.11726 55.000
41.13721 63.000
41.15715 69.000
41.17710 80.000
41.19705 73.000
41.21700 71.000
41.23694 59.000
41.25689 67.000
41.27684 70.000
41.29678 68.000
41.31673 63.000
41.33668 50.000
41.35662 64.000
41.37657 79.000
41.39652 53.000
41.41646 63.000
41.43641 76.000
41.45636 85.000
41.47631 78.000
41.49625 76.000
41.51620 72.000
41.53615 78.000
41.55609 62.000
41.57604 80.000
41.59599 64.000
41.61593 56.000
41.63588 66.000
41.65583 66.000
41.67578 70.000
41.69572 59.000
41.71567 61.000
41.73562 57.000
41.75556 63.000
41.77551 65.000
41.79546 68.000
41.81540 65.000
41.83535 60.000
41.85530 59.000
41.87524 55.000
41.89519 72.000
41.91514 57.000
41.93509 63.000
41.95503 58.000
41.97498 76.000
41.99493 50.000
42.01487 63.000
42.03482 55.000
42.05477 60.000
42.07471 63.000
42.09466 55.000
42.11461 77.000
42.13456 64.000
42.15450 73.000
42.17445 48.000
42.19440 63.000
42.21434 68.000
42.23429 61.000
42.25424 37.000
42.27418 59.000
42.29413 61.000
42.31408 56.000
42.33403 54.000
42.35397 60.000
42.37392 62.000
42.39387 52.000
42.41381 62.000
42.43376 57.000
42.45371 51.000
42.47365 47.000
42.49360 63.000
42.51355 63.000
42.53349 71.000
42.55344 70.000
42.57339 71.000
42.59334 51.000
42.61328 81.000
42.63323 59.000
42.65318 76.000
42.67312 65.000
42.69307 73.000
42.71302 62.000
42.73296 77.000
42.75291 72.000
42.77286 52.000
42.79281 72.000
42.81275 70.000
42.83270 62.000
42.85265 69.000
42.87259 70.000
42.89254 68.000
42.91249 68.000
42.93243 68.000
42.95238 86.000
42.97233 84.000
42.99227 75.000
43.01222 84.000
43.03217 97.000
43.05212 93.000
43.07206 105.000
43.09201 89.000
43.11196 124.000
43.13190 141.000
43.15185 114.000
43.17180 138.000
43.19174 162.000
43.21169 177.000
43.23164 189.000
43.25159 274.000
43.27153 300.000
43.29148 336.000
43.31143 413.000
43.33137 481.000
43.35132 555.000
43.37127 651.000
43.39121 697.000
43.41116 823.000
43.43111 829.000
43.45105 803.000
43.47100 717.000
43.49095 684.000
43.51090 586.000
43.53084 539.000
43.55079 484.000
43.57074 444.000
43.59068 343.000
43.61063 285.000
43.63058 238.000
43.65052 196.000
43.67047 177.000
43.69042 132.000
43.71037 127.000
43.73031 115.000
43.75026 120.000
43.77021 99.000
43.79015 102.000
43.81010 91.000
43.83005 86.000
43.84999 83.000
43.86994 80.000
43.88989 98.000
43.90984 73.000
43.92978 74.000
43.94973 67.000
43.96968 71.000
43.98962 79.000
44.00957 59.000
44.02952 80.000
44.04946 68.000
44.06941 77.000
44.08936 54.000
44.10930 65.000
44.12925 73.000
44.14920 57.000
44.16915 66.000
44.18909 54.000
44.20904 63.000
44.22899 62.000
44.24893 59.000
44.26888 69.000
44.28883 68.000
44.30877 68.000
44.32872 61.000
44.34867 69.000
44.36862 59.000
44.38856 60.000
44.40851 66.000
44.42846 77.000
44.44840 54.000
44.46835 74.000
44.48830 58.000
44.50824 65.000
44.52819 63.000
44.54814 51.000
44.56808 56.000
44.58803 58.000
44.60798 56.000
44.62793 48.000
44.64787 76.000
44.66782 57.000
44.68777 43.000
44.70771 63.000
44.72766 68.000
44.74761 55.000
44.76755 64.000
44.78750 66.000
44.80745 48.000
44.82740 68.000
44.84734 66.000
44.86729 55.000
44.88724 59.000
44.90718 63.000
44.92713 65.000
44.94708 59.000
44.96702 57.000
44.98697 56.000
45.00692 69.000
45.02686 62.000
45.04681 59.000
45.06676 49.000
45.08671 66.000
45.10665 48.000
45.12660 50.000
45.14655 44.000
45.16649 52.000
45.18644 62.000
45.20639 65.000
45.22633 54.000
45.24628 47.000
45.26623 49.000
45.28618 61.000
45.30612 49.000
45.32607 48.000
45.34602 50.000
45.36596 57.000
45.38591 57.000
45.40586 50.000
45.42580 58.000
45.44575 54.000
45.46570 62.000
45.48565 55.000
45.50559 56.000
45.52554 62.000
45.54549 47.000
45.56543 55.000
45.58538 56.000
45.60533 47.000
45.62527 62.000
45.64522 50.000
45.66517 49.000
45.68511 61.000
45.70506 58.000
45.72501 55.000
45.74496 47.000
45.76490 49.000
45.78485 50.000
45.80480 56.000
45.82474 68.000
45.84469 59.000
45.86464 66.000
45.88458 69.000
45.90453 56.000
45.92448 57.000
45.94443 56.000
45.96437 53.000
45.98432 56.000
46.00427 56.000
46.02421 46.000
46.04416 45.000
46.06411 46.000
46.08405 55.000
46.10400 56.000
46.12395 60.000
46.14389 44.000
46.16384 55.000
46.18379 73.000
46.20374 44.000
46.22368 61.000
46.24363 67.000
46.26358 64.000
46.28352 65.000
46.30347 62.000
46.32342 73.000
46.34336 61.000
46.36331 68.000
46.38326 77.000
46.40321 65.000
46.42315 78.000
46.44310 63.000
46.46305 71.000
46.48299 71.000
46.50294 80.000
46.52289 70.000
46.54283 71.000
46.56278 70.000
46.58273 63.000
46.60267 71.000
46.62262 60.000
46.64257 64.000
46.66252 64.000
46.68246 60.000
46.70241 66.000
46.72236 58.000
46.74230 58.000
46.76225 56.000
46.78220 64.000
46.80214 56.000
46.82209 70.000
46.84204 63.000
46.86199 57.000
46.88193 58.000
46.90188 59.000
46.92183 64.000
46.94177 64.000
46.96172 61.000
46.98167 59.000
47.00161 48.000
47.02156 72.000
47.04151 63.000
47.06146 77.000
47.08140 56.000
47.10135 57.000
47.12130 60.000
47.14124 56.000
47.16119 51.000
47.18114 85.000
47.20108 68.000
47.22103 65.000
47.24098 71.000
47.26092 65.000
47.28087 66.000
47.30082 73.000
47.32077 61.000
47.34071 55.000
47.36066 81.000
47.38061 67.000
47.40055 70.000
47.42050 82.000
47.44045 75.000
47.46039 65.000
47.48034 66.000
47.50029 60.000
47.52024 68.000
47.54018 85.000
47.56013 64.000
47.58008 81.000
47.60002 82.000
47.61997 77.000
47.63992 71.000
47.65986 69.000
47.67981 75.000
47.69976 77.000
47.71970 83.000
47.73965 77.000
47.75960 75.000
47.77955 80.000
47.79949 84.000
47.81944 76.000
47.83939 94.000
47.85933 81.000
47.87928 75.000
47.89923 81.000
47.91917 99.000
47.93912 85.000
47.95907 90.000
47.97902 96.000
47.99896 98.000
48.01891 106.000
48.03886 92.000
48.05880 97.000
48.07875 117.000
48.09870 112.000
48.11864 104.000
48.13859 129.000
48.15854 109.000
48.17848 128.000
48.19843 149.000
48.21838 142.000
48.23833 142.000
48.25827 143.000
48.27822 182.000
48.29817 183.000
48.31811 181.000
48.33806 203.000
48.35801 214.000
48.37795 245.000
48.39790 283.000
48.41785 306.000
48.43780 365.000
48.45774 423.000
48.47769 516.000
48.49764 623.000
48.51758 759.000
48.53753 848.000
48.55748 1042.000
48.57742 1181.000
48.59737 1344.000
48.61732 1518.000
48.63726 1580.000
48.65721 1699.000
48.67716 1585.000
48.69711 1466.000
48.71705 1368.000
48.73700 1259.000
48.75695 1171.000
48.77689 1048.000
48.79684 949.000
48.81679 792.000
48.83673 693.000
48.85668 535.000
48.87663 443.000
48.89658 393.000
48.91652 322.000
48.93647 263.000
48.95642 226.000
48.97636 223.000
48.99631 205.000
49.01626 171.000
49.03620 165.000
49.05615 151.000
49.07610 129.000
49.09605 127.000
49.11599 138.000
49.13594 135.000
49.15589 116.000
49.17583 105.000
49.19578 97.000
49.21573 113.000
49.23567 117.000
49.25562 94.000
49.27557 103.000
49.29551 93.000
49.31546 82.000
49.33541 84.000
49.35536 91.000
49.37530 85.000
49.39525 91.000
49.41520 78.000
49.43514 81.000
49.45509 73.000
49.47504 79.000
49.49498 75.000
49.51493 64.000
49.53488 81.000
49.55483 97.000
49.57477 72.000
49.59472 62.000
49.61467 79.000
49.63461 63.000
49.65456 47.000
49.67451 66.000
49.69445 68.000
49.71440 75.000
49.73435 79.000
49.75429 72.000
49.77424 76.000
49.79419 65.000
49.81414 71.000
49.83408 70.000
49.85403 52.000
49.87398 66.000
49.89392 65.000
49.91387 61.000
49.93382 65.000
49.95376 69.000
49.97371 60.000
49.99366 61.000
50.01361 58.000
50.03355 73.000
50.05350 66.000
50.07345 62.000
50.09339 71.000
50.11334 66.000
50.13329 55.000
50.15323 66.000
50.17318 67.000
50.19313 69.000
50.21307 50.000
50.23302 54.000
50.25297 60.000
50.27292 65.000
50.29286 68.000
50.31281 50.000
50.33276 53.000
50.35270 52.000
50.37265 61.000
50.39260 73.000
50.41254 53.000
50.43249 52.000
50.45244 56.000
50.47239 60.000
50.49233 54.000
50.51228 45.000
50.53223 68.000
50.55217 49.000
50.57212 54.000
50.59207 61.000
50.61201 64.000
50.63196 57.000
50.65191 57.000
50.67186 63.000
50.69180 54.000
50.71175 52.000
50.73170 68.000
50.75164 39.000
50.77159 49.000
50.79154 58.000
50.81148 65.000
50.83143 45.000
50.85138 55.000
50.87132 59.000
50.89127 61.000
50.91122 64.000
50.93117 55.000
50.95111 48.000
50.97106 56.000
50.99101 49.000
51.01095 55.000
51.03090 60.000
51.05085 70.000
51.07079 46.000
51.09074 62.000
51.11069 59.000
51.13064 54.000
51.15058 61.000
51.17053 42.000
51.19048 54.000
51.21042 57.000
51.23037 48.000
51.25032 65.000
51.27026 61.000
51.29021 57.000
51.31016 58.000
51.33010 49.000
51.35005 57.000
51.37000 57.000
51.38995 49.000
51.40989 53.000
51.42984 60.000
51.44979 49.000
51.46973 42.000
51.48968 49.000
51.50963 53.000
51.52957 39.000
51.54952 54.000
51.56947 55.000
51.58942 62.000
51.60936 59.000
51.62931 46.000
51.64926 51.000
51.66920 63.000
51.68915 51.000
51.70910 59.000
51.72904 55.000
51.74899 45.000
51.76894 43.000
51.78888 52.000
51.80883 59.000
51.82878 49.000
51.84873 47.000
51.86867 64.000
51.88862 41.000
51.90857 58.000
51.92851 53.000
51.94846 64.000
51.96841 54.000
51.98835 36.000
52.00830 54.000
52.02825 54.000
52.04820 53.000
52.06814 58.000
52.08809 53.000
52.10804 53.000
52.12798 55.000
52.14793 61.000
52.16788 54.000
52.18782 48.000
52.20777 53.000
52.22772 56.000
52.24767 48.000
52.26761 60.000
52.28756 54.000
52.30751 47.000
52.32745 51.000
52.34740 46.000
52.36735 54.000
52.38729 66.000
52.40724 48.000
52.42719 43.000
52.44713 44.000
52.46708 65.000
52.48703 45.000
52.50698 42.000
52.52692 59.000
52.54687 62.000
52.56682 50.000
52.58676 56.000
52.60671 54.000
52.62666 47.000
52.64660 71.000
52.66655 62.000
52.68650 46.000
52.70645 59.000
52.72639 51.000
52.74634 44.000
52.76629 50.000
52.78623 56.000
52.80618 40.000
52.82613 51.000
52.84607 53.000
52.86602 55.000
52.88597 38.000
52.90591 42.000
52.92586 58.000
52.94581 61.000
52.96576 49.000
52.98570 56.000
53.00565 44.000
53.02560 44.000
53.04554 59.000
53.06549 41.000
53.08544 42.000
53.10538 49.000
53.12533 55.000
53.14528 57.000
53.16523 48.000
53.18517 61.000
53.20512 54.000
53.22507 48.000
53.24501 46.000
53.26496 42.000
53.28491 41.000
53.30485 70.000
53.32480 36.000
53.34475 57.000
53.36469 50.000
53.38464 53.000
53.40459 65.000
53.42454 62.000
53.44448 55.000
53.46443 63.000
53.48438 58.000
53.50432 61.000
53.52427 57.000
53.54422 57.000
53.56416 67.000
53.58411 52.000
53.60406 45.000
53.62401 61.000
53.64395 58.000
53.66390 49.000
53.68385 51.000
53.70379 68.000
53.72374 63.000
53.74369 64.000
53.76363 64.000
53.78358 72.000
53.80353 68.000
53.82348 66.000
53.84342 63.000
53.86337 64.000
53.88332 59.000
53.90326 75.000
53.92321 55.000
53.94316 59.000
53.96310 53.000
53.98305 48.000
54.00300 73.000
54.02294 55.000
54.04289 52.000
54.06284 53.000
54.08279 58.000
54.10273 43.000
54.12268 52.000
54.14263 51.000
54.16257 56.000
54.18252 66.000
54.20247 46.000
54.22241 57.000
54.24236 32.000
54.26231 50.000
54.28226 47.000
54.30220 71.000
54.32215 53.000
54.34210 50.000
54.36204 45.000
54.38199 49.000
54.40194 58.000
54.42188 53.000
54.44183 54.000
54.46178 62.000
54.48172 50.000
54.50167 48.000
54.52162 47.000
54.54157 47.000
54.56151 46.000
54.58146 60.000
54.60141 50.000
54.62135 51.000
54.64130 57.000
54.66125 63.000
54.68119 42.000
54.70114 53.000
54.72109 63.000
54.74104 39.000
54.76098 52.000
54.78093 41.000
54.80088 49.000
54.82082 48.000
54.84077 45.000
54.86072 48.000
54.88066 56.000
54.90061 44.000
54.92056 39.000
54.94050 34.000
54.96045 46.000
54.98040 47.000
55.00035 61.000
55.02029 41.000
55.04024 42.000
55.06019 49.000
55.08013 54.000
55.10008 57.000
55.12003 44.000
55.13997 54.000
55.15992 57.000
55.17987 57.000
55.19982 52.000
55.21976 50.000
55.23971 49.000
55.25966 58.000
55.27960 49.000
55.29955 35.000
55.31950 45.000
55.33944 56.000
55.35939 42.000
55.37934 49.000
55.39929 48.000
55.41923 43.000
55.43918 37.000
55.45913 66.000
55.47907 47.000
55.49902 48.000
55.51897 47.000
55.53891 55.000
55.55886 55.000
55.57881 62.000
55.59875 44.000
55.61870 43.000
55.63865 48.000
55.65860 53.000
55.67854 48.000
55.69849 54.000
55.71844 52.000
55.73838 49.000
55.75833 50.000
55.77828 39.000
55.79822 45.000
55.81817 54.000
55.83812 34.000
55.85807 38.000
55.87801 54.000
55.89796 43.000
55.91791 57.000
55.93785 46.000
55.95780 48.000
55.97775 49.000
55.99769 41.000
56.01764 51.000
56.03759 48.000
56.05753 51.000
56.07748 56.000
56.09743 40.000
56.11738 45.000
56.13732 39.000
56.15727 54.000
56.17722 40.000
56.19716 38.000
56.21711 52.000
56.23706 42.000
56.25700 50.000
56.27695 65.000
56.29690 56.000
56.31685 49.000
56.33679 38.000
56.35674 49.000
56.37669 56.000
56.39663 56.000
56.41658 49.000
56.43653 50.000
56.45647 50.000
56.47642 54.000
56.49637 53.000
56.51631 47.000
56.53626 51.000
56.55621 50.000
56.57616 52.000
56.59610 53.000
56.61605 57.000
56.63600 53.000
56.65594 55.000
56.67589 44.000
56.69584 55.000
56.71578 41.000
56.73573 49.000
56.75568 54.000
56.77563 59.000
56.79557 54.000
56.81552 44.000
56.83547 72.000
56.85541 61.000
56.87536 58.000
56.89531 64.000
56.91525 59.000
56.93520 58.000
56.95515 54.000
56.97510 67.000
56.99504 53.000
57.01499 76.000
57.03494 58.000
57.05488 63.000
57.07483 71.000
57.09478 80.000
57.11472 79.000
57.13467 87.000
57.15462 74.000
57.17456 77.000
57.19451 72.000
57.21446 98.000
57.23441 90.000
57.25435 82.000
57.27430 137.000
57.29425 106.000
57.31419 101.000
57.33414 92.000
57.35409 103.000
57.37403 117.000
57.39398 110.000
57.41393 72.000
57.43388 89.000
57.45382 81.000
57.47377 67.000
57.49372 78.000
57.51366 76.000
57.53361 62.000
57.55356 48.000
57.57350 77.000
57.59345 63.000
57.61340 59.000
57.63334 61.000
57.65329 57.000
57.67324 44.000
57.69319 41.000
57.71313 51.000
57.73308 54.000
57.75303 61.000
57.77297 52.000
57.79292 60.000
57.81287 47.000
57.83281 63.000
57.85276 61.000
57.87271 52.000
57.89266 52.000
57.91260 58.000
57.93255 49.000
57.95250 42.000
57.97244 43.000
57.99239 46.000
58.01234 69.000
58.03228 57.000
58.05223 44.000
58.07218 51.000
58.09212 65.000
58.11207 59.000
58.13202 48.000
58.15197 48.000
58.17191 60.000
58.19186 47.000
58.21181 48.000
58.23175 48.000
58.25170 52.000
58.27165 37.000
58.29159 54.000
58.31154 55.000
58.33149 41.000
58.35144 47.000
58.37138 46.000
58.39133 52.000
58.41128 57.000
58.43122 51.000
58.45117 43.000
58.47112 56.000
58.49106 44.000
58.51101 59.000
58.53096 68.000
58.55090 65.000
58.57085 53.000
58.59080 62.000
58.61075 41.000
58.63069 37.000
58.65064 57.000
58.67059 73.000
58.69053 56.000
58.71048 63.000
58.73043 63.000
58.75037 44.000
58.77032 58.000
58.79027 59.000
58.81022 42.000
58.83016 60.000
58.85011 51.000
58.87006 63.000
58.89000 67.000
58.90995 61.000
58.92990 45.000
58.94984 59.000
58.96979 59.000
58.98974 47.000
59.00969 56.000
59.02963 62.000
59.04958 59.000
59.06953 52.000
59.08947 47.000
59.10942 53.000
59.12937 54.000
59.14931 50.000
59.16926 63.000
59.18921 49.000
59.20915 53.000
59.22910 67.000
59.24905 45.000
59.26900 61.000
59.28894 53.000
59.30889 45.000
59.32884 50.000
59.34878 45.000
59.36873 46.000
59.38868 45.000
59.40862 51.000
59.42857 55.000
59.44852 58.000
59.46847 55.000
59.48841 46.000
59.50836 44.000
59.52831 41.000
59.54825 42.000
59.56820 45.000
59.58815 46.000
59.60809 64.000
59.62804 47.000
59.64799 54.000
59.66793 55.000
59.68788 53.000
59.70783 41.000
59.72778 58.000
59.74772 52.000
59.76767 76.000
59.78762 61.000
59.80756 55.000
59.82751 56.000
59.84746 67.000
59.86740 52.000
59.88735 61.000
59.90730 52.000
59.92725 65.000
59.94719 46.000
59.96714 58.000
59.98709 55.000
60.00703 65.000
60.02698 54.000
60.04693 46.000
60.06687 49.000
60.08682 60.000
60.10677 50.000
60.12671 51.000
60.14666 67.000
60.16661 70.000
60.18656 62.000
60.20650 61.000
60.22645 58.000
60.24640 59.000
60.26634 46.000
60.28629 60.000
60.30624 64.000
60.32618 61.000
60.34613 52.000
60.36608 59.000
60.38603 62.000
60.40597 59.000
60.42592 60.000
60.44587 58.000
60.46581 48.000
60.48576 67.000
60.50571 51.000
60.52565 59.000
60.54560 64.000
60.56555 60.000
60.58550 63.000
60.60544 52.000
60.62539 62.000
60.64534 72.000
60.66528 57.000
60.68523 79.000
60.70518 68.000
60.72512 65.000
60.74507 65.000
60.76502 52.000
60.78496 76.000
60.80491 80.000
60.82486 73.000
60.84481 64.000
60.86475 80.000
60.88470 78.000
60.90465 56.000
60.92459 66.000
60.94454 61.000
60.96449 68.000
60.98443 62.000
61.00438 75.000
61.02433 74.000
61.04428 68.000
61.06422 73.000
61.08417 64.000
61.10412 81.000
61.12406 73.000
61.14401 63.000
61.16396 78.000
61.18390 75.000
61.20385 73.000
61.22380 74.000
61.24374 88.000
61.26369 95.000
61.28364 102.000
61.30359 90.000
61.32353 97.000
61.34348 103.000
61.36343 114.000
61.38337 133.000
61.40332 126.000
61.42327 129.000
61.44321 153.000
61.46316 173.000
61.48311 180.000
61.50306 160.000
61.52300 200.000
61.54295 224.000
61.56290 272.000
61.58284 313.000
61.60279 376.000
61.62274 338.000
61.64268 422.000
61.66263 427.000
61.68258 503.000
61.70252 527.000
61.72247 552.000
61.74242 589.000
61.76237 562.000
61.78231 560.000
61.80226 544.000
61.82221 506.000
61.84215 519.000
61.86210 482.000
61.88205 467.000
61.90199 436.000
61.92194 410.000
61.94189 348.000
61.96184 328.000
61.98178 294.000
62.00173 279.000
62.02168 240.000
62.04162 227.000
62.06157 211.000
62.08152 168.000
62.10146 156.000
62.12141 122.000
62.14136 135.000
62.16131 126.000
62.18125 115.000
62.20120 94.000
62.22115 107.000
62.24109 103.000
62.26104 88.000
62.28099 81.000
62.30093 87.000
62.32088 89.000
62.34083 85.000
62.36077 96.000
62.38072 86.000
62.40067 90.000
62.42062 81.000
62.44056 80.000
62.46051 77.000
62.48046 77.000
62.50040 87.000
62.52035 102.000
62.54030 83.000
62.56024 96.000
62.58019 77.000
62.60014 76.000
62.62009 74.000
62.64003 87.000
62.65998 77.000
62.67993 82.000
62.69987 87.000
62.71982 85.000
62.73977 116.000
62.75971 92.000
62.77966 100.000
62.79961 130.000
62.81955 113.000
62.83950 115.000
62.85945 111.000
62.87940 132.000
62.89934 132.000
62.91929 127.000
62.93924 133.000
62.95918 134.000
62.97913 122.000
62.99908 122.000
63.01902 95.000
63.03897 108.000
63.05892 87.000
63.07887 94.000
63.09881 102.000
63.11876 89.000
63.13871 107.000
63.15865 78.000
63.17860 85.000
63.19855 84.000
63.21849 80.000
63.23844 89.000
63.25839 78.000
63.27833 65.000
63.29828 56.000
63.31823 69.000
63.33818 61.000
63.35812 56.000
63.37807 72.000
63.39802 57.000
63.41796 75.000
63.43791 59.000
63.45786 67.000
63.47780 66.000
63.49775 71.000
63.51770 67.000
63.53765 75.000
63.55759 57.000
63.57754 48.000
63.59749 68.000
63.61743 52.000
63.63738 72.000
63.65733 54.000
63.67727 53.000
63.69722 59.000
63.71717 56.000
63.73712 66.000
63.75706 56.000
63.77701 69.000
63.79696 57.000
63.81690 58.000
63.83685 50.000
63.85680 58.000
63.87674 86.000
63.89669 60.000
63.91664 63.000
63.93658 84.000
63.95653 82.000
63.97648 80.000
63.99643 76.000
64.01637 77.000
64.03632 77.000
64.05627 93.000
64.07621 96.000
64.09616 79.000
64.11611 108.000
64.13605 108.000
64.15600 115.000
64.17595 146.000
64.19590 154.000
64.21584 152.000
64.23579 158.000
64.25574 240.000
64.27568 254.000
64.29563 274.000
64.31558 320.000
64.33552 350.000
64.35547 417.000
64.37542 489.000
64.39536 567.000
64.41531 594.000
64.43526 620.000
64.45521 626.000
64.47515 591.000
64.49510 488.000
64.51505 499.000
64.53499 426.000
64.55494 422.000
64.57489 398.000
64.59483 387.000
64.61478 396.000
64.63473 324.000
64.65468 306.000
64.67462 276.000
64.69457 204.000
64.71452 170.000
64.73446 163.000
64.75441 140.000
64.77436 126.000
64.79430 117.000
64.81425 121.000
64.83420 84.000
64.85414 85.000
64.87409 68.000
64.89404 72.000
64.91399 92.000
64.93393 76.000
64.95388 59.000
64.97383 69.000
64.99377 71.000
65.01372 73.000
65.03367 52.000
65.05361 59.000
65.07356 76.000
65.09351 55.000
65.11346 67.000
65.13340 59.000
65.15335 63.000
65.17330 69.000
65.19324 54.000
65.21319 50.000
65.23314 56.000
65.25308 63.000
65.27303 61.000
65.29298 54.000
65.31293 61.000
65.33287 63.000
65.35282 73.000
65.37277 51.000
65.39271 55.000
65.41266 59.000
65.43261 57.000
65.45255 66.000
65.47250 65.000
65.49245 59.000
65.51239 63.000
65.53234 54.000
65.55229 80.000
65.57224 58.000
65.59218 58.000
65.61213 58.000
65.63208 56.000
65.65202 49.000
65.67197 57.000
65.69192 59.000
65.71186 61.000
65.73181 76.000
65.75176 61.000
65.77171 50.000
65.79165 62.000
65.81160 64.000
65.83155 54.000
65.85149 53.000
65.87144 62.000
65.89139 51.000
65.91133 63.000
65.93128 66.000
65.95123 66.000
65.97117 63.000
65.99112 51.000
66.01107 77.000
66.03102 57.000
66.05096 83.000
66.07091 81.000
66.09086 74.000
66.11080 70.000
66.13075 86.000
66.15070 71.000
66.17064 101.000
66.19059 84.000
66.21054 96.000
66.23049 111.000
66.25043 113.000
66.27038 110.000
66.29033 107.000
66.31027 129.000
66.33022 126.000
66.35017 156.000
66.37011 120.000
66.39006 153.000
66.41001 121.000
66.42995 164.000
66.44990 153.000
66.46985 133.000
66.48980 144.000
66.50974 138.000
66.52969 150.000
66.54964 180.000
66.56958 186.000
66.58953 176.000
66.60948 201.000
66.62942 226.000
66.64937 250.000
66.66932 260.000
66.68927 303.000
66.70921 298.000
66.72916 321.000
66.74911 374.000
66.76905 375.000
66.78900 432.000
66.80895 424.000
66.82889 463.000
66.84884 392.000
66.86879 350.000
66.88874 322.000
66.90868 298.000
66.92863 258.000
66.94858 291.000
66.96852 250.000
66.98847 271.000
67.00842 240.000
67.02836 247.000
67.04831 193.000
67.06826 175.000
67.08820 145.000
67.10815 122.000
67.12810 103.000
67.14805 106.000
67.16799 89.000
67.18794 100.000
67.20789 87.000
67.22783 71.000
67.24778 73.000
67.26773 82.000
67.28767 61.000
67.30762 66.000
67.32757 64.000
67.34752 70.000
67.36746 46.000
67.38741 63.000
67.40736 68.000
67.42730 53.000
67.44725 50.000
67.46720 56.000
67.48714 42.000
67.50709 51.000
67.52704 61.000
67.54698 66.000
67.56693 56.000
67.58688 74.000
67.60683 48.000
67.62677 57.000
67.64672 48.000
67.66667 46.000
67.68661 63.000
67.70656 49.000
67.72651 48.000
67.74645 60.000
67.76640 60.000
67.78635 58.000
67.80630 55.000
67.82624 50.000
67.84619 57.000
67.86614 61.000
67.88608 60.000
67.90603 59.000
67.92598 49.000
67.94592 53.000
67.96587 54.000
67.98582 55.000
68.00576 54.000
68.02571 52.000
68.04566 52.000
68.06561 50.000
68.08555 45.000
68.10550 53.000
68.12545 47.000
68.14539 47.000
68.16534 41.000
68.18529 44.000
68.20523 49.000
68.22518 51.000
68.24513 52.000
68.26508 49.000
68.28502 41.000
68.30497 54.000
68.32492 48.000
68.34486 46.000
68.36481 51.000
68.38476 47.000
68.40470 42.000
68.42465 53.000
68.44460 59.000
68.46455 43.000
68.48449 36.000
68.50444 44.000
68.52439 61.000
68.54433 42.000
68.56428 41.000
68.58423 45.000
68.60417 38.000
68.62412 60.000
68.64407 47.000
68.66401 48.000
68.68396 61.000
68.70391 36.000
68.72386 47.000
68.74380 52.000
68.76375 49.000
68.78370 49.000
68.80364 63.000
68.82359 58.000
68.84354 65.000
68.86348 47.000
68.88343 41.000
68.90338 57.000
68.92333 47.000
68.94327 42.000
68.96322 51.000
68.98317 52.000
69.00311 53.000
69.02306 59.000
69.04301 48.000
69.06295 49.000
69.08290 54.000
69.10285 58.000
69.12279 69.000
69.14274 38.000
69.16269 47.000
69.18264 38.000
69.20258 51.000
69.22253 56.000
69.24248 58.000
69.26242 47.000
69.28237 54.000
69.30232 52.000
69.32226 61.000
69.34221 51.000
69.36216 59.000
69.38211 47.000
69.40205 61.000
69.42200 49.000
69.44195 48.000
69.46189 63.000
69.48184 55.000
69.50179 53.000
69.52173 67.000
69.54168 50.000
69.56163 53.000
69.58157 51.000
69.60152 53.000
69.62147 51.000
69.64142 51.000
69.66136 48.000
69.68131 47.000
69.70126 39.000
69.72120 52.000
69.74115 47.000
69.76110 61.000
69.78104 38.000
69.80099 51.000
69.82094 49.000
69.84089 50.000
69.86083 56.000
69.88078 46.000
69.90073 44.000
69.92067 56.000
69.94062 52.000
69.96057 58.000
69.98051 45.000
70.00046 45.000
70.02041 37.000
70.04035 49.000
70.06030 52.000
70.08025 52.000
70.10020 47.000
70.12014 47.000
70.14009 40.000
70.16004 36.000
70.17998 46.000
70.19993 54.000
70.21988 47.000
70.23982 58.000
70.25977 56.000
70.27972 34.000
70.29967 45.000
70.31961 48.000
70.33956 40.000
70.35951 60.000
70.37945 51.000
70.39940 43.000
70.41935 58.000
70.43929 45.000
70.45924 41.000
70.47919 59.000
70.49914 63.000
70.51908 36.000
70.53903 34.000
70.55898 52.000
70.57892 42.000
70.59887 52.000
70.61882 40.000
70.63876 52.000
70.65871 44.000
70.67866 49.000
70.69860 47.000
70.71855 40.000
70.73850 45.000
70.75845 40.000
70.77839 53.000
70.79834 63.000
70.81829 49.000
70.83823 43.000
70.85818 56.000
70.87813 47.000
70.89807 54.000
70.91802 50.000
70.93797 50.000
70.95792 49.000
70.97786 45.000
70.99781 45.000
71.01776 39.000
71.03770 53.000
71.05765 61.000
71.07760 37.000
71.09754 46.000
71.11749 47.000
71.13744 41.000
71.15738 39.000
71.17733 42.000
71.19728 46.000
71.21723 40.000
71.23717 45.000
71.25712 44.000
71.27707 59.000
71.29701 40.000
71.31696 40.000
71.33691 46.000
71.35685 34.000
71.37680 52.000
71.39675 46.000
71.41670 42.000
71.43664 50.000
71.45659 54.000
71.47654 51.000
71.49648 49.000
71.51643 49.000
71.53638 42.000
71.55632 43.000
71.57627 36.000
71.59622 47.000
71.61616 27.000
71.63611 50.000
71.65606 49.000
71.67601 45.000
71.69595 53.000
71.71590 42.000
71.73585 44.000
71.75579 53.000
71.77574 45.000
71.79569 47.000
71.81563 52.000
71.83558 59.000
71.85553 45.000
71.87548 50.000
71.89542 35.000
71.91537 59.000
71.93532 45.000
71.95526 53.000
71.97521 38.000
71.99516 51.000
72.01510 42.000
72.03505 53.000
72.05500 37.000
72.07495 59.000
72.09489 43.000
72.11484 37.000
72.13479 42.000
72.15473 48.000
72.17468 53.000
72.19463 48.000
72.21457 38.000
72.23452 49.000
72.25447 46.000
72.27441 53.000
72.29436 58.000
72.31431 54.000
72.33426 44.000
72.35420 56.000
72.37415 59.000
72.39410 44.000
72.41404 36.000
72.43399 53.000
72.45394 49.000
72.47388 47.000
72.49383 42.000
72.51378 46.000
72.53373 56.000
72.55367 47.000
72.57362 59.000
72.59357 51.000
72.61351 34.000
72.63346 50.000
72.65341 51.000
72.67335 53.000
72.69330 41.000
72.71325 55.000
72.73319 43.000
72.75314 40.000
72.77309 48.000
72.79304 58.000
72.81298 54.000
72.83293 57.000
72.85288 37.000
72.87282 55.000
72.89277 43.000
72.91272 40.000
72.93266 47.000
72.95261 47.000
72.97256 58.000
72.99251 46.000
73.01245 48.000
73.03240 51.000
73.05235 52.000
73.07229 69.000
73.09224 63.000
73.11219 53.000
73.13213 73.000
73.15208 57.000
73.17203 61.000
73.19197 60.000
73.21192 66.000
73.23187 47.000
73.25182 58.000
73.27176 57.000
73.29171 73.000
73.31166 77.000
73.33160 71.000
73.35155 78.000
73.37150 84.000
73.39144 92.000
73.41139 93.000
73.43134 115.000
73.45129 107.000
73.47123 116.000
73.49118 118.000
73.51113 126.000
73.53107 130.000
73.55102 146.000
73.57097 148.000
73.59091 188.000
73.61086 202.000
73.63081 173.000
73.65076 191.000
73.67070 216.000
73.69065 191.000
73.71060 211.000
73.73054 169.000
73.75049 165.000
73.77044 150.000
73.79038 132.000
73.81033 125.000
73.83028 119.000
73.85022 125.000
73.87017 137.000
73.89012 119.000
73.91007 103.000
73.93001 104.000
73.94996 110.000
73.96991 86.000
73.98985 107.000
74.00980 84.000
74.02975 77.000
74.04969 72.000
74.06964 68.000
74.08959 74.000
74.10954 68.000
74.12948 59.000
74.14943 58.000
74.16938 59.000
74.18932 49.000
74.20927 53.000
74.22922 52.000
74.24916 53.000
74.26911 41.000
74.28906 54.000
74.30900 61.000
74.32895 74.000
74.34890 51.000
74.36885 67.000
74.38879 41.000
74.40874 50.000
74.42869 60.000
74.44863 61.000
74.46858 66.000
74.48853 73.000
74.50847 68.000
74.52842 61.000
74.54837 69.000
74.56832 72.000
74.58826 53.000
74.60821 57.000
74.62816 56.000
74.64810 41.000
74.66805 51.000
74.68800 48.000
74.70794 38.000
74.72789 58.000
74.74784 48.000
74.76778 49.000
74.78773 54.000
74.80768 61.000
74.82763 62.000
74.84757 52.000
74.86752 52.000
74.88747 51.000
74.90741 52.000
74.92736 38.000
74.94731 58.000
74.96725 61.000
74.98720 44.000
75.00715 43.000
75.02710 49.000
75.04704 51.000
75.06699 39.000
75.08694 47.000
75.10688 45.000
75.12683 45.000
75.14678 43.000
75.16672 53.000
75.18667 55.000
75.20662 47.000
75.22657 57.000
75.24651 49.000
75.26646 48.000
75.28641 65.000
75.30635 57.000
75.32630 58.000
75.34625 50.000
75.36619 36.000
75.38614 44.000
75.40609 54.000
75.42603 42.000
75.44598 52.000
75.46593 55.000
75.48588 44.000
75.50582 59.000
75.52577 55.000
75.54572 50.000
75.56566 50.000
75.58561 43.000
75.60556 62.000
75.62550 49.000
75.64545 54.000
75.66540 66.000
75.68535 58.000
75.70529 51.000
75.72524 60.000
75.74519 71.000
75.76513 55.000
75.78508 66.000
75.80503 79.000
75.82497 77.000
75.84492 87.000
75.86487 109.000
75.88481 72.000
75.90476 94.000
75.92471 100.000
75.94466 90.000
75.96460 106.000
75.98455 126.000
76.00450 104.000
76.02444 124.000
76.04439 103.000
76.06434 98.000
76.08428 97.000
76.10423 102.000
76.12418 85.000
76.14413 88.000
76.16407 97.000
76.18402 99.000
76.20397 81.000
76.22391 99.000
76.24386 81.000
76.26381 74.000
76.28375 66.000
76.30370 86.000
76.32365 63.000
76.34359 64.000
76.36354 70.000
76.38349 60.000
76.40344 67.000
76.42338 64.000
76.44333 39.000
76.46328 63.000
76.48322 48.000
76.50317 54.000
76.52312 52.000
76.54306 44.000
76.56301 54.000
76.58296 56.000
76.60291 54.000
76.62285 52.000
76.64280 55.000
76.66275 50.000
76.68269 59.000
76.70264 57.000
76.72259 63.000
76.74253 72.000
76.76248 53.000
76.78243 57.000
76.80238 61.000
76.82232 56.000
76.84227 62.000
76.86222 53.000
76.88216 48.000
76.90211 47.000
76.92206 54.000
76.94200 51.000
76.96195 46.000
76.98190 55.000
77.00184 55.000
77.02179 52.000
77.04174 54.000
77.06169 57.000
77.08163 58.000
77.10158 55.000
77.12153 63.000
77.14147 61.000
77.16142 65.000
77.18137 55.000
77.20131 60.000
77.22126 63.000
77.24121 56.000
77.26116 54.000
77.28110 59.000
77.30105 58.000
77.32100 60.000
77.34094 67.000
77.36089 76.000
77.38084 61.000
77.40078 59.000
77.42073 85.000
77.44068 69.000
77.46062 90.000
77.48057 71.000
77.50052 98.000
77.52047 103.000
77.54041 104.000
77.56036 102.000
77.58031 131.000
77.60025 122.000
77.62020 133.000
77.64015 129.000
77.66009 122.000
77.68004 142.000
77.69999 143.000
77.71994 135.000
77.73988 169.000
77.75983 183.000
77.77978 192.000
77.79972 169.000
77.81967 196.000
77.83962 188.000
77.85956 193.000
77.87951 210.000
77.89946 191.000
77.91940 172.000
77.93935 183.000
77.95930 199.000
77.97925 186.000
77.99919 184.000
78.01914 197.000
78.03909 200.000
78.05903 177.000
78.07898 207.000
78.09893 216.000
78.11887 223.000
78.13882 228.000
78.15877 222.000
78.17872 233.000
78.19866 202.000
78.21861 207.000
78.23856 201.000
78.25850 202.000
78.27845 175.000
78.29840 176.000
78.31834 157.000
78.33829 137.000
78.35824 133.000
78.37819 141.000
78.39813 148.000
78.41808 131.000
78.43803 135.000
78.45797 112.000
78.47792 135.000
78.49787 97.000
78.51781 96.000
78.53776 85.000
78.55771 77.000
78.57765 80.000
78.59760 67.000
78.61755 78.000
78.63750 77.000
78.65744 78.000
78.67739 65.000
78.69734 63.000
78.71728 50.000
78.73723 55.000
78.75718 58.000
78.77712 62.000
78.79707 60.000
78.81702 56.000
78.83697 53.000
78.85691 44.000
78.87686 64.000
78.89681 43.000
78.91675 40.000
78.93670 54.000
78.95665 52.000
78.97659 56.000
78.99654 57.000
79.01649 44.000
79.03643 41.000
79.05638 49.000
79.07633 48.000
79.09628 49.000
79.11622 50.000
79.13617 50.000
79.15612 54.000
79.17606 50.000
79.19601 63.000
79.21596 51.000
79.23590 44.000
79.25585 53.000
79.27580 42.000
79.29575 46.000
79.31569 71.000
79.33564 45.000
79.35559 54.000
79.37553 49.000
79.39548 53.000
79.41543 47.000
79.43537 55.000
79.45532 61.000
79.47527 57.000
79.49521 54.000
79.51516 45.000
79.53511 53.000
79.55506 69.000
79.57500 55.000
79.59495 54.000
79.61490 51.000
79.63484 55.000
79.65479 49.000
79.67474 59.000
79.69468 33.000
79.71463 56.000
79.73458 54.000
79.75453 51.000
79.77447 49.000
79.79442 46.000
79.81437 51.000
79.83431 53.000
79.85426 44.000
79.87421 46.000
79.89415 52.000
79.91410 45.000
79.93405 38.000
79.95399 54.000
79.97394 46.000
79.99389 41.000
80.01384 46.000
80.03378 62.000
80.05373 54.000
80.07368 47.000
80.09362 42.000
80.11357 60.000
80.13352 51.000
80.15346 39.000
80.17341 37.000
80.19336 35.000
80.21331 61.000
80.23325 44.000
80.25320 45.000
80.27315 48.000
80.29309 44.000
80.31304 50.000
80.33299 52.000
80.35293 36.000
80.37288 45.000
80.39283 49.000
80.41278 58.000
80.43272 47.000
80.45267 59.000
80.47262 47.000
80.49256 60.000
80.51251 40.000
80.53246 56.000
80.55240 49.000
80.57235 55.000
80.59230 56.000
80.61224 54.000
80.63219 49.000
80.65214 48.000
80.67209 51.000
80.69203 49.000
80.71198 50.000
80.73193 52.000
80.75187 60.000
80.77182 56.000
80.79177 65.000
80.81171 69.000
80.83166 65.000
80.85161 69.000
80.87156 68.000
80.89150 77.000
80.91145 85.000
80.93140 75.000
80.95134 78.000
80.97129 81.000
80.99124 48.000
81.01118 60.000
81.03113 55.000
81.05108 58.000
81.07102 61.000
81.09097 63.000
81.11092 61.000
81.13087 67.000
81.15081 68.000
81.17076 64.000
81.19071 64.000
81.21065 57.000
81.23060 58.000
81.25055 58.000
81.27049 60.000
81.29044 45.000
81.31039 67.000
81.33034 66.000
81.35028 37.000
81.37023 47.000
81.39018 51.000
81.41012 50.000
81.43007 49.000
81.45002 40.000
81.46996 53.000
81.48991 39.000
81.50986 39.000
81.52980 38.000
81.54975 47.000
81.56970 44.000
81.58965 52.000
81.60959 54.000
81.62954 61.000
81.64949 47.000
81.66943 32.000
81.68938 43.000
81.70933 37.000
81.72927 55.000
81.74922 44.000
81.76917 45.000
81.78912 50.000
81.80906 47.000
81.82901 49.000
81.84896 65.000
81.86890 48.000
81.88885 51.000
81.90880 59.000
81.92874 35.000
81.94869 39.000
81.96864 57.000
81.98859 45.000
82.00853 40.000
82.02848 48.000
82.04843 53.000
82.06837 36.000
82.08832 43.000
82.10827 40.000
82.12821 39.000
82.14816 47.000
82.16811 43.000
82.18805 42.000
82.20800 52.000
82.22795 36.000
82.24790 43.000
82.26784 41.000
82.28779 56.000
82.30774 44.000
82.32768 49.000
82.34763 58.000
82.36758 50.000
82.38752 35.000
82.40747 51.000
82.42742 46.000
82.44737 61.000
82.46731 60.000
82.48726 41.000
82.50721 49.000
82.52715 52.000
82.54710 43.000
82.56705 44.000
82.58699 39.000
82.60694 62.000
82.62689 50.000
82.64683 45.000
82.66678 45.000
82.68673 47.000
82.70668 38.000
82.72662 42.000
82.74657 42.000
82.76652 48.000
82.78646 47.000
82.80641 46.000
82.82636 45.000
82.84630 44.000
82.86625 41.000
82.88620 49.000
82.90615 48.000
82.92609 45.000
82.94604 38.000
82.96599 40.000
82.98593 38.000
83.00588 43.000
83.02583 41.000
83.04577 52.000
83.06572 45.000
83.08567 43.000
83.10561 58.000
83.12556 42.000
83.14551 38.000
83.16546 51.000
83.18540 48.000
83.20535 43.000
83.22530 37.000
83.24524 39.000
83.26519 43.000
83.28514 39.000
83.30508 45.000
83.32503 44.000
83.34498 54.000
83.36493 35.000
83.38487 39.000
83.40482 48.000
83.42477 46.000
83.44471 49.000
83.46466 41.000
83.48461 44.000
83.50455 44.000
83.52450 46.000
83.54445 50.000
83.56440 46.000
83.58434 36.000
83.60429 43.000
83.62424 51.000
83.64418 69.000
83.66413 38.000
83.68408 47.000
83.70402 54.000
83.72397 45.000
83.74392 60.000
83.76386 39.000
83.78381 57.000
83.80376 36.000
83.82371 59.000
83.84365 49.000
83.86360 60.000
83.88355 46.000
83.90349 54.000
83.92344 51.000
83.94339 52.000
83.96333 53.000
83.98328 56.000
84.00323 50.000
84.02318 53.000
84.04312 38.000
84.06307 61.000
84.08302 48.000
84.10296 50.000
84.12291 59.000
84.14286 60.000
84.16280 57.000
84.18275 57.000
84.20270 64.000
84.22264 59.000
84.24259 65.000
84.26254 59.000
84.28249 65.000
84.30243 86.000
84.32238 73.000
84.34233 78.000
84.36227 101.000
84.38222 89.000
84.40217 77.000
84.42211 97.000
84.44206 108.000
84.46201 99.000
84.48196 112.000
84.50190 120.000
84.52185 142.000
84.54180 124.000
84.56174 144.000
84.58169 149.000
84.60164 167.000
84.62158 187.000
84.64153 172.000
84.66148 187.000
84.68142 200.000
84.70137 193.000
84.72132 202.000
84.74127 218.000
84.76121 216.000
84.78116 180.000
84.80111 171.000
84.82105 149.000
84.84100 169.000
84.86095 163.000
84.88089 143.000
84.90084 151.000
84.92079 156.000
84.94074 117.000
84.96068 119.000
84.98063 139.000
85.00058 126.000
85.02052 133.000
85.04047 109.000
85.06042 107.000
85.08036 108.000
85.10031 82.000
85.12026 94.000
85.14021 82.000
85.16015 76.000
85.18010 75.000
85.20005 68.000
85.21999 74.000
85.23994 67.000
85.25989 66.000
85.27983 49.000
85.29978 55.000
85.31973 57.000
85.33967 55.000
85.35962 65.000
85.37957 60.000
85.39952 42.000
85.41946 57.000
85.43941 56.000
85.45936 52.000
85.47930 53.000
85.49925 60.000
85.51920 40.000
85.53914 50.000
85.55909 51.000
85.57904 50.000
85.59899 53.000
85.61893 47.000
85.63888 50.000
85.65883 54.000
85.67877 46.000
85.69872 61.000
85.71867 47.000
85.73861 67.000
85.75856 43.000
85.77851 48.000
85.79845 42.000
85.81840 43.000
85.83835 62.000
85.85830 58.000
85.87824 48.000
85.89819 43.000
85.91814 57.000
85.93808 43.000
85.95803 48.000
85.97798 53.000
85.99792 49.000
86.01787 53.000
86.03782 49.000
86.05777 56.000
86.07771 44.000
86.09766 58.000
86.11761 58.000
86.13755 63.000
86.15750 60.000
86.17745 55.000
86.19739 56.000
86.21734 62.000
86.23729 58.000
86.25723 64.000
86.27718 64.000
86.29713 63.000
86.31708 65.000
86.33702 54.000
86.35697 62.000
86.37692 78.000
86.39686 61.000
86.41681 78.000
86.43676 66.000
86.45670 80.000
86.47665 61.000
86.49660 66.000
86.51655 57.000
86.53649 71.000
86.55644 57.000
86.57639 49.000
86.59633 55.000
86.61628 52.000
86.63623 66.000
86.65617 57.000
86.67612 58.000
86.69607 57.000
86.71602 71.000
86.73596 60.000
86.75591 46.000
86.77586 55.000
86.79580 56.000
86.81575 54.000
86.83570 58.000
86.85564 49.000
86.87559 50.000
86.89554 63.000
86.91548 61.000
86.93543 52.000
86.95538 52.000
86.97533 53.000
86.99527 62.000
87.01522 59.000
87.03517 57.000
87.05511 56.000
87.07506 67.000
87.09501 65.000
87.11495 60.000
87.13490 72.000
87.15485 79.000
87.17480 66.000
87.19474 63.000
87.21469 74.000
87.23464 70.000
87.25458 78.000
87.27453 58.000
87.29448 67.000
87.31442 64.000
87.33437 59.000
87.35432 54.000
87.37426 57.000
87.39421 60.000
87.41416 49.000
87.43411 46.000
87.45405 45.000
87.47400 53.000
87.49395 47.000
87.51389 58.000
87.53384 46.000
87.55379 50.000
87.57373 46.000
87.59368 58.000
87.61363 52.000
87.63358 45.000
87.65352 48.000
87.67347 48.000
87.69342 48.000
87.71336 40.000
87.73331 49.000
87.75326 49.000
87.77320 40.000
87.79315 49.000
87.81310 45.000
87.83304 38.000
87.85299 54.000
87.87294 43.000
87.89289 46.000
87.91283 52.000
87.93278 44.000
87.95273 48.000
87.97267 45.000
87.99262 55.000
88.01257 54.000
88.03251 42.000
88.05246 30.000
88.07241 45.000
88.09236 38.000
88.11230 36.000
88.13225 43.000
88.15220 41.000
88.17214 45.000
88.19209 49.000
88.21204 56.000
88.23198 43.000
88.25193 41.000
88.27188 54.000
88.29183 43.000
88.31177 49.000
88.33172 38.000
88.35167 38.000
88.37161 45.000
88.39156 39.000
88.41151 37.000
88.43145 45.000
88.45140 43.000
88.47135 52.000
88.49129 49.000
88.51124 49.000
88.53119 49.000
88.55114 48.000
88.57108 36.000
88.59103 50.000
88.61098 44.000
88.63092 34.000
88.65087 49.000
88.67082 30.000
88.69076 43.000
88.71071 42.000
88.73066 43.000
88.75061 34.000
88.77055 62.000
88.79050 48.000
88.81045 49.000
88.83039 39.000
88.85034 36.000
88.87029 51.000
88.89023 39.000
88.91018 36.000
88.93013 49.000
88.95007 41.000
88.97002 42.000
88.98997 52.000
89.00992 52.000
89.02986 56.000
89.04981 38.000
89.06976 37.000
89.08970 53.000
89.10965 34.000
89.12960 27.000
89.14954 52.000
89.16949 32.000
89.18944 38.000
89.20939 50.000
89.22933 56.000
89.24928 50.000
89.26923 40.000
89.28917 43.000
89.30912 46.000
89.32907 46.000
89.34901 40.000
89.36896 47.000
89.38891 50.000
89.40885 39.000
89.42880 54.000
89.44875 42.000
89.46870 55.000
89.48864 50.000
89.50859 49.000
89.52854 46.000
89.54848 48.000
89.56843 52.000
89.58838 58.000
89.60832 42.000
89.62827 50.000
89.64822 53.000
89.66817 45.000
89.68811 53.000
89.70806 46.000
89.72801 48.000
89.74795 30.000
89.76790 52.000
89.78785 47.000
89.80779 36.000
89.82774 47.000
89.84769 47.000
89.86764 48.000
89.88758 43.000
89.90753 48.000
89.92748 44.000
89.94742 40.000
89.96737 50.000
89.98732 45.000
90.00726 41.000
