10.00000 92.000
10.01995 104.000
10.03989 112.000
10.05984 107.000
10.07979 107.000
10.09973 87.000
10.11968 97.000
10.13963 91.000
10.15958 112.000
10.17952 94.000
10.19947 111.000
10.21942 97.000
10.23936 108.000
10.25931 115.000
10.27926 97.000
10.29920 113.000
10.31915 80.000
10.33910 96.000
10.35905 111.000
10.37899 97.000
10.39894 103.000
10.41889 95.000
10.43883 88.000
10.45878 107.000
10.47873 87.000
10.49867 104.000
10.51862 109.000
10.53857 90.000
10.55851 114.000
10.57846 96.000
10.59841 95.000
10.61836 97.000
10.63830 90.000
10.65825 115.000
10.67820 103.000
10.69814 109.000
10.71809 93.000
10.73804 93.000
10.75798 102.000
10.77793 102.000
10.79788 91.000
10.81783 106.000
10.83777 115.000
10.85772 98.000
10.87767 125.000
10.89761 91.000
10.91756 110.000
10.93751 112.000
10.95745 101.000
10.97740 112.000
10.99735 112.000
11.01730 98.000
11.03724 102.000
11.05719 102.000
11.07714 112.000
11.09708 90.000
11.11703 110.000
11.13698 102.000
11.15692 83.000
11.17687 84.000
11.19682 86.000
11.21676 115.000
11.23671 104.000
11.25666 105.000
11.27661 101.000
11.29655 88.000
11.31650 86.000
11.33645 85.000
11.35639 84.000
11.37634 95.000
11.39629 106.000
11.41623 95.000
11.43618 85.000
11.45613 94.000
11.47608 100.000
11.49602 106.000
11.51597 99.000
11.53592 108.000
11.55586 88.000
11.57581 90.000
11.59576 104.000
11.61570 100.000
11.63565 113.000
11.65560 112.000
11.67554 92.000
11.69549 104.000
11.71544 108.000
11.73539 108.000
11.75533 105.000
11.77528 87.000
11.79523 102.000
11.81517 88.000
11.83512 106.000
11.85507 99.000
11.87501 102.000
11.89496 104.000
11.91491 97.000
11.93486 92.000
11.95480 96.000
11.97475 101.000
11.99470 94.000
12.01464 88.000
12.03459 107.000
12.05454 100.000
12.07448 93.000
12.09443 113.000
12.11438 90.000
12.13432 104.000
12.15427 86.000
12.17422 91.000
12.19417 98.000
12.21411 105.000
12.23406 112.000
12.25401 94.000
12.27395 90.000
12.29390 94.000
12.31385 96.000
12.33379 92.000
12.35374 115.000
12.37369 101.000
12.39364 109.000
12.41358 101.000
12.43353 109.000
12.45348 106.000
12.47342 93.000
12.49337 111.000
12.51332 75.000
12.53326 107.000
12.55321 98.000
12.57316 92.000
12.59311 103.000
12.61305 108.000
12.63300 91.000
12.65295 101.000
12.67289 99.000
12.69284 112.000
12.71279 123.000
12.73273 85.000
12.75268 101.000
12.77263 96.000
12.79257 100.000
12.81252 101.000
12.83247 112.000
12.85242 100.000
12.87236 102.000
12.89231 105.000
12.91226 80.000
12.93220 101.000
12.95215 106.000
12.97210 101.000
12.99204 100.000
13.01199 112.000
13.03194 104.000
13.05189 105.000
13.07183 99.000
13.09178 91.000
13.11173 104.000
13.13167 125.000
13.15162 114.000
13.17157 120.000
13.19151 116.000
13.21146 114.000
13.23141 103.000
13.25135 115.000
13.27130 112.000
13.29125 112.000
13.31120 122.000
13.33114 111.000
13.35109 131.000
13.37104 100.000
13.39098 105.000
13.41093 95.000
13.43088 127.000
13.45082 107.000
13.47077 111.000
13.49072 125.000
13.51067 107.000
13.53061 110.000
13.55056 133.000
13.57051 105.000
13.59045 114.000
13.61040 113.000
13.63035 101.000
13.65029 111.000
13.67024 114.000
13.69019 107.000
13.71013 119.000
13.73008 122.000
13.75003 113.000
13.76998 112.000
13.78992 116.000
13.80987 102.000
13.82982 110.000
13.84976 116.000
13.86971 111.000
13.88966 119.000
13.90960 104.000
13.92955 116.000
13.94950 102.000
13.96945 131.000
13.98939 119.000
14.00934 148.000
14.02929 129.000
14.04923 109.000
14.06918 107.000
14.08913 119.000
14.10907 142.000
14.12902 126.000
14.14897 151.000
14.16892 139.000
14.18886 126.000
14.20881 161.000
14.22876 143.000
14.24870 143.000
14.26865 113.000
14.28860 135.000
14.30854 120.000
14.32849 142.000
14.34844 130.000
14.36838 125.000
14.38833 137.000
14.40828 140.000
14.42823 136.000
14.44817 144.000
14.46812 126.000
14.48807 120.000
14.50801 141.000
14.52796 133.000
14.54791 145.000
14.56785 151.000
14.58780 146.000
14.60775 128.000
14.62770 136.000
14.64764 120.000
14.66759 164.000
14.68754 161.000
14.70748 155.000
14.72743 161.000
14.74738 174.000
14.76732 143.000
14.78727 166.000
14.80722 132.000
14.82716 156.000
14.84711 148.000
14.86706 136.000
14.88701 160.000
14.90695 156.000
14.92690 145.000
14.94685 173.000
14.96679 184.000
14.98674 200.000
15.00669 186.000
15.02663 200.000
15.04658 240.000
15.06653 248.000
15.08648 249.000
15.10642 214.000
15.12637 202.000
15.14632 229.000
15.16626 213.000
15.18621 228.000
15.20616 243.000
15.22610 225.000
15.24605 258.000
15.26600 251.000
15.28594 265.000
15.30589 275.000
15.32584 284.000
15.34579 306.000
15.36573 307.000
15.38568 331.000
15.40563 326.000
15.42557 367.000
15.44552 335.000
15.46547 415.000
15.48541 437.000
15.50536 524.000
15.52531 601.000
15.54526 700.000
15.56520 859.000
15.58515 1196.000
15.60510 1629.000
15.62504 2381.000
15.64499 3764.000
15.66494 6208.000
15.68488 10205.000
15.70483 13955.000
15.72478 14876.000
15.74472 12248.000
15.76467 8598.000
15.78462 4787.000
15.80457 2442.000
15.82451 1310.000
15.84446 886.000
15.86441 641.000
15.88435 492.000
15.90430 383.000
15.92425 359.000
15.94419 284.000
15.96414 277.000
15.98409 276.000
16.00404 239.000
16.02398 258.000
16.04393 234.000
16.06388 190.000
16.08382 204.000
16.10377 195.000
16.12372 186.000
16.14366 187.000
16.16361 146.000
16.18356 155.000
16.20351 167.000
16.22345 181.000
16.24340 178.000
16.26335 163.000
16.28329 143.000
16.30324 156.000
16.32319 148.000
16.34313 148.000
16.36308 169.000
16.38303 137.000
16.40297 138.000
16.42292 128.000
16.44287 141.000
16.46282 122.000
16.48276 122.000
16.50271 123.000
16.52266 137.000
16.54260 140.000
16.56255 134.000
16.58250 125.000
16.60244 141.000
16.62239 119.000
16.64234 156.000
16.66229 110.000
16.68223 125.000
16.70218 109.000
16.72213 89.000
16.74207 90.000
16.76202 107.000
16.78197 110.000
16.80191 101.000
16.82186 121.000
16.84181 119.000
16.86175 130.000
16.88170 116.000
16.90165 126.000
16.92160 103.000
16.94154 112.000
16.96149 90.000
16.98144 104.000
17.00138 111.000
17.02133 90.000
17.04128 101.000
17.06122 98.000
17.08117 98.000
17.10112 109.000
17.12107 104.000
17.14101 103.000
17.16096 97.000
17.18091 113.000
17.20085 114.000
17.22080 92.000
17.24075 84.000
17.26069 109.000
17.28064 103.000
17.30059 96.000
17.32053 104.000
17.34048 120.000
17.36043 106.000
17.38038 102.000
17.40032 100.000
17.42027 99.000
17.44022 110.000
17.46016 112.000
17.48011 84.000
17.50006 89.000
17.52000 113.000
17.53995 99.000
17.55990 92.000
17.57985 96.000
17.59979 117.000
17.61974 89.000
17.63969 90.000
17.65963 110.000
17.67958 96.000
17.69953 100.000
17.71947 94.000
17.73942 98.000
17.75937 111.000
17.77932 86.000
17.79926 107.000
17.81921 106.000
17.83916 101.000
17.85910 89.000
17.87905 82.000
17.89900 87.000
17.91894 93.000
17.93889 104.000
17.95884 96.000
17.97878 81.000
17.99873 100.000
18.01868 119.000
18.03863 116.000
18.05857 96.000
18.07852 92.000
18.09847 122.000
18.11841 81.000
18.13836 116.000
18.15831 109.000
18.17825 130.000
18.19820 131.000
18.21815 110.000
18.23810 104.000
18.25804 105.000
18.27799 99.000
18.29794 101.000
18.31788 101.000
18.33783 90.000
18.35778 121.000
18.37772 88.000
18.39767 109.000
18.41762 114.000
18.43756 94.000
18.45751 101.000
18.47746 108.000
18.49741 109.000
18.51735 100.000
18.53730 95.000
18.55725 95.000
18.57719 95.000
18.59714 95.000
18.61709 105.000
18.63703 96.000
18.65698 86.000
18.67693 109.000
18.69688 94.000
18.71682 102.000
18.73677 99.000
18.75672 109.000
18.77666 98.000
18.79661 85.000
18.81656 98.000
18.83650 95.000
18.85645 99.000
18.87640 99.000
18.89634 90.000
18.91629 90.000
18.93624 97.000
18.95619 97.000
18.97613 92.000
18.99608 105.000
19.01603 96.000
19.03597 118.000
19.05592 87.000
19.07587 90.000
19.09581 90.000
19.11576 99.000
19.13571 100.000
19.15566 98.000
19.17560 105.000
19.19555 116.000
19.21550 99.000
19.23544 77.000
19.25539 108.000
19.27534 78.000
19.29528 107.000
19.31523 97.000
19.33518 88.000
19.35513 89.000
19.37507 96.000
19.39502 106.000
19.41497 97.000
19.43491 97.000
19.45486 87.000
19.47481 90.000
19.49475 89.000
19.51470 88.000
19.53465 107.000
19.55459 103.000
19.57454 92.000
19.59449 98.000
19.61444 103.000
19.63438 94.000
19.65433 99.000
19.67428 100.000
19.69422 109.000
19.71417 104.000
19.73412 99.000
19.75406 91.000
19.77401 97.000
19.79396 80.000
19.81391 102.000
19.83385 105.000
19.85380 91.000
19.87375 85.000
19.89369 107.000
19.91364 117.000
19.93359 75.000
19.95353 118.000
19.97348 87.000
19.99343 99.000
20.01337 88.000
20.03332 105.000
20.05327 86.000
20.07322 102.000
20.09316 103.000
20.11311 110.000
20.13306 73.000
20.15300 81.000
20.17295 79.000
20.19290 101.000
20.21284 94.000
20.23279 105.000
20.25274 83.000
20.27269 84.000
20.29263 110.000
20.31258 94.000
20.33253 93.000
20.35247 100.000
20.37242 94.000
20.39237 101.000
20.41231 100.000
20.43226 96.000
20.45221 100.000
20.47215 108.000
20.49210 125.000
20.51205 110.000
20.53200 85.000
20.55194 100.000
20.57189 106.000
20.59184 97.000
20.61178 107.000
20.63173 114.000
20.65168 102.000
20.67162 91.000
20.69157 97.000
20.71152 92.000
20.73147 109.000
20.75141 105.000
20.77136 84.000
20.79131 97.000
20.81125 97.000
20.83120 122.000
20.85115 92.000
20.87109 90.000
20.89104 88.000
20.91099 107.000
20.93094 97.000
20.95088 89.000
20.97083 93.000
20.99078 94.000
21.01072 117.000
21.03067 110.000
21.05062 103.000
21.07056 116.000
21.09051 113.000
21.11046 108.000
21.13040 114.000
21.15035 94.000
21.17030 101.000
21.19025 93.000
21.21019 88.000
21.23014 93.000
21.25009 109.000
21.27003 91.000
21.28998 102.000
21.30993 91.000
21.32987 89.000
21.34982 98.000
21.36977 84.000
21.38972 115.000
21.40966 113.000
21.42961 108.000
21.44956 98.000
21.46950 97.000
21.48945 102.000
21.50940 96.000
21.52934 95.000
21.54929 109.000
21.56924 118.000
21.58918 102.000
21.60913 82.000
21.62908 106.000
21.64903 95.000
21.66897 105.000
21.68892 93.000
21.70887 110.000
21.72881 95.000
21.74876 109.000
21.76871 102.000
21.78865 72.000
21.80860 110.000
21.82855 94.000
21.84850 99.000
21.86844 92.000
21.88839 93.000
21.90834 93.000
21.92828 92.000
21.94823 85.000
21.96818 105.000
21.98812 111.000
22.00807 97.000
22.02802 102.000
22.04796 113.000
22.06791 108.000
22.08786 104.000
22.10781 104.000
22.12775 107.000
22.14770 93.000
22.16765 95.000
22.18759 96.000
22.20754 117.000
22.22749 107.000
22.24743 98.000
22.26738 98.000
22.28733 93.000
22.30728 117.000
22.32722 84.000
22.34717 103.000
22.36712 109.000
22.38706 90.000
22.40701 98.000
22.42696 89.000
22.44690 91.000
22.46685 98.000
22.48680 95.000
22.50675 101.000
22.52669 78.000
22.54664 92.000
22.56659 86.000
22.58653 93.000
22.60648 109.000
22.62643 104.000
22.64637 111.000
22.66632 100.000
22.68627 101.000
22.70621 123.000
22.72616 112.000
22.74611 100.000
22.76606 112.000
22.78600 89.000
22.80595 104.000
22.82590 110.000
22.84584 110.000
22.86579 85.000
22.88574 126.000
22.90568 100.000
22.92563 95.000
22.94558 104.000
22.96553 106.000
22.98547 97.000
23.00542 102.000
23.02537 99.000
23.04531 122.000
23.06526 108.000
23.08521 87.000
23.10515 107.000
23.12510 107.000
23.14505 106.000
23.16499 103.000
23.18494 98.000
23.20489 107.000
23.22484 98.000
23.24478 110.000
23.26473 88.000
23.28468 86.000
23.30462 109.000
23.32457 92.000
23.34452 95.000
23.36446 111.000
23.38441 105.000
23.40436 104.000
23.42431 103.000
23.44425 88.000
23.46420 103.000
23.48415 112.000
23.50409 86.000
23.52404 100.000
23.54399 92.000
23.56393 92.000
23.58388 99.000
23.60383 105.000
23.62377 101.000
23.64372 90.000
23.66367 95.000
23.68362 90.000
23.70356 104.000
23.72351 104.000
23.74346 91.000
23.76340 87.000
23.78335 84.000
23.80330 116.000
23.82324 98.000
23.84319 95.000
23.86314 87.000
23.88309 101.000
23.90303 99.000
23.92298 116.000
23.94293 95.000
23.96287 98.000
23.98282 90.000
24.00277 94.000
24.02271 103.000
24.04266 105.000
24.06261 95.000
24.08256 124.000
24.10250 120.000
24.12245 103.000
24.14240 96.000
24.16234 114.000
24.18229 107.000
24.20224 91.000
24.22218 105.000
24.24213 85.000
24.26208 94.000
24.28202 114.000
24.30197 110.000
24.32192 97.000
24.34187 112.000
24.36181 121.000
24.38176 83.000
24.40171 99.000
24.42165 117.000
24.44160 108.000
24.46155 88.000
24.48149 105.000
24.50144 101.000
24.52139 101.000
24.54134 94.000
24.56128 105.000
24.58123 104.000
24.60118 95.000
24.62112 88.000
24.64107 94.000
24.66102 107.000
24.68096 105.000
24.70091 109.000
24.72086 108.000
24.74080 93.000
24.76075 75.000
24.78070 92.000
24.80065 101.000
24.82059 113.000
24.84054 99.000
24.86049 105.000
24.88043 95.000
24.90038 113.000
24.92033 96.000
24.94027 111.000
24.96022 104.000
24.98017 101.000
25.00012 107.000
25.02006 110.000
25.04001 113.000
25.05996 111.000
25.07990 101.000
25.09985 83.000
25.11980 107.000
25.13974 104.000
25.15969 100.000
25.17964 110.000
25.19958 92.000
25.21953 95.000
25.23948 88.000
25.25943 114.000
25.27937 107.000
25.29932 105.000
25.31927 118.000
25.33921 105.000
25.35916 105.000
25.37911 100.000
25.39905 101.000
25.41900 127.000
25.43895 104.000
25.45890 100.000
25.47884 117.000
25.49879 104.000
25.51874 102.000
25.53868 87.000
25.55863 111.000
25.57858 116.000
25.59852 87.000
25.61847 112.000
25.63842 112.000
25.65837 103.000
25.67831 95.000
25.69826 116.000
25.71821 104.000
25.73815 114.000
25.75810 113.000
25.77805 114.000
25.79799 111.000
25.81794 106.000
25.83789 100.000
25.85783 112.000
25.87778 100.000
25.89773 130.000
25.91768 101.000
25.93762 117.000
25.95757 101.000
25.97752 102.000
25.99746 102.000
26.01741 112.000
26.03736 101.000
26.05730 107.000
26.07725 97.000
26.09720 105.000
26.11715 105.000
26.13709 118.000
26.15704 111.000
26.17699 111.000
26.19693 99.000
26.21688 106.000
26.23683 107.000
26.25677 95.000
26.27672 96.000
26.29667 87.000
26.31661 110.000
26.33656 116.000
26.35651 95.000
26.37646 105.000
26.39640 100.000
26.41635 95.000
26.43630 104.000
26.45624 102.000
26.47619 106.000
26.49614 111.000
26.51608 128.000
26.53603 119.000
26.55598 94.000
26.57593 134.000
26.59587 121.000
26.61582 98.000
26.63577 99.000
26.65571 119.000
26.67566 113.000
26.69561 104.000
26.71555 112.000
26.73550 111.000
26.75545 114.000
26.77539 102.000
26.79534 88.000
26.81529 117.000
26.83524 99.000
26.85518 104.000
26.87513 105.000
26.89508 120.000
26.91502 107.000
26.93497 107.000
26.95492 112.000
26.97486 112.000
26.99481 120.000
27.01476 107.000
27.03471 109.000
27.05465 88.000
27.07460 105.000
27.09455 95.000
27.11449 103.000
27.13444 102.000
27.15439 104.000
27.17433 118.000
27.19428 102.000
27.21423 122.000
27.23417 98.000
27.25412 117.000
27.27407 102.000
27.29402 113.000
27.31396 103.000
27.33391 107.000
27.35386 111.000
27.37380 119.000
27.39375 111.000
27.41370 110.000
27.43364 92.000
27.45359 104.000
27.47354 108.000
27.49349 111.000
27.51343 104.000
27.53338 98.000
27.55333 109.000
27.57327 97.000
27.59322 98.000
27.61317 121.000
27.63311 120.000
27.65306 113.000
27.67301 115.000
27.69296 101.000
27.71290 94.000
27.73285 95.000
27.75280 111.000
27.77274 100.000
27.79269 118.000
27.81264 99.000
27.83258 104.000
27.85253 120.000
27.87248 120.000
27.89242 108.000
27.91237 113.000
27.93232 98.000
27.95227 124.000
27.97221 134.000
27.99216 102.000
28.01211 117.000
28.03205 87.000
28.05200 97.000
28.07195 119.000
28.09189 106.000
28.11184 93.000
28.13179 114.000
28.15174 107.000
28.17168 112.000
28.19163 116.000
28.21158 95.000
28.23152 119.000
28.25147 106.000
28.27142 108.000
28.29136 103.000
28.31131 104.000
28.33126 119.000
28.35120 129.000
28.37115 97.000
28.39110 98.000
28.41105 118.000
28.43099 109.000
28.45094 88.000
28.47089 114.000
28.49083 126.000
28.51078 134.000
28.53073 100.000
28.55067 116.000
28.57062 106.000
28.59057 123.000
28.61052 105.000
28.63046 94.000
28.65041 90.000
28.67036 111.000
28.69030 117.000
28.71025 120.000
28.73020 84.000
28.75014 112.000
28.77009 111.000
28.79004 104.000
28.80998 84.000
28.82993 104.000
28.84988 112.000
28.86983 103.000
28.88977 122.000
28.90972 114.000
28.92967 112.000
28.94961 101.000
28.96956 98.000
28.98951 90.000
29.00945 111.000
29.02940 120.000
29.04935 96.000
29.06930 97.000
29.08924 113.000
29.10919 95.000
29.12914 91.000
29.14908 116.000
29.16903 112.000
29.18898 97.000
29.20892 100.000
29.22887 90.000
29.24882 100.000
29.26877 93.000
29.28871 119.000
29.30866 118.000
29.32861 94.000
29.34855 110.000
29.36850 107.000
29.38845 112.000
29.40839 116.000
29.42834 115.000
29.44829 106.000
29.46823 110.000
29.48818 124.000
29.50813 85.000
29.52808 103.000
29.54802 109.000
29.56797 118.000
29.58792 93.000
29.60786 106.000
29.62781 90.000
29.64776 99.000
29.66770 119.000
29.68765 109.000
29.70760 95.000
29.72755 100.000
29.74749 127.000
29.76744 104.000
29.78739 108.000
29.80733 129.000
29.82728 107.000
29.84723 114.000
29.86717 139.000
29.88712 113.000
29.90707 134.000
29.92701 124.000
29.94696 129.000
29.96691 118.000
29.98686 134.000
30.00680 117.000
30.02675 122.000
30.04670 132.000
30.06664 122.000
30.08659 135.000
30.10654 122.000
30.12648 115.000
30.14643 110.000
30.16638 115.000
30.18633 144.000
30.20627 119.000
30.22622 115.000
30.24617 113.000
30.26611 124.000
30.28606 117.000
30.30601 109.000
30.32595 110.000
30.34590 111.000
30.36585 129.000
30.38579 124.000
30.40574 112.000
30.42569 121.000
30.44564 110.000
30.46558 97.000
30.48553 127.000
30.50548 112.000
30.52542 117.000
30.54537 120.000
30.56532 106.000
30.58526 99.000
30.60521 132.000
30.62516 96.000
30.64511 127.000
30.66505 129.000
30.68500 121.000
30.70495 103.000
30.72489 93.000
30.74484 121.000
30.76479 115.000
30.78473 101.000
30.80468 108.000
30.82463 115.000
30.84458 95.000
30.86452 120.000
30.88447 97.000
30.90442 133.000
30.92436 108.000
30.94431 126.000
30.96426 124.000
30.98420 108.000
31.00415 109.000
31.02410 113.000
31.04404 115.000
31.06399 125.000
31.08394 115.000
31.10389 108.000
31.12383 108.000
31.14378 119.000
31.16373 111.000
31.18367 130.000
31.20362 108.000
31.22357 144.000
31.24351 126.000
31.26346 115.000
31.28341 129.000
31.30336 143.000
31.32330 109.000
31.34325 122.000
31.36320 114.000
31.38314 121.000
31.40309 125.000
31.42304 123.000
31.44298 134.000
31.46293 140.000
31.48288 144.000
31.50282 149.000
31.52277 162.000
31.54272 199.000
31.56267 182.000
31.58261 207.000
31.60256 217.000
31.62251 319.000
31.64245 443.000
31.66240 611.000
31.68235 771.000
31.70229 972.000
31.72224 994.000
31.74219 961.000
31.76214 858.000
31.78208 854.000
31.80203 690.000
31.82198 534.000
31.84192 431.000
31.86187 359.000
31.88182 261.000
31.90176 224.000
31.92171 155.000
31.94166 158.000
31.96160 119.000
31.98155 144.000
32.00150 136.000
32.02145 99.000
32.04139 107.000
32.06134 129.000
32.08129 115.000
32.10123 114.000
32.12118 139.000
32.14113 144.000
32.16107 130.000
32.18102 119.000
32.20097 112.000
32.22092 101.000
32.24086 99.000
32.26081 113.000
32.28076 122.000
32.30070 116.000
32.32065 126.000
32.34060 102.000
32.36054 109.000
32.38049 109.000
32.40044 150.000
32.42039 132.000
32.44033 116.000
32.46028 115.000
32.48023 125.000
32.50017 103.000
32.52012 160.000
32.54007 144.000
32.56001 143.000
32.57996 158.000
32.59991 139.000
32.61985 139.000
32.63980 129.000
32.65975 116.000
32.67970 117.000
32.69964 120.000
32.71959 113.000
32.73954 118.000
32.75948 115.000
32.77943 108.000
32.79938 109.000
32.81932 111.000
32.83927 118.000
32.85922 100.000
32.87917 139.000
32.89911 98.000
32.91906 116.000
32.93901 98.000
32.95895 105.000
32.97890 116.000
32.99885 111.000
33.01879 117.000
33.03874 117.000
33.05869 124.000
33.07863 112.000
33.09858 128.000
33.11853 100.000
33.13848 111.000
33.15842 96.000
33.17837 102.000
33.19832 116.000
33.21826 118.000
33.23821 112.000
33.25816 95.000
33.27810 118.000
33.29805 99.000
33.31800 118.000
33.33795 122.000
33.35789 105.000
33.37784 107.000
33.39779 102.000
33.41773 106.000
33.43768 102.000
33.45763 118.000
33.47757 98.000
33.49752 109.000
33.51747 95.000
33.53741 103.000
33.55736 109.000
33.57731 118.000
33.59726 112.000
33.61720 118.000
33.63715 117.000
33.65710 98.000
33.67704 101.000
33.69699 117.000
33.71694 101.000
33.73688 115.000
33.75683 99.000
33.77678 111.000
33.79673 117.000
33.81667 127.000
33.83662 95.000
33.85657 107.000
33.87651 109.000
33.89646 114.000
33.91641 98.000
33.93635 108.000
33.95630 116.000
33.97625 97.000
33.99620 107.000
34.01614 116.000
34.03609 125.000
34.05604 97.000
34.07598 102.000
34.09593 99.000
34.11588 111.000
34.13582 135.000
34.15577 116.000
34.17572 103.000
34.19566 126.000
34.21561 133.000
34.23556 129.000
34.25551 106.000
34.27545 115.000
34.29540 128.000
34.31535 134.000
34.33529 129.000
34.35524 104.000
34.37519 131.000
34.39513 131.000
34.41508 115.000
34.43503 120.000
34.45498 118.000
34.47492 125.000
34.49487 115.000
34.51482 132.000
34.53476 100.000
34.55471 122.000
34.57466 118.000
34.59460 115.000
34.61455 126.000
34.63450 128.000
34.65444 99.000
34.67439 120.000
34.69434 123.000
34.71429 144.000
34.73423 140.000
34.75418 135.000
34.77413 112.000
34.79407 134.000
34.81402 140.000
34.83397 126.000
34.85391 119.000
34.87386 101.000
34.89381 107.000
34.91376 123.000
34.93370 113.000
34.95365 119.000
34.97360 119.000
34.99354 137.000
35.01349 123.000
35.03344 128.000
35.05338 121.000
35.07333 142.000
35.09328 131.000
35.11322 141.000
35.13317 165.000
35.15312 173.000
35.17307 172.000
35.19301 167.000
35.21296 191.000
35.23291 187.000
35.25285 218.000
35.27280 212.000
35.29275 198.000
35.31269 198.000
35.33264 201.000
35.35259 222.000
35.37254 192.000
35.39248 211.000
35.41243 209.000
35.43238 257.000
35.45232 292.000
35.47227 324.000
35.49222 329.000
35.51216 367.000
35.53211 435.000
35.55206 519.000
35.57201 594.000
35.59195 529.000
35.61190 536.000
35.63185 683.000
35.65179 854.000
35.67174 1013.000
35.69169 1108.000
35.71163 1126.000
35.73158 1214.000
35.75153 1130.000
35.77147 974.000
35.79142 919.000
35.81137 766.000
35.83132 704.000
35.85126 571.000
35.87121 452.000
35.89116 365.000
35.91110 292.000
35.93105 243.000
35.95100 230.000
35.97094 206.000
35.99089 167.000
36.01084 173.000
36.03079 162.000
36.05073 165.000
36.07068 167.000
36.09063 137.000
36.11057 123.000
36.13052 124.000
36.15047 122.000
36.17041 149.000
36.19036 134.000
36.21031 114.000
36.23025 125.000
36.25020 147.000
36.27015 107.000
36.29010 121.000
36.31004 132.000
36.32999 139.000
36.34994 127.000
36.36988 118.000
36.38983 120.000
36.40978 127.000
36.42972 125.000
36.44967 133.000
36.46962 136.000
36.48957 154.000
36.50951 146.000
36.52946 171.000
36.54941 175.000
36.56935 180.000
36.58930 211.000
36.60925 210.000
36.62919 222.000
36.64914 201.000
36.66909 215.000
36.68903 197.000
36.70898 197.000
36.72893 201.000
36.74888 182.000
36.76882 178.000
36.78877 152.000
36.80872 134.000
36.82866 120.000
36.84861 139.000
36.86856 144.000
36.88850 137.000
36.90845 120.000
36.92840 105.000
36.94835 105.000
36.96829 142.000
36.98824 132.000
37.00819 112.000
37.02813 125.000
37.04808 124.000
37.06803 148.000
37.08797 137.000
37.10792 117.000
37.12787 132.000
37.14781 121.000
37.16776 112.000
37.18771 125.000
37.20766 136.000
37.22760 124.000
37.24755 131.000
37.26750 126.000
37.28744 115.000
37.30739 103.000
37.32734 111.000
37.34728 120.000
37.36723 104.000
37.38718 122.000
37.40713 115.000
37.42707 103.000
37.44702 125.000
37.46697 126.000
37.48691 128.000
37.50686 120.000
37.52681 130.000
37.54675 105.000
37.56670 113.000
37.58665 131.000
37.60660 135.000
37.62654 131.000
37.64649 121.000
37.66644 109.000
37.68638 110.000
37.70633 126.000
37.72628 110.000
37.74622 124.000
37.76617 123.000
37.78612 120.000
37.80606 130.000
37.82601 141.000
37.84596 126.000
37.86591 149.000
37.88585 126.000
37.90580 138.000
37.92575 131.000
37.94569 152.000
37.96564 124.000
37.98559 138.000
38.00553 141.000
38.02548 130.000
38.04543 143.000
38.06538 132.000
38.08532 139.000
38.10527 141.000
38.12522 118.000
38.14516 137.000
38.16511 136.000
38.18506 111.000
38.20500 141.000
38.22495 156.000
38.24490 117.000
38.26484 143.000
38.28479 130.000
38.30474 145.000
38.32469 121.000
38.34463 125.000
38.36458 121.000
38.38453 128.000
38.40447 126.000
38.42442 156.000
38.44437 130.000
38.46431 142.000
38.48426 165.000
38.50421 154.000
38.52416 164.000
38.54410 166.000
38.56405 155.000
38.58400 158.000
38.60394 162.000
38.62389 174.000
38.64384 217.000
38.66378 234.000
38.68373 256.000
38.70368 290.000
38.72362 373.000
38.74357 405.000
38.76352 451.000
38.78347 448.000
38.80341 398.000
38.82336 354.000
38.84331 375.000
38.86325 386.000
38.88320 370.000
38.90315 332.000
38.92309 352.000
38.94304 304.000
38.96299 302.000
38.98294 322.000
39.00288 315.000
39.02283 351.000
39.04278 368.000
39.06272 429.000
39.08267 437.000
39.10262 521.000
39.12256 673.000
39.14251 908.000
39.16246 1205.000
39.18241 1527.000
39.20235 1884.000
39.22230 2025.000
39.24225 2008.000
39.26219 1859.000
39.28214 1752.000
39.30209 1566.000
39.32203 1568.000
39.34198 1308.000
39.36193 1095.000
39.38187 860.000
39.40182 718.000
39.42177 589.000
39.44172 471.000
39.46166 418.000
39.48161 362.000
39.50156 302.000
39.52150 260.000
39.54145 235.000
39.56140 214.000
39.58134 211.000
39.60129 200.000
39.62124 188.000
39.64119 186.000
39.66113 180.000
39.68108 168.000
39.70103 172.000
39.72097 154.000
39.74092 160.000
39.76087 159.000
39.78081 144.000
39.80076 146.000
39.82071 160.000
39.84065 141.000
39.86060 136.000
39.88055 130.000
39.90050 142.000
39.92044 154.000
39.94039 137.000
39.96034 121.000
39.98028 140.000
40.00023 124.000
40.02018 165.000
40.04012 119.000
40.06007 114.000
40.08002 121.000
40.09997 132.000
40.11991 108.000
40.13986 126.000
40.15981 136.000
40.17975 124.000
40.19970 114.000
40.21965 123.000
40.23959 122.000
40.25954 142.000
40.27949 148.000
40.29943 134.000
40.31938 113.000
40.33933 148.000
40.35928 106.000
40.37922 115.000
40.39917 108.000
40.41912 116.000
40.43906 134.000
40.45901 124.000
40.47896 114.000
40.49890 129.000
40.51885 128.000
40.53880 112.000
40.55875 119.000
40.57869 134.000
40.59864 121.000
40.61859 99.000
40.63853 104.000
40.65848 115.000
40.67843 100.000
40.69837 109.000
40.71832 109.000
40.73827 144.000
40.75822 105.000
40.77816 122.000
40.79811 109.000
40.81806 91.000
40.83800 133.000
40.85795 101.000
40.87790 125.000
40.89784 121.000
40.91779 127.000
40.93774 107.000
40.95768 101.000
40.97763 119.000
40.99758 106.000
41.01753 115.000
41.03747 99.000
41.05742 123.000
41.07737 129.000
41.09731 111.000
41.11726 117.000
41.13721 116.000
41.15715 106.000
41.17710 120.000
41.19705 116.000
41.21700 122.000
41.23694 133.000
41.25689 105.000
41.27684 110.000
41.29678 116.000
41.31673 104.000
41.33668 117.000
41.35662 107.000
41.37657 131.000
41.39652 119.000
41.41646 131.000
41.43641 125.000
41.45636 122.000
41.47631 118.000
41.49625 113.000
41.51620 125.000
41.53615 111.000
41.55609 120.000
41.57604 114.000
41.59599 131.000
41.61593 105.000
41.63588 122.000
41.65583 128.000
41.67578 137.000
41.69572 104.000
41.71567 121.000
41.73562 107.000
41.75556 135.000
41.77551 115.000
41.79546 96.000
41.81540 122.000
41.83535 110.000
41.85530 121.000
41.87524 87.000
41.89519 95.000
41.91514 121.000
41.93509 111.000
41.95503 112.000
41.97498 110.000
41.99493 99.000
42.01487 122.000
42.03482 129.000
42.05477 128.000
42.07471 134.000
42.09466 116.000
42.11461 137.000
42.13456 135.000
42.15450 100.000
42.17445 103.000
42.19440 136.000
42.21434 119.000
42.23429 122.000
42.25424 100.000
42.27418 120.000
42.29413 124.000
42.31408 105.000
42.33403 94.000
42.35397 122.000
42.37392 120.000
42.39387 120.000
42.41381 111.000
42.43376 115.000
42.45371 135.000
42.47365 100.000
42.49360 103.000
42.51355 127.000
42.53349 110.000
42.55344 117.000
42.57339 124.000
42.59334 136.000
42.61328 115.000
42.63323 114.000
42.65318 141.000
42.67312 95.000
42.69307 119.000
42.71302 145.000
42.73296 126.000
42.75291 144.000
42.77286 141.000
42.79281 158.000
42.81275 130.000
42.83270 119.000
42.85265 163.000
42.87259 139.000
42.89254 149.000
42.91249 150.000
42.93243 169.000
42.95238 151.000
42.97233 155.000
42.99227 144.000
43.01222 150.000
43.03217 155.000
43.05212 171.000
43.07206 178.000
43.09201 209.000
43.11196 203.000
43.13190 231.000
43.15185 251.000
43.17180 290.000
43.19174 362.000
43.21169 515.000
43.23164 561.000
43.25159 701.000
43.27153 789.000
43.29148 708.000
43.31143 707.000
43.33137 688.000
43.35132 658.000
43.37127 632.000
43.39121 557.000
43.41116 527.000
43.43111 430.000
43.45105 368.000
43.47100 321.000
43.49095 252.000
43.51090 231.000
43.53084 204.000
43.55079 180.000
43.57074 184.000
43.59068 166.000
43.61063 183.000
43.63058 140.000
43.65052 136.000
43.67047 136.000
43.69042 127.000
43.71037 149.000
43.73031 120.000
43.75026 118.000
43.77021 120.000
43.79015 160.000
43.81010 104.000
43.83005 125.000
43.84999 154.000
43.86994 109.000
43.88989 111.000
43.90984 125.000
43.92978 108.000
43.94973 112.000
43.96968 91.000
43.98962 98.000
44.00957 106.000
44.02952 115.000
44.04946 100.000
44.06941 125.000
44.08936 125.000
44.10930 116.000
44.12925 115.000
44.14920 104.000
44.16915 127.000
44.18909 109.000
44.20904 103.000
44.22899 109.000
44.24893 109.000
44.26888 109.000
44.28883 107.000
44.30877 102.000
44.32872 121.000
44.34867 108.000
44.36862 114.000
44.38856 103.000
44.40851 117.000
44.42846 131.000
44.44840 96.000
44.46835 110.000
44.48830 98.000
44.50824 128.000
44.52819 115.000
44.54814 102.000
44.56808 107.000
44.58803 108.000
44.60798 106.000
44.62793 128.000
44.64787 111.000
44.66782 117.000
44.68777 107.000
44.70771 109.000
44.72766 80.000
44.74761 117.000
44.76755 100.000
44.78750 112.000
44.80745 119.000
44.82740 118.000
44.84734 120.000
44.86729 115.000
44.88724 118.000
44.90718 102.000
44.92713 112.000
44.94708 108.000
44.96702 97.000
44.98697 107.000
45.00692 107.000
45.02686 105.000
45.04681 114.000
45.06676 108.000
45.08671 118.000
45.10665 117.000
45.12660 100.000
45.14655 97.000
45.16649 93.000
45.18644 102.000
45.20639 130.000
45.22633 99.000
45.24628 119.000
45.26623 121.000
45.28618 102.000
45.30612 91.000
45.32607 111.000
45.34602 125.000
45.36596 116.000
45.38591 110.000
45.40586 112.000
45.42580 102.000
45.44575 114.000
45.46570 101.000
45.48565 110.000
45.50559 106.000
45.52554 108.000
45.54549 97.000
45.56543 115.000
45.58538 104.000
45.60533 115.000
45.62527 117.000
45.64522 118.000
45.66517 124.000
45.68511 126.000
45.70506 132.000
45.72501 100.000
45.74496 122.000
45.76490 109.000
45.78485 100.000
45.80480 98.000
45.82474 115.000
45.84469 104.000
45.86464 114.000
45.88458 107.000
45.90453 103.000
45.92448 119.000
45.94443 120.000
45.96437 116.000
45.98432 93.000
46.00427 89.000
46.02421 118.000
46.04416 110.000
46.06411 109.000
46.08405 117.000
46.10400 112.000
46.12395 129.000
46.14389 101.000
46.16384 106.000
46.18379 117.000
46.20374 103.000
46.22368 117.000
46.24363 136.000
46.26358 117.000
46.28352 115.000
46.30347 129.000
46.32342 122.000
46.34336 90.000
46.36331 150.000
46.38326 119.000
46.40321 100.000
46.42315 111.000
46.44310 109.000
46.46305 130.000
46.48299 120.000
46.50294 118.000
46.52289 107.000
46.54283 103.000
46.56278 112.000
46.58273 120.000
46.60267 111.000
46.62262 99.000
46.64257 110.000
46.66252 130.000
46.68246 106.000
46.70241 107.000
46.72236 117.000
46.74230 89.000
46.76225 107.000
46.78220 117.000
46.80214 108.000
46.82209 121.000
46.84204 110.000
46.86199 115.000
46.88193 119.000
46.90188 102.000
46.92183 98.000
46.94177 117.000
46.96172 126.000
46.98167 132.000
47.00161 96.000
47.02156 100.000
47.04151 114.000
47.06146 115.000
47.08140 142.000
47.10135 123.000
47.12130 113.000
47.14124 101.000
47.16119 127.000
47.18114 115.000
47.20108 108.000
47.22103 118.000
47.24098 131.000
47.26092 119.000
47.28087 105.000
47.30082 145.000
47.32077 116.000
47.34071 102.000
47.36066 119.000
47.38061 128.000
47.40055 109.000
47.42050 144.000
47.44045 133.000
47.46039 113.000
47.48034 109.000
47.50029 104.000
47.52024 113.000
47.54018 122.000
47.56013 119.000
47.58008 111.000
47.60002 118.000
47.61997 128.000
47.63992 127.000
47.65986 122.000
47.67981 141.000
47.69976 119.000
47.71970 112.000
47.73965 148.000
47.75960 138.000
47.77955 102.000
47.79949 131.000
47.81944 144.000
47.83939 139.000
47.85933 150.000
47.87928 137.000
47.89923 139.000
47.91917 139.000
47.93912 146.000
47.95907 154.000
47.97902 168.000
47.99896 150.000
48.01891 174.000
48.03886 164.000
48.05880 176.000
48.07875 188.000
48.09870 172.000
48.11864 209.000
48.13859 205.000
48.15854 192.000
48.17848 197.000
48.19843 236.000
48.21838 242.000
48.23833 311.000
48.25827 304.000
48.27822 330.000
48.29817 332.000
48.31811 342.000
48.33806 459.000
48.35801 504.000
48.37795 606.000
48.39790 740.000
48.41785 925.000
48.43780 1173.000
48.45774 1451.000
48.47769 1670.000
48.49764 1771.000
48.51758 1697.000
48.53753 1526.000
48.55748 1416.000
48.57742 1353.000
48.59737 1286.000
48.61732 1278.000
48.63726 1160.000
48.65721 985.000
48.67716 854.000
48.69711 779.000
48.71705 607.000
48.73700 560.000
48.75695 458.000
48.77689 420.000
48.79684 376.000
48.81679 326.000
48.83673 316.000
48.85668 304.000
48.87663 281.000
48.89658 247.000
48.91652 201.000
48.93647 204.000
48.95642 204.000
48.97636 194.000
48.99631 167.000
49.01626 165.000
49.03620 170.000
49.05615 169.000
49.07610 156.000
49.09605 153.000
49.11599 162.000
49.13594 138.000
49.15589 161.000
49.17583 138.000
49.19578 133.000
49.21573 135.000
49.23567 139.000
49.25562 150.000
49.27557 139.000
49.29551 149.000
49.31546 135.000
49.33541 143.000
49.35536 109.000
49.37530 129.000
49.39525 124.000
49.41520 140.000
49.43514 127.000
49.45509 122.000
49.47504 106.000
49.49498 131.000
49.51493 147.000
49.53488 120.000
49.55483 137.000
49.57477 114.000
49.59472 124.000
49.61467 116.000
49.63461 124.000
49.65456 135.000
49.67451 121.000
49.69445 108.000
49.71440 110.000
49.73435 119.000
49.75429 112.000
49.77424 122.000
49.79419 115.000
49.81414 102.000
49.83408 113.000
49.85403 116.000
49.87398 116.000
49.89392 117.000
49.91387 104.000
49.93382 114.000
49.95376 111.000
49.97371 108.000
49.99366 138.000
50.01361 111.000
50.03355 116.000
50.05350 110.000
50.07345 98.000
50.09339 113.000
50.11334 114.000
50.13329 117.000
50.15323 112.000
50.17318 105.000
50.19313 123.000
50.21307 109.000
50.23302 102.000
50.25297 96.000
50.27292 123.000
50.29286 116.000
50.31281 112.000
50.33276 117.000
50.35270 99.000
50.37265 99.000
50.39260 110.000
50.41254 98.000
50.43249 112.000
50.45244 100.000
50.47239 109.000
50.49233 115.000
50.51228 103.000
50.53223 101.000
50.55217 110.000
50.57212 99.000
50.59207 102.000
50.61201 93.000
50.63196 95.000
50.65191 88.000
50.67186 88.000
50.69180 103.000
50.71175 134.000
50.73170 111.000
50.75164 109.000
50.77159 118.000
50.79154 106.000
50.81148 106.000
50.83143 109.000
50.85138 116.000
50.87132 98.000
50.89127 97.000
50.91122 109.000
50.93117 110.000
50.95111 115.000
50.97106 96.000
50.99101 104.000
51.01095 113.000
51.03090 95.000
51.05085 115.000
51.07079 108.000
51.09074 116.000
51.11069 105.000
51.13064 108.000
51.15058 98.000
51.17053 94.000
51.19048 102.000
51.21042 100.000
51.23037 91.000
51.25032 106.000
51.27026 115.000
51.29021 108.000
51.31016 111.000
51.33010 116.000
51.35005 116.000
51.37000 98.000
51.38995 114.000
51.40989 117.000
51.42984 108.000
51.44979 108.000
51.46973 101.000
51.48968 106.000
51.50963 125.000
51.52957 96.000
51.54952 101.000
51.56947 106.000
51.58942 101.000
51.60936 117.000
51.62931 122.000
51.64926 92.000
51.66920 116.000
51.68915 106.000
51.70910 88.000
51.72904 105.000
51.74899 131.000
51.76894 125.000
51.78888 93.000
51.80883 103.000
51.82878 101.000
51.84873 107.000
51.86867 91.000
51.88862 101.000
51.90857 81.000
51.92851 94.000
51.94846 97.000
51.96841 110.000
51.98835 120.000
52.00830 103.000
52.02825 90.000
52.04820 95.000
52.06814 102.000
52.08809 102.000
52.10804 102.000
52.12798 110.000
52.14793 109.000
52.16788 109.000
52.18782 93.000
52.20777 128.000
52.22772 100.000
52.24767 116.000
52.26761 100.000
52.28756 123.000
52.30751 119.000
52.32745 96.000
52.34740 93.000
52.36735 100.000
52.38729 89.000
52.40724 96.000
52.42719 91.000
52.44713 87.000
52.46708 93.000
52.48703 113.000
52.50698 106.000
52.52692 89.000
52.54687 98.000
52.56682 89.000
52.58676 111.000
52.60671 108.000
52.62666 108.000
52.64660 88.000
52.66655 117.000
52.68650 101.000
52.70645 107.000
52.72639 108.000
52.74634 106.000
52.76629 100.000
52.78623 94.000
52.80618 107.000
52.82613 100.000
52.84607 94.000
52.86602 118.000
52.88597 118.000
52.90591 119.000
52.92586 113.000
52.94581 101.000
52.96576 110.000
52.98570 109.000
53.00565 112.000
53.02560 108.000
53.04554 104.000
53.06549 90.000
53.08544 100.000
53.10538 127.000
53.12533 117.000
53.14528 91.000
53.16523 112.000
53.18517 117.000
53.20512 100.000
53.22507 107.000
53.24501 124.000
53.26496 116.000
53.28491 100.000
53.30485 114.000
53.32480 103.000
53.34475 104.000
53.36469 99.000
53.38464 119.000
53.40459 116.000
53.42454 123.000
53.44448 111.000
53.46443 124.000
53.48438 130.000
53.50432 123.000
53.52427 122.000
53.54422 123.000
53.56416 123.000
53.58411 124.000
53.60406 112.000
53.62401 135.000
53.64395 118.000
53.66390 113.000
53.68385 113.000
53.70379 98.000
53.72374 102.000
53.74369 107.000
53.76363 114.000
53.78358 112.000
53.80353 111.000
53.82348 102.000
53.84342 103.000
53.86337 127.000
53.88332 104.000
53.90326 109.000
53.92321 108.000
53.94316 98.000
53.96310 101.000
53.98305 86.000
54.00300 87.000
54.02294 110.000
54.04289 104.000
54.06284 93.000
54.08279 99.000
54.10273 113.000
54.12268 105.000
54.14263 108.000
54.16257 108.000
54.18252 103.000
54.20247 123.000
54.22241 109.000
54.24236 103.000
54.26231 96.000
54.28226 106.000
54.30220 113.000
54.32215 97.000
54.34210 106.000
54.36204 108.000
54.38199 106.000
54.40194 109.000
54.42188 93.000
54.44183 103.000
54.46178 120.000
54.48172 107.000
54.50167 101.000
54.52162 107.000
54.54157 115.000
54.56151 96.000
54.58146 102.000
54.60141 91.000
54.62135 83.000
54.64130 107.000
54.66125 108.000
54.68119 91.000
54.70114 97.000
54.72109 102.000
54.74104 114.000
54.76098 83.000
54.78093 91.000
54.80088 133.000
54.82082 109.000
54.84077 107.000
54.86072 77.000
54.88066 114.000
54.90061 109.000
54.92056 99.000
54.94050 116.000
54.96045 105.000
54.98040 103.000
55.00035 101.000
55.02029 104.000
55.04024 110.000
55.06019 94.000
55.08013 104.000
55.10008 121.000
55.12003 112.000
55.13997 108.000
55.15992 86.000
55.17987 116.000
55.19982 102.000
55.21976 110.000
55.23971 99.000
55.25966 98.000
55.27960 115.000
55.29955 103.000
55.31950 90.000
55.33944 116.000
55.35939 95.000
55.37934 93.000
55.39929 95.000
55.41923 110.000
55.43918 99.000
55.45913 101.000
55.47907 102.000
55.49902 89.000
55.51897 111.000
55.53891 115.000
55.55886 122.000
55.57881 98.000
55.59875 97.000
55.61870 96.000
55.63865 113.000
55.65860 118.000
55.67854 94.000
55.69849 105.000
55.71844 113.000
55.73838 110.000
55.75833 104.000
55.77828 113.000
55.79822 96.000
55.81817 110.000
55.83812 97.000
55.85807 85.000
55.87801 94.000
55.89796 86.000
55.91791 116.000
55.93785 130.000
55.95780 103.000
55.97775 114.000
55.99769 89.000
56.01764 105.000
56.03759 96.000
56.05753 96.000
56.07748 94.000
56.09743 103.000
56.11738 95.000
56.13732 112.000
56.15727 104.000
56.17722 101.000
56.19716 115.000
56.21711 115.000
56.23706 103.000
56.25700 97.000
56.27695 106.000
56.29690 92.000
56.31685 117.000
56.33679 126.000
56.35674 101.000
56.37669 110.000
56.39663 107.000
56.41658 101.000
56.43653 111.000
56.45647 109.000
56.47642 101.000
56.49637 104.000
56.51631 111.000
56.53626 123.000
56.55621 119.000
56.57616 89.000
56.59610 122.000
56.61605 112.000
56.63600 119.000
56.65594 130.000
56.67589 106.000
56.69584 102.000
56.71578 115.000
56.73573 110.000
56.75568 96.000
56.77563 114.000
56.79557 110.000
56.81552 116.000
56.83547 101.000
56.85541 88.000
56.87536 104.000
56.89531 101.000
56.91525 115.000
56.93520 120.000
56.95515 100.000
56.97510 100.000
56.99504 110.000
57.01499 106.000
57.03494 106.000
57.05488 118.000
57.07483 109.000
57.09478 114.000
57.11472 97.000
57.13467 102.000
57.15462 115.000
57.17456 99.000
57.19451 130.000
57.21446 89.000
57.23441 122.000
57.25435 104.000
57.27430 105.000
57.29425 107.000
57.31419 100.000
57.33414 109.000
57.35409 129.000
57.37403 104.000
57.39398 108.000
57.41393 110.000
57.43388 107.000
57.45382 118.000
57.47377 89.000
57.49372 95.000
57.51366 99.000
57.53361 114.000
57.55356 111.000
57.57350 101.000
57.59345 110.000
57.61340 109.000
57.63334 102.000
57.65329 94.000
57.67324 110.000
57.69319 102.000
57.71313 117.000
57.73308 99.000
57.75303 102.000
57.77297 84.000
57.79292 112.000
57.81287 105.000
57.83281 95.000
57.85276 90.000
57.87271 103.000
57.89266 99.000
57.91260 110.000
57.93255 103.000
57.95250 94.000
57.97244 113.000
57.99239 103.000
58.01234 112.000
58.03228 120.000
58.05223 106.000
58.07218 113.000
58.09212 130.000
58.11207 93.000
58.13202 123.000
58.15197 116.000
58.17191 102.000
58.19186 109.000
58.21181 123.000
58.23175 101.000
58.25170 124.000
58.27165 120.000
58.29159 113.000
58.31154 140.000
58.33149 127.000
58.35144 141.000
58.37138 141.000
58.39133 122.000
58.41128 131.000
58.43122 117.000
58.45117 104.000
58.47112 137.000
58.49106 120.000
58.51101 121.000
58.53096 136.000
58.55090 104.000
58.57085 109.000
58.59080 115.000
58.61075 99.000
58.63069 105.000
58.65064 117.000
58.67059 115.000
58.69053 120.000
58.71048 121.000
58.73043 107.000
58.75037 101.000
58.77032 96.000
58.79027 108.000
58.81022 110.000
58.83016 118.000
58.85011 95.000
58.87006 109.000
58.89000 101.000
58.90995 117.000
58.92990 108.000
58.94984 109.000
58.96979 105.000
58.98974 105.000
59.00969 124.000
59.02963 112.000
59.04958 96.000
59.06953 96.000
59.08947 124.000
59.10942 98.000
59.12937 123.000
59.14931 124.000
59.16926 133.000
59.18921 114.000
59.20915 109.000
59.22910 117.000
59.24905 104.000
59.26900 113.000
59.28894 135.000
59.30889 119.000
59.32884 115.000
59.34878 97.000
59.36873 102.000
59.38868 104.000
59.40862 105.000
59.42857 102.000
59.44852 97.000
59.46847 113.000
59.48841 105.000
59.50836 111.000
59.52831 101.000
59.54825 78.000
59.56820 123.000
59.58815 80.000
59.60809 104.000
59.62804 107.000
59.64799 104.000
59.66793 122.000
59.68788 101.000
59.70783 93.000
59.72778 106.000
59.74772 114.000
59.76767 103.000
59.78762 94.000
59.80756 104.000
59.82751 112.000
59.84746 98.000
59.86740 110.000
59.88735 119.000
59.90730 111.000
59.92725 114.000
59.94719 118.000
59.96714 104.000
59.98709 126.000
60.00703 99.000
60.02698 95.000
60.04693 97.000
60.06687 109.000
60.08682 100.000
60.10677 115.000
60.12671 105.000
60.14666 92.000
60.16661 91.000
60.18656 115.000
60.20650 95.000
60.22645 109.000
60.24640 102.000
60.26634 116.000
60.28629 109.000
60.30624 120.000
60.32618 115.000
60.34613 123.000
60.36608 94.000
60.38603 124.000
60.40597 110.000
60.42592 112.000
60.44587 108.000
60.46581 90.000
60.48576 141.000
60.50571 119.000
60.52565 116.000
60.54560 138.000
60.56555 122.000
60.58550 116.000
60.60544 123.000
60.62539 124.000
60.64534 122.000
60.66528 100.000
60.68523 144.000
60.70518 121.000
60.72512 108.000
60.74507 116.000
60.76502 113.000
60.78496 119.000
60.80491 114.000
60.82486 110.000
60.84481 114.000
60.86475 124.000
60.88470 115.000
60.90465 113.000
60.92459 120.000
60.94454 120.000
60.96449 124.000
60.98443 117.000
61.00438 120.000
61.02433 139.000
61.04428 138.000
61.06422 126.000
61.08417 142.000
61.10412 128.000
61.12406 122.000
61.14401 151.000
61.16396 152.000
61.18390 150.000
61.20385 153.000
61.22380 142.000
61.24374 158.000
61.26369 194.000
61.28364 172.000
61.30359 189.000
61.32353 185.000
61.34348 204.000
61.36343 216.000
61.38337 229.000
61.40332 263.000
61.42327 316.000
61.44321 311.000
61.46316 392.000
61.48311 431.000
61.50306 521.000
61.52300 624.000
61.54295 612.000
61.56290 661.000
61.58284 671.000
61.60279 682.000
61.62274 686.000
61.64268 565.000
61.66263 532.000
61.68258 563.000
61.70252 569.000
61.72247 538.000
61.74242 487.000
61.76237 516.000
61.78231 456.000
61.80226 392.000
61.82221 345.000
61.84215 316.000
61.86210 268.000
61.88205 229.000
61.90199 241.000
61.92194 202.000
61.94189 185.000
61.96184 193.000
61.98178 166.000
62.00173 194.000
62.02168 172.000
62.04162 148.000
62.06157 153.000
62.08152 157.000
62.10146 149.000
62.12141 149.000
62.14136 128.000
62.16131 139.000
62.18125 154.000
62.20120 152.000
62.22115 135.000
62.24109 141.000
62.26104 128.000
62.28099 117.000
62.30093 127.000
62.32088 142.000
62.34083 139.000
62.36077 148.000
62.38072 129.000
62.40067 138.000
62.42062 121.000
62.44056 115.000
62.46051 126.000
62.48046 119.000
62.50040 107.000
62.52035 114.000
62.54030 125.000
62.56024 126.000
62.58019 95.000
62.60014 109.000
62.62009 102.000
62.64003 119.000
62.65998 105.000
62.67993 119.000
62.69987 140.000
62.71982 106.000
62.73977 125.000
62.75971 126.000
62.77966 108.000
62.79961 121.000
62.81955 116.000
62.83950 126.000
62.85945 131.000
62.87940 155.000
62.89934 111.000
62.91929 115.000
62.93924 109.000
62.95918 152.000
62.97913 112.000
62.99908 113.000
63.01902 92.000
63.03897 114.000
63.05892 104.000
63.07887 111.000
63.09881 119.000
63.11876 119.000
63.13871 100.000
63.15865 117.000
63.17860 128.000
63.19855 127.000
63.21849 110.000
63.23844 106.000
63.25839 101.000
63.27833 102.000
63.29828 99.000
63.31823 129.000
63.33818 112.000
63.35812 105.000
63.37807 136.000
63.39802 111.000
63.41796 114.000
63.43791 128.000
63.45786 131.000
63.47780 130.000
63.49775 143.000
63.51770 113.000
63.53765 108.000
63.55759 137.000
63.57754 129.000
63.59749 132.000
63.61743 123.000
63.63738 117.000
63.65733 116.000
63.67727 130.000
63.69722 119.000
63.71717 119.000
63.73712 144.000
63.75706 119.000
63.77701 139.000
63.79696 126.000
63.81690 145.000
63.83685 168.000
63.85680 152.000
63.87674 156.000
63.89669 143.000
63.91664 175.000
63.93658 202.000
63.95653 219.000
63.97648 277.000
63.99643 283.000
64.01637 309.000
64.03632 378.000
64.05627 403.000
64.07621 433.000
64.09616 439.000
64.11611 484.000
64.13605 496.000
64.15600 502.000
64.17595 479.000
64.19590 501.000
64.21584 472.000
64.23579 489.000
64.25574 445.000
64.27568 447.000
64.29563 395.000
64.31558 385.000
64.33552 374.000
64.35547 340.000
64.37542 351.000
64.39536 276.000
64.41531 298.000
64.43526 221.000
64.45521 222.000
64.47515 199.000
64.49510 184.000
64.51505 186.000
64.53499 160.000
64.55494 164.000
64.57489 146.000
64.59483 142.000
64.61478 161.000
64.63473 130.000
64.65468 131.000
64.67462 105.000
64.69457 138.000
64.71452 130.000
64.73446 122.000
64.75441 123.000
64.77436 136.000
64.79430 113.000
64.81425 111.000
64.83420 133.000
64.85414 129.000
64.87409 127.000
64.89404 132.000
64.91399 119.000
64.93393 126.000
64.95388 109.000
64.97383 126.000
64.99377 128.000
65.01372 116.000
65.03367 110.000
65.05361 129.000
65.07356 113.000
65.09351 118.000
65.11346 122.000
65.13340 126.000
65.15335 75.000
65.17330 101.000
65.19324 125.000
65.21319 116.000
65.23314 120.000
65.25308 127.000
65.27303 116.000
65.29298 126.000
65.31293 116.000
65.33287 108.000
65.35282 128.000
65.37277 112.000
65.39271 125.000
65.41266 126.000
65.43261 123.000
65.45255 132.000
65.47250 105.000
65.49245 116.000
65.51239 115.000
65.53234 121.000
65.55229 115.000
65.57224 118.000
65.59218 117.000
65.61213 124.000
65.63208 128.000
65.65202 128.000
65.67197 123.000
65.69192 125.000
65.71186 135.000
65.73181 122.000
65.75176 121.000
65.77171 117.000
65.79165 147.000
65.81160 146.000
65.83155 147.000
65.85149 161.000
65.87144 148.000
65.89139 135.000
65.91133 134.000
65.93128 162.000
65.95123 141.000
65.97117 150.000
65.99112 149.000
66.01107 146.000
66.03102 157.000
66.05096 163.000
66.07091 161.000
66.09086 161.000
66.11080 171.000
66.13075 214.000
66.15070 214.000
66.17064 231.000
66.19059 246.000
66.21054 256.000
66.23049 255.000
66.25043 253.000
66.27038 250.000
66.29033 245.000
66.31027 264.000
66.33022 307.000
66.35017 306.000
66.37011 331.000
66.39006 397.000
66.41001 369.000
66.42995 378.000
66.44990 446.000
66.46985 445.000
66.48980 432.000
66.50974 456.000
66.52969 438.000
66.54964 427.000
66.56958 361.000
66.58953 405.000
66.60948 381.000
66.62942 347.000
66.64937 323.000
66.66932 349.000
66.68927 310.000
66.70921 311.000
66.72916 285.000
66.74911 260.000
66.76905 224.000
66.78900 248.000
66.80895 218.000
66.82889 210.000
66.84884 203.000
66.86879 183.000
66.88874 152.000
66.90868 150.000
66.92863 151.000
66.94858 134.000
66.96852 126.000
66.98847 129.000
67.00842 119.000
67.02836 131.000
67.04831 132.000
67.06826 126.000
67.08820 128.000
67.10815 133.000
67.12810 130.000
67.14805 110.000
67.16799 111.000
67.18794 130.000
67.20789 125.000
67.22783 120.000
67.24778 110.000
67.26773 131.000
67.28767 128.000
67.30762 118.000
67.32757 103.000
67.34752 111.000
67.36746 108.000
67.38741 110.000
67.40736 113.000
67.42730 122.000
67.44725 126.000
67.46720 98.000
67.48714 101.000
67.50709 107.000
67.52704 99.000
67.54698 117.000
67.56693 111.000
67.58688 106.000
67.60683 104.000
67.62677 110.000
67.64672 129.000
67.66667 96.000
67.68661 112.000
67.70656 93.000
67.72651 110.000
67.74645 108.000
67.76640 115.000
67.78635 116.000
67.80630 128.000
67.82624 105.000
67.84619 136.000
67.86614 101.000
67.88608 117.000
67.90603 112.000
67.92598 144.000
67.94592 122.000
67.96587 132.000
67.98582 123.000
68.00576 137.000
68.02571 111.000
68.04566 142.000
68.06561 114.000
68.08555 145.000
68.10550 151.000
68.12545 129.000
68.14539 138.000
68.16534 140.000
68.18529 137.000
68.20523 158.000
68.22518 138.000
68.24513 142.000
68.26508 131.000
68.28502 124.000
68.30497 134.000
68.32492 124.000
68.34486 117.000
68.36481 122.000
68.38476 116.000
68.40470 111.000
68.42465 107.000
68.44460 121.000
68.46455 112.000
68.48449 109.000
68.50444 104.000
68.52439 102.000
68.54433 108.000
68.56428 99.000
68.58423 102.000
68.60417 91.000
68.62412 116.000
68.64407 125.000
68.66401 112.000
68.68396 98.000
68.70391 113.000
68.72386 101.000
68.74380 94.000
68.76375 116.000
68.78370 99.000
68.80364 107.000
68.82359 110.000
68.84354 100.000
68.86348 100.000
68.88343 108.000
68.90338 106.000
68.92333 99.000
68.94327 110.000
68.96322 108.000
68.98317 115.000
69.00311 95.000
69.02306 116.000
69.04301 107.000
69.06295 131.000
69.08290 120.000
69.10285 98.000
69.12279 107.000
69.14274 108.000
69.16269 109.000
69.18264 102.000
69.20258 131.000
69.22253 111.000
69.24248 106.000
69.26242 116.000
69.28237 116.000
69.30232 117.000
69.32226 114.000
69.34221 101.000
69.36216 104.000
69.38211 98.000
69.40205 111.000
69.42200 109.000
69.44195 127.000
69.46189 106.000
69.48184 110.000
69.50179 114.000
69.52173 126.000
69.54168 103.000
69.56163 96.000
69.58157 89.000
69.60152 98.000
69.62147 90.000
69.64142 112.000
69.66136 113.000
69.68131 101.000
69.70126 79.000
69.72120 110.000
69.74115 92.000
69.76110 121.000
69.78104 81.000
69.80099 102.000
69.82094 104.000
69.84089 113.000
69.86083 109.000
69.88078 94.000
69.90073 116.000
69.92067 105.000
69.94062 96.000
69.96057 100.000
69.98051 112.000
70.00046 100.000
70.02041 98.000
70.04035 114.000
70.06030 89.000
70.08025 99.000
70.10020 99.000
70.12014 101.000
70.14009 99.000
70.16004 114.000
70.17998 109.000
70.19993 100.000
70.21988 104.000
70.23982 80.000
70.25977 99.000
70.27972 114.000
70.29967 103.000
70.31961 93.000
70.33956 96.000
70.35951 105.000
70.37945 100.000
70.39940 95.000
70.41935 97.000
70.43929 98.000
70.45924 97.000
70.47919 94.000
70.49914 103.000
70.51908 112.000
70.53903 108.000
70.55898 107.000
70.57892 104.000
70.59887 106.000
70.61882 102.000
70.63876 118.000
70.65871 99.000
70.67866 97.000
70.69860 106.000
70.71855 100.000
70.73850 105.000
70.75845 103.000
70.77839 121.000
70.79834 99.000
70.81829 124.000
70.83823 95.000
70.85818 98.000
70.87813 114.000
70.89807 96.000
70.91802 111.000
70.93797 96.000
70.95792 116.000
70.97786 116.000
70.99781 106.000
71.01776 83.000
71.03770 104.000
71.05765 99.000
71.07760 99.000
71.09754 112.000
71.11749 107.000
71.13744 101.000
71.15738 101.000
71.17733 96.000
71.19728 93.000
71.21723 111.000
71.23717 102.000
71.25712 104.000
71.27707 101.000
71.29701 103.000
71.31696 89.000
71.33691 102.000
71.35685 98.000
71.37680 104.000
71.39675 105.000
71.41670 83.000
71.43664 105.000
71.45659 98.000
71.47654 94.000
71.49648 110.000
71.51643 103.000
71.53638 102.000
71.55632 101.000
71.57627 96.000
71.59622 86.000
71.61616 91.000
71.63611 111.000
71.65606 106.000
71.67601 82.000
71.69595 93.000
71.71590 95.000
71.73585 103.000
71.75579 103.000
71.77574 95.000
71.79569 107.000
71.81563 107.000
71.83558 84.000
71.85553 104.000
71.87548 88.000
71.89542 114.000
71.91537 95.000
71.93532 106.000
71.95526 112.000
71.97521 112.000
71.99516 106.000
72.01510 96.000
72.03505 105.000
72.05500 113.000
72.07495 123.000
72.09489 101.000
72.11484 105.000
72.13479 99.000
72.15473 110.000
72.17468 110.000
72.19463 94.000
72.21457 107.000
72.23452 129.000
72.25447 96.000
72.27441 114.000
72.29436 102.000
72.31431 107.000
72.33426 121.000
72.35420 104.000
72.37415 112.000
72.39410 129.000
72.41404 129.000
72.43399 108.000
72.45394 117.000
72.47388 115.000
72.49383 107.000
72.51378 102.000
72.53373 129.000
72.55367 104.000
72.57362 118.000
72.59357 109.000
72.61351 109.000
72.63346 92.000
72.65341 120.000
72.67335 100.000
72.69330 96.000
72.71325 102.000
72.73319 110.000
72.75314 112.000
72.77309 105.000
72.79304 97.000
72.81298 121.000
72.83293 107.000
72.85288 115.000
72.87282 104.000
72.89277 116.000
72.91272 106.000
72.93266 92.000
72.95261 94.000
72.97256 107.000
72.99251 114.000
73.01245 113.000
73.03240 126.000
73.05235 135.000
73.07229 125.000
73.09224 130.000
73.11219 144.000
73.13213 144.000
73.15208 145.000
73.17203 116.000
73.19197 182.000
73.21192 172.000
73.23187 194.000
73.25182 191.000
73.27176 204.000
73.29171 240.000
73.31166 217.000
73.33160 241.000
73.35155 221.000
73.37150 208.000
73.39144 229.000
73.41139 199.000
73.43134 190.000
73.45129 196.000
73.47123 203.000
73.49118 184.000
73.51113 219.000
73.53107 196.000
73.55102 190.000
73.57097 194.000
73.59091 187.000
73.61086 172.000
73.63081 148.000
73.65076 124.000
73.67070 149.000
73.69065 139.000
73.71060 141.000
73.73054 114.000
73.75049 116.000
73.77044 111.000
73.79038 88.000
73.81033 115.000
73.83028 126.000
73.85022 104.000
73.87017 130.000
73.89012 116.000
73.91007 101.000
73.93001 115.000
73.94996 111.000
73.96991 96.000
73.98985 101.000
74.00980 88.000
74.02975 105.000
74.04969 120.000
74.06964 109.000
74.08959 94.000
74.10954 103.000
74.12948 126.000
74.14943 100.000
74.16938 99.000
74.18932 91.000
74.20927 97.000
74.22922 105.000
74.24916 98.000
74.26911 95.000
74.28906 96.000
74.30900 112.000
74.32895 102.000
74.34890 112.000
74.36885 107.000
74.38879 107.000
74.40874 103.000
74.42869 110.000
74.44863 106.000
74.46858 98.000
74.48853 92.000
74.50847 115.000
74.52842 95.000
74.54837 98.000
74.56832 125.000
74.58826 91.000
74.60821 88.000
74.62816 104.000
74.64810 98.000
74.66805 92.000
74.68800 120.000
74.70794 118.000
74.72789 92.000
74.74784 102.000
74.76778 113.000
74.78773 108.000
74.80768 104.000
74.82763 108.000
74.84757 109.000
74.86752 93.000
74.88747 117.000
74.90741 120.000
74.92736 135.000
74.94731 108.000
74.96725 100.000
74.98720 116.000
75.00715 140.000
75.02710 136.000
75.04704 95.000
75.06699 83.000
75.08694 111.000
75.10688 100.000
75.12683 94.000
75.14678 123.000
75.16672 117.000
75.18667 96.000
75.20662 142.000
75.22657 135.000
75.24651 122.000
75.26646 132.000
75.28641 116.000
75.30635 113.000
75.32630 104.000
75.34625 125.000
75.36619 136.000
75.38614 131.000
75.40609 125.000
75.42603 126.000
75.44598 140.000
75.46593 139.000
75.48588 143.000
75.50582 145.000
75.52577 151.000
75.54572 148.000
75.56566 155.000
75.58561 145.000
75.60556 164.000
75.62550 152.000
75.64545 159.000
75.66540 172.000
75.68535 140.000
75.70529 153.000
75.72524 172.000
75.74519 143.000
75.76513 139.000
75.78508 134.000
75.80503 130.000
75.82497 139.000
75.84492 127.000
75.86487 117.000
75.88481 153.000
75.90476 138.000
75.92471 138.000
75.94466 124.000
75.96460 132.000
75.98455 150.000
76.00450 129.000
76.02444 119.000
76.04439 125.000
76.06434 121.000
76.08428 114.000
76.10423 123.000
76.12418 102.000
76.14413 124.000
76.16407 106.000
76.18402 104.000
76.20397 99.000
76.22391 99.000
76.24386 97.000
76.26381 97.000
76.28375 109.000
76.30370 105.000
76.32365 103.000
76.34359 93.000
76.36354 127.000
76.38349 96.000
76.40344 108.000
76.42338 101.000
76.44333 120.000
76.46328 128.000
76.48322 111.000
76.50317 116.000
76.52312 100.000
76.54306 139.000
76.56301 112.000
76.58296 107.000
76.60291 116.000
76.62285 101.000
76.64280 102.000
76.66275 92.000
76.68269 99.000
76.70264 115.000
76.72259 110.000
76.74253 108.000
76.76248 108.000
76.78243 97.000
76.80238 110.000
76.82232 109.000
76.84227 90.000
76.86222 103.000
76.88216 118.000
76.90211 121.000
76.92206 111.000
76.94200 120.000
76.96195 122.000
76.98190 110.000
77.00184 101.000
77.02179 99.000
77.04174 108.000
77.06169 112.000
77.08163 115.000
77.10158 133.000
77.12153 128.000
77.14147 125.000
77.16142 108.000
77.18137 103.000
77.20131 111.000
77.22126 139.000
77.24121 116.000
77.26116 124.000
77.28110 132.000
77.30105 144.000
77.32100 136.000
77.34094 151.000
77.36089 148.000
77.38084 117.000
77.40078 180.000
77.42073 166.000
77.44068 175.000
77.46062 171.000
77.48057 166.000
77.50052 199.000
77.52047 241.000
77.54041 238.000
77.56036 260.000
77.58031 268.000
77.60025 263.000
77.62020 286.000
77.64015 268.000
77.66009 322.000
77.68004 302.000
77.69999 308.000
77.71994 263.000
77.73988 274.000
77.75983 267.000
77.77978 298.000
77.79972 321.000
77.81967 270.000
77.83962 282.000
77.85956 283.000
77.87951 289.000
77.89946 262.000
77.91940 253.000
77.93935 254.000
77.95930 240.000
77.97925 248.000
77.99919 181.000
78.01914 230.000
78.03909 209.000
78.05903 199.000
78.07898 190.000
78.09893 188.000
78.11887 192.000
78.13882 172.000
78.15877 179.000
78.17872 151.000
78.19866 155.000
78.21861 129.000
78.23856 152.000
78.25850 140.000
78.27845 130.000
78.29840 113.000
78.31834 132.000
78.33829 118.000
78.35824 117.000
78.37819 123.000
78.39813 118.000
78.41808 119.000
78.43803 115.000
78.45797 114.000
78.47792 110.000
78.49787 134.000
78.51781 118.000
78.53776 117.000
78.55771 111.000
78.57765 116.000
78.59760 128.000
78.61755 125.000
78.63750 110.000
78.65744 110.000
78.67739 108.000
78.69734 96.000
78.71728 116.000
78.73723 129.000
78.75718 119.000
78.77712 98.000
78.79707 123.000
78.81702 108.000
78.83697 108.000
78.85691 116.000
78.87686 101.000
78.89681 93.000
78.91675 108.000
78.93670 101.000
78.95665 101.000
78.97659 103.000
78.99654 96.000
79.01649 106.000
79.03643 110.000
79.05638 105.000
79.07633 108.000
79.09628 96.000
79.11622 111.000
79.13617 101.000
79.15612 132.000
79.17606 121.000
79.19601 103.000
79.21596 101.000
79.23590 102.000
79.25585 98.000
79.27580 111.000
79.29575 101.000
79.31569 88.000
79.33564 109.000
79.35559 97.000
79.37553 103.000
79.39548 118.000
79.41543 79.000
79.43537 87.000
79.45532 108.000
79.47527 112.000
79.49521 109.000
79.51516 106.000
79.53511 99.000
79.55506 106.000
79.57500 111.000
79.59495 102.000
79.61490 102.000
79.63484 111.000
79.65479 93.000
79.67474 118.000
79.69468 110.000
79.71463 105.000
79.73458 105.000
79.75453 108.000
79.77447 87.000
79.79442 106.000
79.81437 107.000
79.83431 122.000
79.85426 123.000
79.87421 104.000
79.89415 103.000
79.91410 122.000
79.93405 107.000
79.95399 77.000
79.97394 88.000
79.99389 83.000
80.01384 120.000
80.03378 124.000
80.05373 111.000
80.07368 103.000
80.09362 105.000
80.11357 103.000
80.13352 118.000
80.15346 98.000
80.17341 117.000
80.19336 90.000
80.21331 113.000
80.23325 107.000
80.25320 97.000
80.27315 105.000
80.29309 99.000
80.31304 106.000
80.33299 99.000
80.35293 122.000
80.37288 98.000
80.39283 106.000
80.41278 138.000
80.43272 126.000
80.45267 116.000
80.47262 111.000
80.49256 104.000
80.51251 113.000
80.53246 131.000
80.55240 133.000
80.57235 143.000
80.59230 116.000
80.61224 111.000
80.63219 121.000
80.65214 108.000
80.67209 123.000
80.69203 121.000
80.71198 87.000
80.73193 86.000
80.75187 103.000
80.77182 109.000
80.79177 136.000
80.81171 107.000
80.83166 105.000
80.85161 118.000
80.87156 114.000
80.89150 98.000
80.91145 111.000
80.93140 117.000
80.95134 103.000
80.97129 106.000
80.99124 116.000
81.01118 86.000
81.03113 108.000
81.05108 106.000
81.07102 99.000
81.09097 110.000
81.11092 104.000
81.13087 101.000
81.15081 93.000
81.17076 97.000
81.19071 89.000
81.21065 103.000
81.23060 95.000
81.25055 87.000
81.27049 97.000
81.29044 100.000
81.31039 115.000
81.33034 96.000
81.35028 97.000
81.37023 96.000
81.39018 115.000
81.41012 96.000
81.43007 77.000
81.45002 98.000
81.46996 92.000
81.48991 95.000
81.50986 89.000
81.52980 98.000
81.54975 117.000
81.56970 111.000
81.58965 95.000
81.60959 113.000
81.62954 75.000
81.64949 115.000
81.66943 90.000
81.68938 85.000
81.70933 93.000
81.72927 80.000
81.74922 105.000
81.76917 112.000
81.78912 97.000
81.80906 103.000
81.82901 97.000
81.84896 92.000
81.86890 97.000
81.88885 94.000
81.90880 109.000
81.92874 95.000
81.94869 109.000
81.96864 95.000
81.98859 103.000
82.00853 95.000
82.02848 113.000
82.04843 109.000
82.06837 106.000
82.08832 112.000
82.10827 102.000
82.12821 116.000
82.14816 98.000
82.16811 103.000
82.18805 118.000
82.20800 113.000
82.22795 102.000
82.24790 109.000
82.26784 83.000
82.28779 117.000
82.30774 119.000
82.32768 116.000
82.34763 108.000
82.36758 107.000
82.38752 121.000
82.40747 86.000
82.42742 84.000
82.44737 104.000
82.46731 105.000
82.48726 106.000
82.50721 114.000
82.52715 109.000
82.54710 104.000
82.56705 121.000
82.58699 123.000
82.60694 92.000
82.62689 117.000
82.64683 100.000
82.66678 96.000
82.68673 104.000
82.70668 108.000
82.72662 101.000
82.74657 109.000
82.76652 110.000
82.78646 108.000
82.80641 108.000
82.82636 88.000
82.84630 85.000
82.86625 95.000
82.88620 115.000
82.90615 107.000
82.92609 109.000
82.94604 99.000
82.96599 107.000
82.98593 112.000
83.00588 111.000
83.02583 111.000
83.04577 119.000
83.06572 110.000
83.08567 105.000
83.10561 106.000
83.12556 121.000
83.14551 116.000
83.16546 107.000
83.18540 116.000
83.20535 94.000
83.22530 122.000
83.24524 124.000
83.26519 119.000
83.28514 100.000
83.30508 99.000
83.32503 91.000
83.34498 119.000
83.36493 119.000
83.38487 89.000
83.40482 99.000
83.42477 95.000
83.44471 85.000
83.46466 106.000
83.48461 106.000
83.50455 107.000
83.52450 128.000
83.54445 109.000
83.56440 114.000
83.58434 120.000
83.60429 108.000
83.62424 126.000
83.64418 110.000
83.66413 97.000
83.68408 105.000
83.70402 101.000
83.72397 104.000
83.74392 123.000
83.76386 108.000
83.78381 110.000
83.80376 108.000
83.82371 91.000
83.84365 105.000
83.86360 128.000
83.88355 112.000
83.90349 123.000
83.92344 120.000
83.94339 124.000
83.96333 116.000
83.98328 131.000
84.00323 121.000
84.02318 137.000
84.04312 143.000
84.06307 134.000
84.08302 151.000
84.10296 150.000
84.12291 188.000
84.14286 184.000
84.16280 177.000
84.18275 220.000
84.20270 189.000
84.22264 214.000
84.24259 205.000
84.26254 219.000
84.28249 221.000
84.30243 213.000
84.32238 235.000
84.34233 217.000
84.36227 232.000
84.38222 218.000
84.40217 199.000
84.42211 220.000
84.44206 224.000
84.46201 211.000
84.48196 191.000
84.50190 215.000
84.52185 189.000
84.54180 198.000
84.56174 187.000
84.58169 176.000
84.60164 168.000
84.62158 155.000
84.64153 178.000
84.66148 156.000
84.68142 148.000
84.70137 171.000
84.72132 141.000
84.74127 128.000
84.76121 125.000
84.78116 117.000
84.80111 147.000
84.82105 108.000
84.84100 132.000
84.86095 124.000
84.88089 140.000
84.90084 117.000
84.92079 126.000
84.94074 113.000
84.96068 104.000
84.98063 114.000
85.00058 97.000
85.02052 127.000
85.04047 114.000
85.06042 94.000
85.08036 113.000
85.10031 89.000
85.12026 107.000
85.14021 105.000
85.16015 115.000
85.18010 114.000
85.20005 97.000
85.21999 98.000
85.23994 119.000
85.25989 116.000
85.27983 132.000
85.29978 114.000
85.31973 109.000
85.33967 92.000
85.35962 91.000
85.37957 119.000
85.39952 99.000
85.41946 96.000
85.43941 93.000
85.45936 113.000
85.47930 86.000
85.49925 113.000
85.51920 91.000
85.53914 98.000
85.55909 109.000
85.57904 98.000
85.59899 118.000
85.61893 120.000
85.63888 96.000
85.65883 102.000
85.67877 86.000
85.69872 101.000
85.71867 83.000
85.73861 94.000
85.75856 87.000
85.77851 113.000
85.79845 103.000
85.81840 109.000
85.83835 107.000
85.85830 111.000
85.87824 114.000
85.89819 130.000
85.91814 119.000
85.93808 112.000
85.95803 120.000
85.97798 107.000
85.99792 109.000
86.01787 108.000
86.03782 122.000
86.05777 109.000
86.07771 107.000
86.09766 108.000
86.11761 122.000
86.13755 127.000
86.15750 142.000
86.17745 115.000
86.19739 118.000
86.21734 122.000
86.23729 125.000
86.25723 111.000
86.27718 100.000
86.29713 129.000
86.31708 126.000
86.33702 122.000
86.35697 108.000
86.37692 132.000
86.39686 100.000
86.41681 133.000
86.43676 122.000
86.45670 118.000
86.47665 111.000
86.49660 110.000
86.51655 105.000
86.53649 116.000
86.55644 109.000
86.57639 134.000
86.59633 123.000
86.61628 122.000
86.63623 128.000
86.65617 115.000
86.67612 117.000
86.69607 106.000
86.71602 134.000
86.73596 103.000
86.75591 145.000
86.77586 123.000
86.79580 115.000
86.81575 114.000
86.83570 103.000
86.85564 120.000
86.87559 108.000
86.89554 116.000
86.91548 110.000
86.93543 122.000
86.95538 101.000
86.97533 113.000
86.99527 102.000
87.01522 114.000
87.03517 115.000
87.05511 99.000
87.07506 106.000
87.09501 95.000
87.11495 118.000
87.13490 92.000
87.15485 109.000
87.17480 105.000
87.19474 100.000
87.21469 124.000
87.23464 132.000
87.25458 93.000
87.27453 123.000
87.29448 119.000
87.31442 98.000
87.33437 106.000
87.35432 100.000
87.37426 90.000
87.39421 115.000
87.41416 105.000
87.43411 106.000
87.45405 102.000
87.47400 90.000
87.49395 102.000
87.51389 102.000
87.53384 109.000
87.55379 106.000
87.57373 90.000
87.59368 90.000
87.61363 89.000
87.63358 99.000
87.65352 103.000
87.67347 106.000
87.69342 103.000
87.71336 93.000
87.73331 93.000
87.75326 114.000
87.77320 107.000
87.79315 114.000
87.81310 101.000
87.83304 115.000
87.85299 105.000
87.87294 105.000
87.89289 102.000
87.91283 92.000
87.93278 97.000
87.95273 95.000
87.97267 117.000
87.99262 111.000
88.01257 110.000
88.03251 112.000
88.05246 110.000
88.07241 97.000
88.09236 88.000
88.11230 101.000
88.13225 97.000
88.15220 97.000
88.17214 95.000
88.19209 96.000
88.21204 93.000
88.23198 101.000
88.25193 97.000
88.27188 92.000
88.29183 92.000
88.31177 91.000
88.33172 110.000
88.35167 86.000
88.37161 90.000
88.39156 107.000
88.41151 97.000
88.43145 98.000
88.45140 97.000
88.47135 101.000
88.49129 124.000
88.51124 109.000
88.53119 91.000
88.55114 92.000
88.57108 93.000
88.59103 113.000
88.61098 99.000
88.63092 96.000
88.65087 96.000
88.67082 94.000
88.69076 91.000
88.71071 102.000
88.73066 93.000
88.75061 113.000
88.77055 112.000
88.79050 82.000
88.81045 111.000
88.83039 100.000
88.85034 112.000
88.87029 101.000
88.89023 98.000
88.91018 95.000
88.93013 112.000
88.95007 89.000
88.97002 105.000
88.98997 103.000
89.00992 100.000
89.02986 112.000
89.04981 114.000
89.06976 87.000
89.08970 98.000
89.10965 102.000
89.12960 108.000
89.14954 118.000
89.16949 111.000
89.18944 95.000
89.20939 91.000
89.22933 93.000
89.24928 86.000
89.26923 107.000
89.28917 85.000
89.30912 90.000
89.32907 101.000
89.34901 107.000
89.36896 82.000
89.38891 102.000
89.40885 139.000
89.42880 111.000
89.44875 105.000
89.46870 91.000
89.48864 112.000
89.50859 94.000
89.52854 97.000
89.54848 97.000
89.56843 83.000
89.58838 104.000
89.60832 109.000
89.62827 95.000
89.64822 116.000
89.66817 100.000
89.68811 108.000
89.70806 93.000
89.72801 108.000
89.74795 107.000
89.76790 95.000
89.78785 101.000
89.80779 107.000
89.82774 108.000
89.84769 118.000
89.86764 104.000
89.88758 109.000
89.90753 119.000
89.92748 107.000
89.94742 100.000
89.96737 126.000
89.98732 103.000
90.00726 103.000
