10.00000 100.000
10.01995 100.000
10.03989 92.000
10.05984 92.000
10.07979 92.000
10.09973 93.000
10.11968 94.000
10.13963 90.000
10.15958 87.000
10.17952 92.000
10.19947 87.000
10.21942 92.000
10.23936 100.000
10.25931 98.000
10.27926 82.000
10.29920 75.000
10.31915 87.000
10.33910 87.000
10.35905 97.000
10.37899 100.000
10.39894 80.000
10.41889 93.000
10.43883 92.000
10.45878 88.000
10.47873 95.000
10.49867 93.000
10.51862 93.000
10.53857 92.000
10.55851 88.000
10.57846 82.000
10.59841 85.000
10.61836 82.000
10.63830 98.000
10.65825 104.000
10.67820 104.000
10.69814 88.000
10.71809 103.000
10.73804 75.000
10.75798 81.000
10.77793 107.000
10.79788 81.000
10.81783 94.000
10.83777 91.000
10.85772 65.000
10.87767 97.000
10.89761 96.000
10.91756 97.000
10.93751 94.000
10.95745 88.000
10.97740 96.000
10.99735 107.000
11.01730 86.000
11.03724 108.000
11.05719 80.000
11.07714 92.000
11.09708 106.000
11.11703 87.000
11.13698 94.000
11.15692 76.000
11.17687 84.000
11.19682 78.000
11.21676 79.000
11.23671 89.000
11.25666 103.000
11.27661 91.000
11.29655 85.000
11.31650 92.000
11.33645 91.000
11.35639 83.000
11.37634 79.000
11.39629 75.000
11.41623 95.000
11.43618 83.000
11.45613 89.000
11.47608 90.000
11.49602 93.000
11.51597 85.000
11.53592 85.000
11.55586 98.000
11.57581 101.000
11.59576 91.000
11.61570 98.000
11.63565 98.000
11.65560 103.000
11.67554 83.000
11.69549 86.000
11.71544 83.000
11.73539 89.000
11.75533 87.000
11.77528 101.000
11.79523 85.000
11.81517 75.000
11.83512 88.000
11.85507 88.000
11.87501 76.000
11.89496 98.000
11.91491 87.000
11.93486 98.000
11.95480 84.000
11.97475 97.000
11.99470 101.000
12.01464 106.000
12.03459 85.000
12.05454 92.000
12.07448 95.000
12.09443 90.000
12.11438 96.000
12.13432 93.000
12.15427 93.000
12.17422 87.000
12.19417 106.000
12.21411 92.000
12.23406 86.000
12.25401 98.000
12.27395 82.000
12.29390 91.000
12.31385 109.000
12.33379 80.000
12.35374 92.000
12.37369 101.000
12.39364 92.000
12.41358 85.000
12.43353 75.000
12.45348 122.000
12.47342 102.000
12.49337 103.000
12.51332 90.000
12.53326 96.000
12.55321 75.000
12.57316 77.000
12.59311 96.000
12.61305 86.000
12.63300 83.000
12.65295 84.000
12.67289 103.000
12.69284 83.000
12.71279 100.000
12.73273 97.000
12.75268 99.000
12.77263 90.000
12.79257 99.000
12.81252 90.000
12.83247 120.000
12.85242 95.000
12.87236 95.000
12.89231 105.000
12.91226 87.000
12.93220 94.000
12.95215 92.000
12.97210 98.000
12.99204 99.000
13.01199 98.000
13.03194 104.000
13.05189 104.000
13.07183 92.000
13.09178 90.000
13.11173 108.000
13.13167 87.000
13.15162 98.000
13.17157 100.000
13.19151 96.000
13.21146 87.000
13.23141 107.000
13.25135 85.000
13.27130 110.000
13.29125 117.000
13.31120 115.000
13.33114 102.000
13.35109 95.000
13.37104 107.000
13.39098 94.000
13.41093 96.000
13.43088 96.000
13.45082 99.000
13.47077 83.000
13.49072 102.000
13.51067 93.000
13.53061 89.000
13.55056 101.000
13.57051 89.000
13.59045 99.000
13.61040 96.000
13.63035 91.000
13.65029 109.000
13.67024 116.000
13.69019 79.000
13.71013 101.000
13.73008 100.000
13.75003 91.000
13.76998 106.000
13.78992 115.000
13.80987 95.000
13.82982 103.000
13.84976 100.000
13.86971 103.000
13.88966 91.000
13.90960 117.000
13.92955 118.000
13.94950 91.000
13.96945 111.000
13.98939 93.000
14.00934 107.000
14.02929 104.000
14.04923 111.000
14.06918 111.000
14.08913 99.000
14.10907 123.000
14.12902 122.000
14.14897 116.000
14.16892 115.000
14.18886 108.000
14.20881 114.000
14.22876 119.000
14.24870 126.000
14.26865 115.000
14.28860 100.000
14.30854 131.000
14.32849 93.000
14.34844 118.000
14.36838 123.000
14.38833 118.000
14.40828 121.000
14.42823 123.000
14.44817 100.000
14.46812 126.000
14.48807 115.000
14.50801 113.000
14.52796 128.000
14.54791 117.000
14.56785 112.000
14.58780 120.000
14.60775 115.000
14.62770 108.000
14.64764 146.000
14.66759 116.000
14.68754 122.000
14.70748 121.000
14.72743 123.000
14.74738 129.000
14.76732 118.000
14.78727 123.000
14.80722 138.000
14.82716 140.000
14.84711 143.000
14.86706 161.000
14.88701 145.000
14.90695 161.000
14.92690 157.000
14.94685 161.000
14.96679 138.000
14.98674 162.000
15.00669 176.000
15.02663 180.000
15.04658 198.000
15.06653 218.000
15.08648 211.000
15.10642 217.000
15.12637 189.000
15.14632 212.000
15.16626 190.000
15.18621 182.000
15.20616 194.000
15.22610 217.000
15.24605 232.000
15.26600 233.000
15.28594 247.000
15.30589 257.000
15.32584 231.000
15.34579 261.000
15.36573 290.000
15.38568 325.000
15.40563 325.000
15.42557 345.000
15.44552 386.000
15.46547 374.000
15.48541 362.000
15.50536 471.000
15.52531 544.000
15.54526 649.000
15.56520 748.000
15.58515 848.000
15.60510 1227.000
15.62504 1577.000
15.64499 2529.000
15.66494 3761.000
15.68488 6265.000
15.70483 10092.000
15.72478 15144.000
15.74472 19396.000
15.76467 18739.000
15.78462 14003.000
15.80457 9215.000
15.82451 4837.000
15.84446 2339.000
15.86441 1432.000
15.88435 888.000
15.90430 707.000
15.92425 539.000
15.94419 449.000
15.96414 411.000
15.98409 372.000
16.00404 344.000
16.02398 298.000
16.04393 268.000
16.06388 265.000
16.08382 238.000
16.10377 242.000
16.12372 247.000
16.14366 228.000
16.16361 210.000
16.18356 194.000
16.20351 222.000
16.22345 185.000
16.24340 185.000
16.26335 153.000
16.28329 195.000
16.30324 187.000
16.32319 152.000
16.34313 147.000
16.36308 159.000
16.38303 157.000
16.40297 160.000
16.42292 137.000
16.44287 138.000
16.46282 146.000
16.48276 152.000
16.50271 138.000
16.52266 128.000
16.54260 127.000
16.56255 125.000
16.58250 118.000
16.60244 115.000
16.62239 124.000
16.64234 125.000
16.66229 102.000
16.68223 121.000
16.70218 118.000
16.72213 108.000
16.74207 99.000
16.76202 87.000
16.78197 129.000
16.80191 111.000
16.82186 106.000
16.84181 102.000
16.86175 116.000
16.88170 97.000
16.90165 111.000
16.92160 94.000
16.94154 107.000
16.96149 108.000
16.98144 100.000
17.00138 105.000
17.02133 96.000
17.04128 112.000
17.06122 82.000
17.08117 92.000
17.10112 119.000
17.12107 98.000
17.14101 81.000
17.16096 91.000
17.18091 85.000
17.20085 118.000
17.22080 103.000
17.24075 100.000
17.26069 86.000
17.28064 96.000
17.30059 91.000
17.32053 93.000
17.34048 77.000
17.36043 94.000
17.38038 99.000
17.40032 88.000
17.42027 93.000
17.44022 94.000
17.46016 102.000
17.48011 90.000
17.50006 102.000
17.52000 93.000
17.53995 95.000
17.55990 105.000
17.57985 92.000
17.59979 94.000
17.61974 70.000
17.63969 90.000
17.65963 93.000
17.67958 96.000
17.69953 97.000
17.71947 79.000
17.73942 116.000
17.75937 106.000
17.77932 91.000
17.79926 98.000
17.81921 87.000
17.83916 86.000
17.85910 77.000
17.87905 85.000
17.89900 103.000
17.91894 103.000
17.93889 75.000
17.95884 83.000
17.97878 83.000
17.99873 99.000
18.01868 89.000
18.03863 101.000
18.05857 95.000
18.07852 96.000
18.09847 89.000
18.11841 86.000
18.13836 91.000
18.15831 89.000
18.17825 89.000
18.19820 100.000
18.21815 101.000
18.23810 101.000
18.25804 109.000
18.27799 124.000
18.29794 133.000
18.31788 157.000
18.33783 148.000
18.35778 180.000
18.37772 169.000
18.39767 136.000
18.41762 131.000
18.43756 99.000
18.45751 117.000
18.47746 89.000
18.49741 84.000
18.51735 83.000
18.53730 86.000
18.55725 95.000
18.57719 99.000
18.59714 91.000
18.61709 75.000
18.63703 96.000
18.65698 102.000
18.67693 88.000
18.69688 89.000
18.71682 112.000
18.73677 77.000
18.75672 88.000
18.77666 78.000
18.79661 83.000
18.81656 101.000
18.83650 90.000
18.85645 93.000
18.87640 104.000
18.89634 103.000
18.91629 81.000
18.93624 99.000
18.95619 102.000
18.97613 87.000
18.99608 96.000
19.01603 102.000
19.03597 82.000
19.05592 72.000
19.07587 83.000
19.09581 115.000
19.11576 91.000
19.13571 82.000
19.15566 86.000
19.17560 87.000
19.19555 90.000
19.21550 97.000
19.23544 83.000
19.25539 84.000
19.27534 74.000
19.29528 80.000
19.31523 96.000
19.33518 88.000
19.35513 86.000
19.37507 81.000
19.39502 89.000
19.41497 98.000
19.43491 95.000
19.45486 89.000
19.47481 80.000
19.49475 94.000
19.51470 95.000
19.53465 92.000
19.55459 83.000
19.57454 87.000
19.59449 77.000
19.61444 88.000
19.63438 77.000
19.65433 97.000
19.67428 83.000
19.69422 99.000
19.71417 63.000
19.73412 80.000
19.75406 87.000
19.77401 83.000
19.79396 87.000
19.81391 110.000
19.83385 91.000
19.85380 88.000
19.87375 82.000
19.89369 87.000
19.91364 89.000
19.93359 105.000
19.95353 90.000
19.97348 87.000
19.99343 82.000
20.01337 89.000
20.03332 95.000
20.05327 95.000
20.07322 90.000
20.09316 91.000
20.11311 97.000
20.13306 72.000
20.15300 88.000
20.17295 96.000
20.19290 79.000
20.21284 95.000
20.23279 90.000
20.25274 85.000
20.27269 86.000
20.29263 106.000
20.31258 85.000
20.33253 99.000
20.35247 68.000
20.37242 102.000
20.39237 75.000
20.41231 88.000
20.43226 102.000
20.45221 110.000
20.47215 82.000
20.49210 84.000
20.51205 93.000
20.53200 83.000
20.55194 99.000
20.57189 96.000
20.59184 102.000
20.61178 77.000
20.63173 102.000
20.65168 100.000
20.67162 85.000
20.69157 85.000
20.71152 98.000
20.73147 89.000
20.75141 84.000
20.77136 106.000
20.79131 87.000
20.81125 83.000
20.83120 99.000
20.85115 89.000
20.87109 110.000
20.89104 100.000
20.91099 100.000
20.93094 85.000
20.95088 109.000
20.97083 88.000
20.99078 99.000
21.01072 100.000
21.03067 91.000
21.05062 93.000
21.07056 116.000
21.09051 96.000
21.11046 117.000
21.13040 109.000
21.15035 127.000
21.17030 108.000
21.19025 108.000
21.21019 83.000
21.23014 92.000
21.25009 85.000
21.27003 86.000
21.28998 87.000
21.30993 85.000
21.32987 89.000
21.34982 108.000
21.36977 93.000
21.38972 92.000
21.40966 100.000
21.42961 90.000
21.44956 86.000
21.46950 79.000
21.48945 86.000
21.50940 88.000
21.52934 102.000
21.54929 98.000
21.56924 91.000
21.58918 106.000
21.60913 87.000
21.62908 84.000
21.64903 82.000
21.66897 76.000
21.68892 102.000
21.70887 87.000
21.72881 83.000
21.74876 92.000
21.76871 96.000
21.78865 74.000
21.80860 113.000
21.82855 99.000
21.84850 89.000
21.86844 85.000
21.88839 79.000
21.90834 102.000
21.92828 80.000
21.94823 87.000
21.96818 88.000
21.98812 115.000
22.00807 86.000
22.02802 94.000
22.04796 100.000
22.06791 94.000
22.08786 105.000
22.10781 76.000
22.12775 80.000
22.14770 90.000
22.16765 98.000
22.18759 81.000
22.20754 90.000
22.22749 87.000
22.24743 100.000
22.26738 106.000
22.28733 95.000
22.30728 84.000
22.32722 73.000
22.34717 100.000
22.36712 91.000
22.38706 88.000
22.40701 85.000
22.42696 92.000
22.44690 82.000
22.46685 96.000
22.48680 96.000
22.50675 105.000
22.52669 102.000
22.54664 99.000
22.56659 81.000
22.58653 95.000
22.60648 77.000
22.62643 91.000
22.64637 95.000
22.66632 86.000
22.68627 96.000
22.70621 82.000
22.72616 95.000
22.74611 91.000
22.76606 94.000
22.78600 92.000
22.80595 109.000
22.82590 100.000
22.84584 85.000
22.86579 90.000
22.88574 93.000
22.90568 78.000
22.92563 97.000
22.94558 100.000
22.96553 87.000
22.98547 80.000
23.00542 90.000
23.02537 77.000
23.04531 102.000
23.06526 91.000
23.08521 91.000
23.10515 104.000
23.12510 96.000
23.14505 91.000
23.16499 79.000
23.18494 99.000
23.20489 73.000
23.22484 95.000
23.24478 98.000
23.26473 100.000
23.28468 96.000
23.30462 93.000
23.32457 94.000
23.34452 79.000
23.36446 101.000
23.38441 86.000
23.40436 94.000
23.42431 87.000
23.44425 89.000
23.46420 78.000
23.48415 109.000
23.50409 99.000
23.52404 82.000
23.54399 78.000
23.56393 88.000
23.58388 89.000
23.60383 99.000
23.62377 89.000
23.64372 101.000
23.66367 73.000
23.68362 77.000
23.70356 117.000
23.72351 109.000
23.74346 76.000
23.76340 99.000
23.78335 95.000
23.80330 77.000
23.82324 96.000
23.84319 96.000
23.86314 99.000
23.88309 93.000
23.90303 102.000
23.92298 103.000
23.94293 107.000
23.96287 105.000
23.98282 101.000
24.00277 104.000
24.02271 102.000
24.04266 101.000
24.06261 86.000
24.08256 82.000
24.10250 94.000
24.12245 85.000
24.14240 106.000
24.16234 96.000
24.18229 102.000
24.20224 122.000
24.22218 83.000
24.24213 102.000
24.26208 106.000
24.28202 80.000
24.30197 105.000
24.32192 109.000
24.34187 100.000
24.36181 86.000
24.38176 63.000
24.40171 101.000
24.42165 103.000
24.44160 89.000
24.46155 99.000
24.48149 92.000
24.50144 101.000
24.52139 81.000
24.54134 76.000
24.56128 91.000
24.58123 100.000
24.60118 86.000
24.62112 104.000
24.64107 104.000
24.66102 105.000
24.68096 102.000
24.70091 106.000
24.72086 101.000
24.74080 108.000
24.76075 89.000
24.78070 88.000
24.80065 103.000
24.82059 100.000
24.84054 93.000
24.86049 112.000
24.88043 90.000
24.90038 99.000
24.92033 101.000
24.94027 85.000
24.96022 108.000
24.98017 101.000
25.00012 110.000
25.02006 101.000
25.04001 87.000
25.05996 90.000
25.07990 99.000
25.09985 95.000
25.11980 123.000
25.13974 88.000
25.15969 90.000
25.17964 87.000
25.19958 95.000
25.21953 82.000
25.23948 111.000
25.25943 93.000
25.27937 87.000
25.29932 92.000
25.31927 84.000
25.33921 112.000
25.35916 97.000
25.37911 94.000
25.39905 87.000
25.41900 109.000
25.43895 92.000
25.45890 101.000
25.47884 108.000
25.49879 110.000
25.51874 91.000
25.53868 93.000
25.55863 94.000
25.57858 82.000
25.59852 110.000
25.61847 83.000
25.63842 94.000
25.65837 103.000
25.67831 102.000
25.69826 82.000
25.71821 93.000
25.73815 102.000
25.75810 99.000
25.77805 116.000
25.79799 90.000
25.81794 100.000
25.83789 105.000
25.85783 100.000
25.87778 105.000
25.89773 110.000
25.91768 85.000
25.93762 114.000
25.95757 97.000
25.97752 84.000
25.99746 80.000
26.01741 89.000
26.03736 100.000
26.05730 95.000
26.07725 96.000
26.09720 112.000
26.11715 103.000
26.13709 118.000
26.15704 104.000
26.17699 87.000
26.19693 109.000
26.21688 96.000
26.23683 88.000
26.25677 100.000
26.27672 85.000
26.29667 111.000
26.31661 100.000
26.33656 77.000
26.35651 112.000
26.37646 100.000
26.39640 102.000
26.41635 85.000
26.43630 105.000
26.45624 98.000
26.47619 110.000
26.49614 93.000
26.51608 83.000
26.53603 82.000
26.55598 104.000
26.57593 103.000
26.59587 90.000
26.61582 98.000
26.63577 98.000
26.65571 99.000
26.67566 92.000
26.69561 93.000
26.71555 102.000
26.73550 101.000
26.75545 88.000
26.77539 100.000
26.79534 82.000
26.81529 82.000
26.83524 115.000
26.85518 105.000
26.87513 109.000
26.89508 91.000
26.91502 115.000
26.93497 110.000
26.95492 99.000
26.97486 122.000
26.99481 98.000
27.01476 93.000
27.03471 89.000
27.05465 69.000
27.07460 116.000
27.09455 97.000
27.11449 115.000
27.13444 106.000
27.15439 107.000
27.17433 83.000
27.19428 103.000
27.21423 98.000
27.23417 117.000
27.25412 100.000
27.27407 91.000
27.29402 89.000
27.31396 95.000
27.33391 96.000
27.35386 85.000
27.37380 111.000
27.39375 97.000
27.41370 105.000
27.43364 101.000
27.45359 95.000
27.47354 88.000
27.49349 125.000
27.51343 112.000
27.53338 81.000
27.55333 84.000
27.57327 108.000
27.59322 108.000
27.61317 88.000
27.63311 91.000
27.65306 98.000
27.67301 102.000
27.69296 121.000
27.71290 100.000
27.73285 100.000
27.75280 113.000
27.77274 109.000
27.79269 117.000
27.81264 100.000
27.83258 104.000
27.85253 118.000
27.87248 91.000
27.89242 91.000
27.91237 86.000
27.93232 114.000
27.95227 100.000
27.97221 87.000
27.99216 81.000
28.01211 87.000
28.03205 122.000
28.05200 96.000
28.07195 102.000
28.09189 89.000
28.11184 87.000
28.13179 94.000
28.15174 85.000
28.17168 92.000
28.19163 107.000
28.21158 103.000
28.23152 83.000
28.25147 91.000
28.27142 95.000
28.29136 100.000
28.31131 111.000
28.33126 112.000
28.35120 89.000
28.37115 106.000
28.39110 96.000
28.41105 106.000
28.43099 96.000
28.45094 89.000
28.47089 105.000
28.49083 102.000
28.51078 98.000
28.53073 104.000
28.55067 100.000
28.57062 99.000
28.59057 99.000
28.61052 105.000
28.63046 98.000
28.65041 105.000
28.67036 94.000
28.69030 118.000
28.71025 95.000
28.73020 114.000
28.75014 108.000
28.77009 94.000
28.79004 113.000
28.80998 95.000
28.82993 97.000
28.84988 101.000
28.86983 83.000
28.88977 96.000
28.90972 92.000
28.92967 99.000
28.94961 101.000
28.96956 111.000
28.98951 99.000
29.00945 83.000
29.02940 97.000
29.04935 107.000
29.06930 97.000
29.08924 96.000
29.10919 99.000
29.12914 100.000
29.14908 113.000
29.16903 98.000
29.18898 94.000
29.20892 113.000
29.22887 105.000
29.24882 106.000
29.26877 110.000
29.28871 101.000
29.30866 105.000
29.32861 90.000
29.34855 94.000
29.36850 124.000
29.38845 111.000
29.40839 104.000
29.42834 112.000
29.44829 96.000
29.46823 110.000
29.48818 97.000
29.50813 100.000
29.52808 91.000
29.54802 86.000
29.56797 96.000
29.58792 93.000
29.60786 94.000
29.62781 107.000
29.64776 100.000
29.66770 117.000
29.68765 105.000
29.70760 104.000
29.72755 94.000
29.74749 103.000
29.76744 111.000
29.78739 102.000
29.80733 94.000
29.82728 110.000
29.84723 104.000
29.86717 110.000
29.88712 82.000
29.90707 118.000
29.92701 106.000
29.94696 108.000
29.96691 112.000
29.98686 119.000
30.00680 103.000
30.02675 125.000
30.04670 143.000
30.06664 141.000
30.08659 146.000
30.10654 187.000
30.12648 173.000
30.14643 181.000
30.16638 168.000
30.18633 214.000
30.20627 199.000
30.22622 208.000
30.24617 196.000
30.26611 171.000
30.28606 163.000
30.30601 153.000
30.32595 130.000
30.34590 132.000
30.36585 133.000
30.38579 122.000
30.40574 115.000
30.42569 121.000
30.44564 109.000
30.46558 124.000
30.48553 101.000
30.50548 98.000
30.52542 118.000
30.54537 122.000
30.56532 88.000
30.58526 105.000
30.60521 111.000
30.62516 93.000
30.64511 100.000
30.66505 104.000
30.68500 139.000
30.70495 95.000
30.72489 112.000
30.74484 101.000
30.76479 111.000
30.78473 92.000
30.80468 79.000
30.82463 89.000
30.84458 103.000
30.86452 91.000
30.88447 94.000
30.90442 100.000
30.92436 109.000
30.94431 124.000
30.96426 105.000
30.98420 129.000
31.00415 107.000
31.02410 116.000
31.04404 108.000
31.06399 99.000
31.08394 120.000
31.10389 103.000
31.12383 114.000
31.14378 103.000
31.16373 101.000
31.18367 115.000
31.20362 109.000
31.22357 107.000
31.24351 105.000
31.26346 103.000
31.28341 107.000
31.30336 105.000
31.32330 113.000
31.34325 110.000
31.36320 121.000
31.38314 105.000
31.40309 147.000
31.42304 119.000
31.44298 111.000
31.46293 119.000
31.48288 125.000
31.50282 150.000
31.52277 151.000
31.54272 162.000
31.56267 143.000
31.58261 171.000
31.60256 187.000
31.62251 205.000
31.64245 226.000
31.66240 300.000
31.68235 384.000
31.70229 485.000
31.72224 659.000
31.74219 904.000
31.76214 1069.000
31.78208 1278.000
31.80203 1231.000
31.82198 990.000
31.84192 957.000
31.86187 928.000
31.88182 706.000
31.90176 518.000
31.92171 453.000
31.94166 315.000
31.96160 234.000
31.98155 197.000
32.00150 180.000
32.02145 164.000
32.04139 158.000
32.06134 128.000
32.08129 128.000
32.10123 129.000
32.12118 131.000
32.14113 124.000
32.16107 109.000
32.18102 122.000
32.20097 132.000
32.22092 114.000
32.24086 103.000
32.26081 123.000
32.28076 117.000
32.30070 113.000
32.32065 124.000
32.34060 119.000
32.36054 120.000
32.38049 115.000
32.40044 103.000
32.42039 117.000
32.44033 116.000
32.46028 124.000
32.48023 154.000
32.50017 119.000
32.52012 128.000
32.54007 94.000
32.56001 117.000
32.57996 123.000
32.59991 121.000
32.61985 117.000
32.63980 90.000
32.65975 99.000
32.67970 116.000
32.69964 89.000
32.71959 100.000
32.73954 108.000
32.75948 96.000
32.77943 102.000
32.79938 103.000
32.81932 109.000
32.83927 111.000
32.85922 115.000
32.87917 112.000
32.89911 119.000
32.91906 110.000
32.93901 116.000
32.95895 103.000
32.97890 103.000
32.99885 111.000
33.01879 117.000
33.03874 126.000
33.05869 117.000
33.07863 109.000
33.09858 116.000
33.11853 113.000
33.13848 109.000
33.15842 102.000
33.17837 105.000
33.19832 78.000
33.21826 125.000
33.23821 116.000
33.25816 99.000
33.27810 116.000
33.29805 103.000
33.31800 80.000
33.33795 114.000
33.35789 105.000
33.37784 116.000
33.39779 91.000
33.41773 95.000
33.43768 114.000
33.45763 103.000
33.47757 100.000
33.49752 97.000
33.51747 100.000
33.53741 95.000
33.55736 119.000
33.57731 117.000
33.59726 97.000
33.61720 102.000
33.63715 112.000
33.65710 106.000
33.67704 88.000
33.69699 114.000
33.71694 93.000
33.73688 100.000
33.75683 124.000
33.77678 110.000
33.79673 103.000
33.81667 88.000
33.83662 95.000
33.85657 91.000
33.87651 92.000
33.89646 116.000
33.91641 128.000
33.93635 101.000
33.95630 100.000
33.97625 115.000
33.99620 89.000
34.01614 116.000
34.03609 101.000
34.05604 95.000
34.07598 93.000
34.09593 122.000
34.11588 122.000
34.13582 113.000
34.15577 113.000
34.17572 97.000
34.19566 111.000
34.21561 122.000
34.23556 102.000
34.25551 122.000
34.27545 104.000
34.29540 107.000
34.31535 106.000
34.33529 102.000
34.35524 119.000
34.37519 93.000
34.39513 110.000
34.41508 97.000
34.43503 121.000
34.45498 119.000
34.47492 108.000
34.49487 106.000
34.51482 120.000
34.53476 122.000
34.55471 102.000
34.57466 93.000
34.59460 126.000
34.61455 127.000
34.63450 132.000
34.65444 123.000
34.67439 106.000
34.69434 129.000
34.71429 100.000
34.73423 117.000
34.75418 109.000
34.77413 126.000
34.79407 104.000
34.81402 104.000
34.83397 107.000
34.85391 103.000
34.87386 124.000
34.89381 95.000
34.91376 108.000
34.93370 99.000
34.95365 115.000
34.97360 120.000
34.99354 108.000
35.01349 124.000
35.03344 96.000
35.05338 126.000
35.07333 129.000
35.09328 103.000
35.11322 103.000
35.13317 137.000
35.15312 114.000
35.17307 119.000
35.19301 126.000
35.21296 122.000
35.23291 138.000
35.25285 143.000
35.27280 134.000
35.29275 153.000
35.31269 150.000
35.33264 193.000
35.35259 160.000
35.37254 164.000
35.39248 219.000
35.41243 267.000
35.43238 318.000
35.45232 323.000
35.47227 354.000
35.49222 365.000
35.51216 429.000
35.53211 518.000
35.55206 551.000
35.57201 483.000
35.59195 472.000
35.61190 462.000
35.63185 416.000
35.65179 372.000
35.67174 349.000
35.69169 385.000
35.71163 288.000
35.73158 310.000
35.75153 326.000
35.77147 401.000
35.79142 477.000
35.81137 691.000
35.83132 955.000
35.85126 1208.000
35.87121 1316.000
35.89116 1088.000
35.91110 1019.000
35.93105 945.000
35.95100 930.000
35.97094 752.000
35.99089 579.000
36.01084 433.000
36.03079 388.000
36.05073 294.000
36.07068 231.000
36.09063 203.000
36.11057 166.000
36.13052 164.000
36.15047 177.000
36.17041 154.000
36.19036 133.000
36.21031 142.000
36.23025 105.000
36.25020 126.000
36.27015 136.000
36.29010 137.000
36.31004 123.000
36.32999 135.000
36.34994 142.000
36.36988 131.000
36.38983 112.000
36.40978 120.000
36.42972 101.000
36.44967 104.000
36.46962 111.000
36.48957 122.000
36.50951 132.000
36.52946 106.000
36.54941 117.000
36.56935 123.000
36.58930 115.000
36.60925 139.000
36.62919 125.000
36.64914 134.000
36.66909 130.000
36.68903 148.000
36.70898 150.000
36.72893 180.000
36.74888 234.000
36.76882 231.000
36.78877 209.000
36.80872 210.000
36.82866 240.000
36.84861 208.000
36.86856 194.000
36.88850 177.000
36.90845 161.000
36.92840 155.000
36.94835 149.000
36.96829 114.000
36.98824 129.000
37.00819 105.000
37.02813 121.000
37.04808 117.000
37.06803 139.000
37.08797 109.000
37.10792 136.000
37.12787 137.000
37.14781 123.000
37.16776 129.000
37.18771 151.000
37.20766 130.000
37.22760 129.000
37.24755 136.000
37.26750 129.000
37.28744 116.000
37.30739 129.000
37.32734 112.000
37.34728 121.000
37.36723 113.000
37.38718 137.000
37.40713 117.000
37.42707 113.000
37.44702 100.000
37.46697 113.000
37.48691 93.000
37.50686 114.000
37.52681 127.000
37.54675 115.000
37.56670 88.000
37.58665 97.000
37.60660 95.000
37.62654 118.000
37.64649 115.000
37.66644 112.000
37.68638 120.000
37.70633 98.000
37.72628 107.000
37.74622 102.000
37.76617 119.000
37.78612 121.000
37.80606 106.000
37.82601 95.000
37.84596 113.000
37.86591 120.000
37.88585 112.000
37.90580 129.000
37.92575 115.000
37.94569 95.000
37.96564 125.000
37.98559 102.000
38.00553 125.000
38.02548 109.000
38.04543 123.000
38.06538 121.000
38.08532 124.000
38.10527 119.000
38.12522 116.000
38.14516 106.000
38.16511 105.000
38.18506 111.000
38.20500 99.000
38.22495 96.000
38.24490 112.000
38.26484 116.000
38.28479 117.000
38.30474 100.000
38.32469 122.000
38.34463 114.000
38.36458 131.000
38.38453 125.000
38.40447 118.000
38.42442 115.000
38.44437 118.000
38.46431 96.000
38.48426 125.000
38.50421 132.000
38.52416 141.000
38.54410 130.000
38.56405 123.000
38.58400 141.000
38.60394 147.000
38.62389 148.000
38.64384 194.000
38.66378 226.000
38.68373 225.000
38.70368 215.000
38.72362 227.000
38.74357 203.000
38.76352 218.000
38.78347 179.000
38.80341 225.000
38.82336 207.000
38.84331 163.000
38.86325 163.000
38.88320 182.000
38.90315 141.000
38.92309 179.000
38.94304 170.000
38.96299 150.000
38.98294 182.000
39.00288 181.000
39.02283 203.000
39.04278 185.000
39.06272 224.000
39.08267 212.000
39.10262 224.000
39.12256 221.000
39.14251 264.000
39.16246 248.000
39.18241 278.000
39.20235 334.000
39.22230 347.000
39.24225 407.000
39.26219 491.000
39.28214 699.000
39.30209 814.000
39.32203 1127.000
39.34198 1624.000
39.36193 1995.000
39.38187 2322.000
39.40182 2002.000
39.42177 1787.000
39.44172 1680.000
39.46166 1616.000
39.48161 1460.000
39.50156 1234.000
39.52150 1031.000
39.54145 799.000
39.56140 608.000
39.58134 462.000
39.60129 408.000
39.62124 299.000
39.64119 296.000
39.66113 303.000
39.68108 208.000
39.70103 216.000
39.72097 200.000
39.74092 200.000
39.76087 174.000
39.78081 168.000
39.80076 179.000
39.82071 155.000
39.84065 165.000
39.86060 144.000
39.88055 144.000
39.90050 132.000
39.92044 154.000
39.94039 149.000
39.96034 117.000
39.98028 129.000
40.00023 121.000
40.02018 134.000
40.04012 147.000
40.06007 135.000
40.08002 109.000
40.09997 135.000
40.11991 123.000
40.13986 127.000
40.15981 142.000
40.17975 133.000
40.19970 126.000
40.21965 107.000
40.23959 107.000
40.25954 109.000
40.27949 101.000
40.29943 92.000
40.31938 119.000
40.33933 121.000
40.35928 138.000
40.37922 119.000
40.39917 122.000
40.41912 82.000
40.43906 115.000
40.45901 113.000
40.47896 104.000
40.49890 123.000
40.51885 96.000
40.53880 108.000
40.55875 107.000
40.57869 104.000
40.59864 99.000
40.61859 112.000
40.63853 91.000
40.65848 102.000
40.67843 99.000
40.69837 116.000
40.71832 111.000
40.73827 78.000
40.75822 130.000
40.77816 105.000
40.79811 93.000
40.81806 109.000
40.83800 101.000
40.85795 105.000
40.87790 89.000
40.89784 97.000
40.91779 113.000
40.93774 97.000
40.95768 86.000
40.97763 112.000
40.99758 115.000
41.01753 92.000
41.03747 118.000
41.05742 93.000
41.07737 105.000
41.09731 93.000
41.11726 115.000
41.13721 125.000
41.15715 115.000
41.17710 106.000
41.19705 97.000
41.21700 110.000
41.23694 92.000
41.25689 100.000
41.27684 104.000
41.29678 93.000
41.31673 121.000
41.33668 111.000
41.35662 109.000
41.37657 103.000
41.39652 118.000
41.41646 106.000
41.43641 106.000
41.45636 110.000
41.47631 102.000
41.49625 102.000
41.51620 118.000
41.53615 104.000
41.55609 103.000
41.57604 138.000
41.59599 107.000
41.61593 92.000
41.63588 92.000
41.65583 95.000
41.67578 96.000
41.69572 88.000
41.71567 110.000
41.73562 107.000
41.75556 102.000
41.77551 106.000
41.79546 102.000
41.81540 110.000
41.83535 113.000
41.85530 108.000
41.87524 105.000
41.89519 119.000
41.91514 95.000
41.93509 103.000
41.95503 109.000
41.97498 94.000
41.99493 105.000
42.01487 115.000
42.03482 110.000
42.05477 119.000
42.07471 98.000
42.09466 105.000
42.11461 119.000
42.13456 111.000
42.15450 97.000
42.17445 102.000
42.19440 101.000
42.21434 110.000
42.23429 93.000
42.25424 103.000
42.27418 104.000
42.29413 92.000
42.31408 131.000
42.33403 92.000
42.35397 115.000
42.37392 98.000
42.39387 95.000
42.41381 107.000
42.43376 93.000
42.45371 108.000
42.47365 98.000
42.49360 93.000
42.51355 101.000
42.53349 128.000
42.55344 107.000
42.57339 99.000
42.59334 104.000
42.61328 122.000
42.63323 103.000
42.65318 91.000
42.67312 113.000
42.69307 110.000
42.71302 119.000
42.73296 107.000
42.75291 114.000
42.77286 113.000
42.79281 93.000
42.81275 123.000
42.83270 121.000
42.85265 115.000
42.87259 94.000
42.89254 109.000
42.91249 140.000
42.93243 119.000
42.95238 131.000
42.97233 118.000
42.99227 124.000
43.01222 151.000
43.03217 134.000
43.05212 163.000
43.07206 150.000
43.09201 174.000
43.11196 154.000
43.13190 181.000
43.15185 183.000
43.17180 205.000
43.19174 204.000
43.21169 181.000
43.23164 218.000
43.25159 240.000
43.27153 249.000
43.29148 265.000
43.31143 326.000
43.33137 299.000
43.35132 367.000
43.37127 478.000
43.39121 607.000
43.41116 775.000
43.43111 920.000
43.45105 828.000
43.47100 747.000
43.49095 656.000
43.51090 600.000
43.53084 618.000
43.55079 646.000
43.57074 485.000
43.59068 458.000
43.61063 333.000
43.63058 307.000
43.65052 256.000
43.67047 207.000
43.69042 191.000
43.71037 150.000
43.73031 165.000
43.75026 162.000
43.77021 155.000
43.79015 154.000
43.81010 135.000
43.83005 122.000
43.84999 140.000
43.86994 122.000
43.88989 111.000
43.90984 115.000
43.92978 128.000
43.94973 107.000
43.96968 124.000
43.98962 111.000
44.00957 113.000
44.02952 100.000
44.04946 122.000
44.06941 98.000
44.08936 118.000
44.10930 100.000
44.12925 107.000
44.14920 102.000
44.16915 121.000
44.18909 113.000
44.20904 104.000
44.22899 121.000
44.24893 129.000
44.26888 97.000
44.28883 90.000
44.30877 92.000
44.32872 118.000
44.34867 125.000
44.36862 103.000
44.38856 92.000
44.40851 109.000
44.42846 115.000
44.44840 93.000
44.46835 107.000
44.48830 98.000
44.50824 93.000
44.52819 91.000
44.54814 89.000
44.56808 98.000
44.58803 102.000
44.60798 90.000
44.62793 108.000
44.64787 83.000
44.66782 107.000
44.68777 109.000
44.70771 119.000
44.72766 101.000
44.74761 90.000
44.76755 86.000
44.78750 107.000
44.80745 99.000
44.82740 114.000
44.84734 97.000
44.86729 86.000
44.88724 91.000
44.90718 111.000
44.92713 89.000
44.94708 89.000
44.96702 98.000
44.98697 113.000
45.00692 90.000
45.02686 109.000
45.04681 115.000
45.06676 111.000
45.08671 116.000
45.10665 98.000
45.12660 86.000
45.14655 104.000
45.16649 97.000
45.18644 106.000
45.20639 105.000
45.22633 116.000
45.24628 93.000
45.26623 112.000
45.28618 114.000
45.30612 93.000
45.32607 104.000
45.34602 110.000
45.36596 91.000
45.38591 106.000
45.40586 93.000
45.42580 102.000
45.44575 113.000
45.46570 124.000
45.48565 83.000
45.50559 90.000
45.52554 111.000
45.54549 95.000
45.56543 114.000
45.58538 96.000
45.60533 80.000
45.62527 84.000
45.64522 99.000
45.66517 92.000
45.68511 101.000
45.70506 83.000
45.72501 102.000
45.74496 83.000
45.76490 90.000
45.78485 89.000
45.80480 92.000
45.82474 102.000
45.84469 113.000
45.86464 101.000
45.88458 111.000
45.90453 85.000
45.92448 103.000
45.94443 101.000
45.96437 98.000
45.98432 100.000
46.00427 116.000
46.02421 90.000
46.04416 85.000
46.06411 119.000
46.08405 79.000
46.10400 102.000
46.12395 100.000
46.14389 97.000
46.16384 106.000
46.18379 83.000
46.20374 100.000
46.22368 113.000
46.24363 98.000
46.26358 90.000
46.28352 82.000
46.30347 98.000
46.32342 92.000
46.34336 113.000
46.36331 113.000
46.38326 128.000
46.40321 103.000
46.42315 98.000
46.44310 112.000
46.46305 90.000
46.48299 125.000
46.50294 107.000
46.52289 116.000
46.54283 100.000
46.56278 98.000
46.58273 109.000
46.60267 112.000
46.62262 101.000
46.64257 106.000
46.66252 94.000
46.68246 122.000
46.70241 106.000
46.72236 96.000
46.74230 120.000
46.76225 93.000
46.78220 112.000
46.80214 101.000
46.82209 86.000
46.84204 98.000
46.86199 87.000
46.88193 109.000
46.90188 95.000
46.92183 110.000
46.94177 102.000
46.96172 104.000
46.98167 110.000
47.00161 89.000
47.02156 101.000
47.04151 100.000
47.06146 96.000
47.08140 99.000
47.10135 116.000
47.12130 107.000
47.14124 106.000
47.16119 110.000
47.18114 88.000
47.20108 99.000
47.22103 111.000
47.24098 116.000
47.26092 100.000
47.28087 109.000
47.30082 122.000
47.32077 78.000
47.34071 111.000
47.36066 114.000
47.38061 111.000
47.40055 114.000
47.42050 108.000
47.44045 105.000
47.46039 110.000
47.48034 99.000
47.50029 104.000
47.52024 110.000
47.54018 103.000
47.56013 94.000
47.58008 107.000
47.60002 106.000
47.61997 120.000
47.63992 124.000
47.65986 98.000
47.67981 120.000
47.69976 111.000
47.71970 95.000
47.73965 118.000
47.75960 117.000
47.77955 120.000
47.79949 115.000
47.81944 126.000
47.83939 108.000
47.85933 125.000
47.87928 134.000
47.89923 131.000
47.91917 119.000
47.93912 121.000
47.95907 121.000
47.97902 138.000
47.99896 127.000
48.01891 107.000
48.03886 128.000
48.05880 144.000
48.07875 141.000
48.09870 122.000
48.11864 130.000
48.13859 160.000
48.15854 150.000
48.17848 185.000
48.19843 134.000
48.21838 164.000
48.23833 172.000
48.25827 177.000
48.27822 192.000
48.29817 206.000
48.31811 185.000
48.33806 216.000
48.35801 195.000
48.37795 259.000
48.39790 248.000
48.41785 266.000
48.43780 325.000
48.45774 344.000
48.47769 389.000
48.49764 426.000
48.51758 484.000
48.53753 619.000
48.55748 677.000
48.57742 898.000
48.59737 1169.000
48.61732 1521.000
48.63726 1810.000
48.65721 1872.000
48.67716 1887.000
48.69711 1680.000
48.71705 1418.000
48.73700 1339.000
48.75695 1341.000
48.77689 1345.000
48.79684 1217.000
48.81679 1049.000
48.83673 830.000
48.85668 640.000
48.87663 534.000
48.89658 479.000
48.91652 393.000
48.93647 356.000
48.95642 317.000
48.97636 272.000
48.99631 251.000
49.01626 243.000
49.03620 213.000
49.05615 206.000
49.07610 190.000
49.09605 187.000
49.11599 158.000
49.13594 153.000
49.15589 169.000
49.17583 149.000
49.19578 123.000
49.21573 148.000
49.23567 140.000
49.25562 158.000
49.27557 132.000
49.29551 140.000
49.31546 158.000
49.33541 118.000
49.35536 136.000
49.37530 118.000
49.39525 129.000
49.41520 144.000
49.43514 135.000
49.45509 115.000
49.47504 145.000
49.49498 132.000
49.51493 132.000
49.53488 110.000
49.55483 132.000
49.57477 131.000
49.59472 128.000
49.61467 109.000
49.63461 117.000
49.65456 107.000
49.67451 115.000
49.69445 95.000
49.71440 99.000
49.73435 94.000
49.75429 110.000
49.77424 103.000
49.79419 95.000
49.81414 93.000
49.83408 96.000
49.85403 117.000
49.87398 116.000
49.89392 116.000
49.91387 95.000
49.93382 102.000
49.95376 107.000
49.97371 113.000
49.99366 106.000
50.01361 96.000
50.03355 108.000
50.05350 102.000
50.07345 106.000
50.09339 106.000
50.11334 106.000
50.13329 84.000
50.15323 97.000
50.17318 93.000
50.19313 98.000
50.21307 104.000
50.23302 124.000
50.25297 121.000
50.27292 111.000
50.29286 106.000
50.31281 92.000
50.33276 88.000
50.35270 91.000
50.37265 110.000
50.39260 100.000
50.41254 94.000
50.43249 93.000
50.45244 90.000
50.47239 116.000
50.49233 111.000
50.51228 82.000
50.53223 109.000
50.55217 104.000
50.57212 98.000
50.59207 107.000
50.61201 107.000
50.63196 96.000
50.65191 111.000
50.67186 97.000
50.69180 88.000
50.71175 93.000
50.73170 87.000
50.75164 75.000
50.77159 113.000
50.79154 94.000
50.81148 100.000
50.83143 88.000
50.85138 105.000
50.87132 102.000
50.89127 81.000
50.91122 95.000
50.93117 112.000
50.95111 87.000
50.97106 98.000
50.99101 113.000
51.01095 98.000
51.03090 108.000
51.05085 93.000
51.07079 99.000
51.09074 92.000
51.11069 89.000
51.13064 91.000
51.15058 102.000
51.17053 79.000
51.19048 95.000
51.21042 87.000
51.23037 78.000
51.25032 88.000
51.27026 86.000
51.29021 108.000
51.31016 96.000
51.33010 108.000
51.35005 98.000
51.37000 79.000
51.38995 81.000
51.40989 113.000
51.42984 89.000
51.44979 88.000
51.46973 103.000
51.48968 96.000
51.50963 92.000
51.52957 105.000
51.54952 82.000
51.56947 76.000
51.58942 100.000
51.60936 82.000
51.62931 89.000
51.64926 91.000
51.66920 96.000
51.68915 85.000
51.70910 91.000
51.72904 90.000
51.74899 105.000
51.76894 93.000
51.78888 91.000
51.80883 96.000
51.82878 98.000
51.84873 94.000
51.86867 97.000
51.88862 83.000
51.90857 88.000
51.92851 89.000
51.94846 95.000
51.96841 107.000
51.98835 76.000
52.00830 80.000
52.02825 83.000
52.04820 82.000
52.06814 110.000
52.08809 104.000
52.10804 87.000
52.12798 98.000
52.14793 117.000
52.16788 108.000
52.18782 108.000
52.20777 104.000
52.22772 79.000
52.24767 89.000
52.26761 100.000
52.28756 100.000
52.30751 89.000
52.32745 81.000
52.34740 106.000
52.36735 96.000
52.38729 95.000
52.40724 88.000
52.42719 90.000
52.44713 85.000
52.46708 90.000
52.48703 95.000
52.50698 103.000
52.52692 91.000
52.54687 84.000
52.56682 100.000
52.58676 94.000
52.60671 107.000
52.62666 92.000
52.64660 81.000
52.66655 89.000
52.68650 102.000
52.70645 100.000
52.72639 108.000
52.74634 95.000
52.76629 97.000
52.78623 104.000
52.80618 94.000
52.82613 98.000
52.84607 97.000
52.86602 85.000
52.88597 99.000
52.90591 83.000
52.92586 86.000
52.94581 98.000
52.96576 82.000
52.98570 87.000
53.00565 97.000
53.02560 84.000
53.04554 104.000
53.06549 89.000
53.08544 86.000
53.10538 100.000
53.12533 88.000
53.14528 88.000
53.16523 103.000
53.18517 80.000
53.20512 97.000
53.22507 81.000
53.24501 89.000
53.26496 109.000
53.28491 89.000
53.30485 115.000
53.32480 117.000
53.34475 102.000
53.36469 102.000
53.38464 116.000
53.40459 126.000
53.42454 102.000
53.44448 117.000
53.46443 96.000
53.48438 98.000
53.50432 119.000
53.52427 107.000
53.54422 123.000
53.56416 111.000
53.58411 126.000
53.60406 109.000
53.62401 123.000
53.64395 89.000
53.66390 106.000
53.68385 104.000
53.70379 103.000
53.72374 92.000
53.74369 97.000
53.76363 95.000
53.78358 106.000
53.80353 90.000
53.82348 96.000
53.84342 94.000
53.86337 105.000
53.88332 89.000
53.90326 106.000
53.92321 90.000
53.94316 86.000
53.96310 85.000
53.98305 93.000
54.00300 91.000
54.02294 86.000
54.04289 93.000
54.06284 75.000
54.08279 93.000
54.10273 108.000
54.12268 82.000
54.14263 83.000
54.16257 93.000
54.18252 98.000
54.20247 93.000
54.22241 103.000
54.24236 91.000
54.26231 88.000
54.28226 87.000
54.30220 79.000
54.32215 93.000
54.34210 106.000
54.36204 93.000
54.38199 103.000
54.40194 82.000
54.42188 104.000
54.44183 117.000
54.46178 87.000
54.48172 77.000
54.50167 87.000
54.52162 82.000
54.54157 99.000
54.56151 83.000
54.58146 86.000
54.60141 99.000
54.62135 78.000
54.64130 99.000
54.66125 87.000
54.68119 89.000
54.70114 106.000
54.72109 101.000
54.74104 79.000
54.76098 84.000
54.78093 92.000
54.80088 84.000
54.82082 104.000
54.84077 94.000
54.86072 103.000
54.88066 89.000
54.90061 96.000
54.92056 98.000
54.94050 86.000
54.96045 86.000
54.98040 81.000
55.00035 92.000
55.02029 83.000
55.04024 94.000
55.06019 107.000
55.08013 99.000
55.10008 107.000
55.12003 99.000
55.13997 90.000
55.15992 89.000
55.17987 95.000
55.19982 85.000
55.21976 97.000
55.23971 90.000
55.25966 95.000
55.27960 85.000
55.29955 88.000
55.31950 75.000
55.33944 88.000
55.35939 112.000
55.37934 99.000
55.39929 88.000
55.41923 80.000
55.43918 86.000
55.45913 92.000
55.47907 97.000
55.49902 81.000
55.51897 91.000
55.53891 94.000
55.55886 91.000
55.57881 97.000
55.59875 100.000
55.61870 78.000
55.63865 89.000
55.65860 85.000
55.67854 90.000
55.69849 99.000
55.71844 90.000
55.73838 107.000
55.75833 90.000
55.77828 104.000
55.79822 88.000
55.81817 87.000
55.83812 101.000
55.85807 94.000
55.87801 94.000
55.89796 87.000
55.91791 93.000
55.93785 86.000
55.95780 109.000
55.97775 84.000
55.99769 80.000
56.01764 93.000
56.03759 105.000
56.05753 92.000
56.07748 96.000
56.09743 90.000
56.11738 90.000
56.13732 106.000
56.15727 102.000
56.17722 99.000
56.19716 86.000
56.21711 115.000
56.23706 95.000
56.25700 94.000
56.27695 77.000
56.29690 110.000
56.31685 102.000
56.33679 109.000
56.35674 109.000
56.37669 78.000
56.39663 81.000
56.41658 88.000
56.43653 100.000
56.45647 96.000
56.47642 114.000
56.49637 103.000
56.51631 92.000
56.53626 108.000
56.55621 86.000
56.57616 103.000
56.59610 104.000
56.61605 108.000
56.63600 110.000
56.65594 110.000
56.67589 96.000
56.69584 106.000
56.71578 89.000
56.73573 107.000
56.75568 102.000
56.77563 107.000
56.79557 97.000
56.81552 91.000
56.83547 97.000
56.85541 109.000
56.87536 107.000
56.89531 104.000
56.91525 110.000
56.93520 119.000
56.95515 131.000
56.97510 103.000
56.99504 121.000
57.01499 131.000
57.03494 126.000
57.05488 136.000
57.07483 131.000
57.09478 133.000
57.11472 128.000
57.13467 134.000
57.15462 144.000
57.17456 143.000
57.19451 155.000
57.21446 125.000
57.23441 152.000
57.25435 152.000
57.27430 116.000
57.29425 136.000
57.31419 105.000
57.33414 117.000
57.35409 139.000
57.37403 111.000
57.39398 131.000
57.41393 118.000
57.43388 105.000
57.45382 110.000
57.47377 116.000
57.49372 123.000
57.51366 102.000
57.53361 110.000
57.55356 94.000
57.57350 96.000
57.59345 98.000
57.61340 76.000
57.63334 117.000
57.65329 99.000
57.67324 112.000
57.69319 99.000
57.71313 108.000
57.73308 106.000
57.75303 93.000
57.77297 101.000
57.79292 93.000
57.81287 98.000
57.83281 97.000
57.85276 96.000
57.87271 93.000
57.89266 120.000
57.91260 93.000
57.93255 109.000
57.95250 85.000
57.97244 87.000
57.99239 96.000
58.01234 95.000
58.03228 98.000
58.05223 90.000
58.07218 90.000
58.09212 105.000
58.11207 97.000
58.13202 110.000
58.15197 98.000
58.17191 106.000
58.19186 98.000
58.21181 96.000
58.23175 101.000
58.25170 112.000
58.27165 104.000
58.29159 91.000
58.31154 104.000
58.33149 103.000
58.35144 128.000
58.37138 102.000
58.39133 89.000
58.41128 105.000
58.43122 102.000
58.45117 117.000
58.47112 106.000
58.49106 91.000
58.51101 110.000
58.53096 101.000
58.55090 95.000
58.57085 114.000
58.59080 93.000
58.61075 117.000
58.63069 84.000
58.65064 103.000
58.67059 110.000
58.69053 100.000
58.71048 108.000
58.73043 89.000
58.75037 101.000
58.77032 108.000
58.79027 102.000
58.81022 103.000
58.83016 99.000
58.85011 96.000
58.87006 100.000
58.89000 110.000
58.90995 79.000
58.92990 104.000
58.94984 116.000
58.96979 97.000
58.98974 103.000
59.00969 115.000
59.02963 106.000
59.04958 83.000
59.06953 108.000
59.08947 102.000
59.10942 92.000
59.12937 102.000
59.14931 93.000
59.16926 86.000
59.18921 92.000
59.20915 90.000
59.22910 106.000
59.24905 108.000
59.26900 99.000
59.28894 112.000
59.30889 92.000
59.32884 100.000
59.34878 75.000
59.36873 90.000
59.38868 88.000
59.40862 82.000
59.42857 100.000
59.44852 85.000
59.46847 80.000
59.48841 87.000
59.50836 97.000
59.52831 99.000
59.54825 86.000
59.56820 103.000
59.58815 78.000
59.60809 105.000
59.62804 94.000
59.64799 117.000
59.66793 92.000
59.68788 90.000
59.70783 95.000
59.72778 83.000
59.74772 103.000
59.76767 103.000
59.78762 100.000
59.80756 93.000
59.82751 112.000
59.84746 87.000
59.86740 96.000
59.88735 97.000
59.90730 88.000
59.92725 91.000
59.94719 88.000
59.96714 95.000
59.98709 99.000
60.00703 107.000
60.02698 103.000
60.04693 92.000
60.06687 105.000
60.08682 96.000
60.10677 98.000
60.12671 108.000
60.14666 89.000
60.16661 101.000
60.18656 85.000
60.20650 87.000
60.22645 89.000
60.24640 88.000
60.26634 86.000
60.28629 98.000
60.30624 103.000
60.32618 94.000
60.34613 97.000
60.36608 104.000
60.38603 88.000
60.40597 111.000
60.42592 89.000
60.44587 102.000
60.46581 100.000
60.48576 89.000
60.50571 100.000
60.52565 103.000
60.54560 104.000
60.56555 117.000
60.58550 113.000
60.60544 111.000
60.62539 99.000
60.64534 78.000
60.66528 115.000
60.68523 107.000
60.70518 113.000
60.72512 101.000
60.74507 103.000
60.76502 103.000
60.78496 123.000
60.80491 111.000
60.82486 121.000
60.84481 117.000
60.86475 105.000
60.88470 109.000
60.90465 100.000
60.92459 119.000
60.94454 91.000
60.96449 102.000
60.98443 100.000
61.00438 107.000
61.02433 104.000
61.04428 110.000
61.06422 121.000
61.08417 108.000
61.10412 117.000
61.12406 129.000
61.14401 110.000
61.16396 122.000
61.18390 107.000
61.20385 114.000
61.22380 111.000
61.24374 122.000
61.26369 126.000
61.28364 126.000
61.30359 140.000
61.32353 128.000
61.34348 126.000
61.36343 140.000
61.38337 134.000
61.40332 144.000
61.42327 150.000
61.44321 170.000
61.46316 184.000
61.48311 200.000
61.50306 209.000
61.52300 206.000
61.54295 264.000
61.56290 272.000
61.58284 268.000
61.60279 300.000
61.62274 374.000
61.64268 426.000
61.66263 477.000
61.68258 520.000
61.70252 594.000
61.72247 699.000
61.74242 725.000
61.76237 700.000
61.78231 696.000
61.80226 626.000
61.82221 614.000
61.84215 543.000
61.86210 562.000
61.88205 570.000
61.90199 544.000
61.92194 537.000
61.94189 482.000
61.96184 469.000
61.98178 386.000
62.00173 311.000
62.02168 279.000
62.04162 274.000
62.06157 224.000
62.08152 216.000
62.10146 228.000
62.12141 188.000
62.14136 164.000
62.16131 166.000
62.18125 150.000
62.20120 141.000
62.22115 145.000
62.24109 144.000
62.26104 142.000
62.28099 138.000
62.30093 143.000
62.32088 147.000
62.34083 113.000
62.36077 150.000
62.38072 138.000
62.40067 120.000
62.42062 152.000
62.44056 121.000
62.46051 116.000
62.48046 112.000
62.50040 176.000
62.52035 154.000
62.54030 149.000
62.56024 168.000
62.58019 134.000
62.60014 169.000
62.62009 149.000
62.64003 151.000
62.65998 154.000
62.67993 144.000
62.69987 140.000
62.71982 152.000
62.73977 146.000
62.75971 156.000
62.77966 156.000
62.79961 144.000
62.81955 148.000
62.83950 151.000
62.85945 158.000
62.87940 153.000
62.89934 143.000
62.91929 147.000
62.93924 143.000
62.95918 157.000
62.97913 144.000
62.99908 143.000
63.01902 130.000
63.03897 112.000
63.05892 120.000
63.07887 105.000
63.09881 105.000
63.11876 128.000
63.13871 101.000
63.15865 118.000
63.17860 97.000
63.19855 124.000
63.21849 106.000
63.23844 104.000
63.25839 117.000
63.27833 126.000
63.29828 105.000
63.31823 88.000
63.33818 107.000
63.35812 114.000
63.37807 108.000
63.39802 119.000
63.41796 100.000
63.43791 104.000
63.45786 112.000
63.47780 121.000
63.49775 111.000
63.51770 104.000
63.53765 117.000
63.55759 93.000
63.57754 105.000
63.59749 101.000
63.61743 108.000
63.63738 108.000
63.65733 108.000
63.67727 98.000
63.69722 113.000
63.71717 105.000
63.73712 110.000
63.75706 98.000
63.77701 102.000
63.79696 105.000
63.81690 97.000
63.83685 108.000
63.85680 91.000
63.87674 111.000
63.89669 115.000
63.91664 88.000
63.93658 131.000
63.95653 124.000
63.97648 101.000
63.99643 106.000
64.01637 119.000
64.03632 113.000
64.05627 112.000
64.07621 119.000
64.09616 120.000
64.11611 138.000
64.13605 137.000
64.15600 131.000
64.17595 152.000
64.19590 157.000
64.21584 135.000
64.23579 161.000
64.25574 162.000
64.27568 194.000
64.29563 244.000
64.31558 284.000
64.33552 326.000
64.35547 406.000
64.37542 505.000
64.39536 574.000
64.41531 594.000
64.43526 535.000
64.45521 527.000
64.47515 508.000
64.49510 508.000
64.51505 456.000
64.53499 495.000
64.55494 420.000
64.57489 451.000
64.59483 435.000
64.61478 437.000
64.63473 365.000
64.65468 332.000
64.67462 290.000
64.69457 236.000
64.71452 242.000
64.73446 228.000
64.75441 219.000
64.77436 190.000
64.79430 155.000
64.81425 162.000
64.83420 145.000
64.85414 147.000
64.87409 111.000
64.89404 124.000
64.91399 116.000
64.93393 113.000
64.95388 115.000
64.97383 118.000
64.99377 112.000
65.01372 125.000
65.03367 124.000
65.05361 107.000
65.07356 109.000
65.09351 109.000
65.11346 109.000
65.13340 100.000
65.15335 122.000
65.17330 113.000
65.19324 115.000
65.21319 130.000
65.23314 116.000
65.25308 113.000
65.27303 100.000
65.29298 107.000
65.31293 99.000
65.33287 108.000
65.35282 92.000
65.37277 113.000
65.39271 102.000
65.41266 113.000
65.43261 100.000
65.45255 112.000
65.47250 125.000
65.49245 97.000
65.51239 138.000
65.53234 99.000
65.55229 89.000
65.57224 98.000
65.59218 105.000
65.61213 119.000
65.63208 100.000
65.65202 123.000
65.67197 115.000
65.69192 102.000
65.71186 112.000
65.73181 109.000
65.75176 106.000
65.77171 101.000
65.79165 122.000
65.81160 106.000
65.83155 119.000
65.85149 110.000
65.87144 108.000
65.89139 93.000
65.91133 115.000
65.93128 93.000
65.95123 128.000
65.97117 110.000
65.99112 119.000
66.01107 110.000
66.03102 106.000
66.05096 121.000
66.07091 117.000
66.09086 112.000
66.11080 120.000
66.13075 119.000
66.15070 133.000
66.17064 118.000
66.19059 132.000
66.21054 131.000
66.23049 140.000
66.25043 140.000
66.27038 146.000
66.29033 177.000
66.31027 184.000
66.33022 200.000
66.35017 176.000
66.37011 226.000
66.39006 204.000
66.41001 223.000
66.42995 211.000
66.44990 206.000
66.46985 182.000
66.48980 205.000
66.50974 208.000
66.52969 200.000
66.54964 226.000
66.56958 208.000
66.58953 201.000
66.60948 184.000
66.62942 237.000
66.64937 248.000
66.66932 268.000
66.68927 288.000
66.70921 345.000
66.72916 386.000
66.74911 415.000
66.76905 395.000
66.78900 447.000
66.80895 407.000
66.82889 397.000
66.84884 355.000
66.86879 375.000
66.88874 316.000
66.90868 325.000
66.92863 337.000
66.94858 312.000
66.96852 348.000
66.98847 330.000
67.00842 297.000
67.02836 246.000
67.04831 256.000
67.06826 223.000
67.08820 183.000
67.10815 171.000
67.12810 162.000
67.14805 152.000
67.16799 147.000
67.18794 133.000
67.20789 131.000
67.22783 129.000
67.24778 123.000
67.26773 128.000
67.28767 116.000
67.30762 115.000
67.32757 109.000
67.34752 113.000
67.36746 106.000
67.38741 116.000
67.40736 112.000
67.42730 101.000
67.44725 97.000
67.46720 100.000
67.48714 125.000
67.50709 102.000
67.52704 123.000
67.54698 99.000
67.56693 100.000
67.58688 100.000
67.60683 110.000
67.62677 97.000
67.64672 100.000
67.66667 95.000
67.68661 102.000
67.70656 91.000
67.72651 121.000
67.74645 116.000
67.76640 105.000
67.78635 92.000
67.80630 110.000
67.82624 94.000
67.84619 121.000
67.86614 108.000
67.88608 124.000
67.90603 123.000
67.92598 79.000
67.94592 85.000
67.96587 87.000
67.98582 104.000
68.00576 106.000
68.02571 114.000
68.04566 107.000
68.06561 123.000
68.08555 112.000
68.10550 101.000
68.12545 106.000
68.14539 92.000
68.16534 98.000
68.18529 84.000
68.20523 104.000
68.22518 102.000
68.24513 100.000
68.26508 96.000
68.28502 96.000
68.30497 106.000
68.32492 96.000
68.34486 93.000
68.36481 74.000
68.38476 101.000
68.40470 101.000
68.42465 75.000
68.44460 91.000
68.46455 112.000
68.48449 100.000
68.50444 83.000
68.52439 88.000
68.54433 92.000
68.56428 104.000
68.58423 97.000
68.60417 80.000
68.62412 77.000
68.64407 84.000
68.66401 95.000
68.68396 100.000
68.70391 81.000
68.72386 101.000
68.74380 94.000
68.76375 90.000
68.78370 104.000
68.80364 69.000
68.82359 96.000
68.84354 90.000
68.86348 84.000
68.88343 87.000
68.90338 104.000
68.92333 85.000
68.94327 95.000
68.96322 96.000
68.98317 102.000
69.00311 98.000
69.02306 90.000
69.04301 95.000
69.06295 107.000
69.08290 105.000
69.10285 105.000
69.12279 86.000
69.14274 94.000
69.16269 106.000
69.18264 99.000
69.20258 110.000
69.22253 82.000
69.24248 87.000
69.26242 98.000
69.28237 94.000
69.30232 117.000
69.32226 94.000
69.34221 84.000
69.36216 96.000
69.38211 90.000
69.40205 102.000
69.42200 89.000
69.44195 107.000
69.46189 140.000
69.48184 95.000
69.50179 111.000
69.52173 86.000
69.54168 91.000
69.56163 122.000
69.58157 99.000
69.60152 97.000
69.62147 107.000
69.64142 94.000
69.66136 86.000
69.68131 84.000
69.70126 109.000
69.72120 107.000
69.74115 84.000
69.76110 89.000
69.78104 82.000
69.80099 108.000
69.82094 95.000
69.84089 83.000
69.86083 80.000
69.88078 93.000
69.90073 90.000
69.92067 101.000
69.94062 101.000
69.96057 94.000
69.98051 108.000
70.00046 82.000
70.02041 95.000
70.04035 94.000
70.06030 103.000
70.08025 89.000
70.10020 96.000
70.12014 105.000
70.14009 94.000
70.16004 93.000
70.17998 87.000
70.19993 94.000
70.21988 70.000
70.23982 92.000
70.25977 95.000
70.27972 122.000
70.29967 98.000
70.31961 96.000
70.33956 94.000
70.35951 93.000
70.37945 89.000
70.39940 78.000
70.41935 108.000
70.43929 92.000
70.45924 91.000
70.47919 92.000
70.49914 81.000
70.51908 98.000
70.53903 83.000
70.55898 100.000
70.57892 84.000
70.59887 90.000
70.61882 76.000
70.63876 88.000
70.65871 94.000
70.67866 98.000
70.69860 76.000
70.71855 86.000
70.73850 95.000
70.75845 92.000
70.77839 91.000
70.79834 91.000
70.81829 92.000
70.83823 102.000
70.85818 96.000
70.87813 87.000
70.89807 83.000
70.91802 88.000
70.93797 85.000
70.95792 89.000
70.97786 92.000
70.99781 102.000
71.01776 84.000
71.03770 86.000
71.05765 100.000
71.07760 93.000
71.09754 84.000
71.11749 97.000
71.13744 94.000
71.15738 80.000
71.17733 81.000
71.19728 88.000
71.21723 99.000
71.23717 86.000
71.25712 70.000
71.27707 76.000
71.29701 99.000
71.31696 86.000
71.33691 74.000
71.35685 87.000
71.37680 92.000
71.39675 112.000
71.41670 94.000
71.43664 69.000
71.45659 89.000
71.47654 88.000
71.49648 76.000
71.51643 96.000
71.53638 83.000
71.55632 79.000
71.57627 96.000
71.59622 105.000
71.61616 93.000
71.63611 91.000
71.65606 89.000
71.67601 91.000
71.69595 84.000
71.71590 99.000
71.73585 103.000
71.75579 99.000
71.77574 97.000
71.79569 67.000
71.81563 89.000
71.83558 107.000
71.85553 86.000
71.87548 87.000
71.89542 86.000
71.91537 75.000
71.93532 84.000
71.95526 92.000
71.97521 109.000
71.99516 85.000
72.01510 89.000
72.03505 100.000
72.05500 94.000
72.07495 98.000
72.09489 83.000
72.11484 89.000
72.13479 90.000
72.15473 83.000
72.17468 102.000
72.19463 89.000
72.21457 83.000
72.23452 85.000
72.25447 94.000
72.27441 86.000
72.29436 98.000
72.31431 92.000
72.33426 93.000
72.35420 91.000
72.37415 97.000
72.39410 97.000
72.41404 95.000
72.43399 99.000
72.45394 96.000
72.47388 82.000
72.49383 115.000
72.51378 105.000
72.53373 115.000
72.55367 97.000
72.57362 117.000
72.59357 98.000
72.61351 107.000
72.63346 86.000
72.65341 79.000
72.67335 99.000
72.69330 86.000
72.71325 95.000
72.73319 113.000
72.75314 83.000
72.77309 98.000
72.79304 91.000
72.81298 106.000
72.83293 96.000
72.85288 92.000
72.87282 94.000
72.89277 82.000
72.91272 84.000
72.93266 105.000
72.95261 82.000
72.97256 94.000
72.99251 71.000
73.01245 81.000
73.03240 100.000
73.05235 99.000
73.07229 91.000
73.09224 100.000
73.11219 95.000
73.13213 94.000
73.15208 98.000
73.17203 98.000
73.19197 105.000
73.21192 81.000
73.23187 87.000
73.25182 89.000
73.27176 101.000
73.29171 93.000
73.31166 104.000
73.33160 100.000
73.35155 91.000
73.37150 100.000
73.39144 119.000
73.41139 128.000
73.43134 126.000
73.45129 119.000
73.47123 142.000
73.49118 143.000
73.51113 151.000
73.53107 155.000
73.55102 172.000
73.57097 187.000
73.59091 229.000
73.61086 237.000
73.63081 227.000
73.65076 269.000
73.67070 220.000
73.69065 183.000
73.71060 204.000
73.73054 175.000
73.75049 170.000
73.77044 207.000
73.79038 182.000
73.81033 178.000
73.83028 154.000
73.85022 201.000
73.87017 187.000
73.89012 148.000
73.91007 143.000
73.93001 163.000
73.94996 139.000
73.96991 125.000
73.98985 139.000
74.00980 127.000
74.02975 100.000
74.04969 137.000
74.06964 127.000
74.08959 126.000
74.10954 101.000
74.12948 105.000
74.14943 103.000
74.16938 102.000
74.18932 110.000
74.20927 87.000
74.22922 104.000
74.24916 90.000
74.26911 117.000
74.28906 106.000
74.30900 118.000
74.32895 105.000
74.34890 97.000
74.36885 103.000
74.38879 112.000
74.40874 98.000
74.42869 102.000
74.44863 91.000
74.46858 89.000
74.48853 85.000
74.50847 86.000
74.52842 86.000
74.54837 93.000
74.56832 116.000
74.58826 87.000
74.60821 108.000
74.62816 108.000
74.64810 109.000
74.66805 92.000
74.68800 95.000
74.70794 106.000
74.72789 105.000
74.74784 84.000
74.76778 111.000
74.78773 96.000
74.80768 105.000
74.82763 93.000
74.84757 99.000
74.86752 99.000
74.88747 101.000
74.90741 104.000
74.92736 92.000
74.94731 114.000
74.96725 105.000
74.98720 121.000
75.00715 103.000
75.02710 103.000
75.04704 123.000
75.06699 103.000
75.08694 109.000
75.10688 98.000
75.12683 98.000
75.14678 115.000
75.16672 101.000
75.18667 95.000
75.20662 90.000
75.22657 107.000
75.24651 126.000
75.26646 116.000
75.28641 105.000
75.30635 106.000
75.32630 98.000
75.34625 76.000
75.36619 104.000
75.38614 93.000
75.40609 117.000
75.42603 86.000
75.44598 107.000
75.46593 119.000
75.48588 97.000
75.50582 93.000
75.52577 107.000
75.54572 100.000
75.56566 88.000
75.58561 88.000
75.60556 86.000
75.62550 109.000
75.64545 89.000
75.66540 107.000
75.68535 85.000
75.70529 94.000
75.72524 113.000
75.74519 97.000
75.76513 98.000
75.78508 92.000
75.80503 108.000
75.82497 104.000
75.84492 126.000
75.86487 117.000
75.88481 134.000
75.90476 143.000
75.92471 134.000
75.94466 146.000
75.96460 157.000
75.98455 162.000
76.00450 159.000
76.02444 149.000
76.04439 134.000
76.06434 147.000
76.08428 117.000
76.10423 120.000
76.12418 123.000
76.14413 154.000
76.16407 125.000
76.18402 127.000
76.20397 118.000
76.22391 152.000
76.24386 121.000
76.26381 111.000
76.28375 105.000
76.30370 115.000
76.32365 96.000
76.34359 103.000
76.36354 94.000
76.38349 103.000
76.40344 103.000
76.42338 101.000
76.44333 99.000
76.46328 96.000
76.48322 103.000
76.50317 105.000
76.52312 101.000
76.54306 111.000
76.56301 97.000
76.58296 101.000
76.60291 69.000
76.62285 82.000
76.64280 88.000
76.66275 85.000
76.68269 95.000
76.70264 101.000
76.72259 94.000
76.74253 78.000
76.76248 83.000
76.78243 91.000
76.80238 95.000
76.82232 85.000
76.84227 81.000
76.86222 85.000
76.88216 78.000
76.90211 106.000
76.92206 115.000
76.94200 90.000
76.96195 89.000
76.98190 95.000
77.00184 87.000
77.02179 118.000
77.04174 97.000
77.06169 116.000
77.08163 102.000
77.10158 100.000
77.12153 99.000
77.14147 110.000
77.16142 90.000
77.18137 107.000
77.20131 90.000
77.22126 103.000
77.24121 105.000
77.26116 93.000
77.28110 123.000
77.30105 106.000
77.32100 102.000
77.34094 114.000
77.36089 110.000
77.38084 116.000
77.40078 92.000
77.42073 89.000
77.44068 98.000
77.46062 109.000
77.48057 110.000
77.50052 127.000
77.52047 129.000
77.54041 135.000
77.56036 135.000
77.58031 133.000
77.60025 139.000
77.62020 157.000
77.64015 154.000
77.66009 183.000
77.68004 165.000
77.69999 199.000
77.71994 197.000
77.73988 232.000
77.75983 219.000
77.77978 261.000
77.79972 269.000
77.81967 268.000
77.83962 266.000
77.85956 242.000
77.87951 242.000
77.89946 247.000
77.91940 243.000
77.93935 239.000
77.95930 231.000
77.97925 230.000
77.99919 214.000
78.01914 241.000
78.03909 237.000
78.05903 228.000
78.07898 259.000
78.09893 258.000
78.11887 268.000
78.13882 267.000
78.15877 290.000
78.17872 273.000
78.19866 251.000
78.21861 247.000
78.23856 203.000
78.25850 215.000
78.27845 201.000
78.29840 202.000
78.31834 211.000
78.33829 185.000
78.35824 178.000
78.37819 209.000
78.39813 214.000
78.41808 193.000
78.43803 198.000
78.45797 163.000
78.47792 169.000
78.49787 162.000
78.51781 131.000
78.53776 137.000
78.55771 126.000
78.57765 112.000
78.59760 118.000
78.61755 143.000
78.63750 114.000
78.65744 119.000
78.67739 109.000
78.69734 98.000
78.71728 95.000
78.73723 104.000
78.75718 119.000
78.77712 128.000
78.79707 90.000
78.81702 100.000
78.83697 104.000
78.85691 94.000
78.87686 95.000
78.89681 104.000
78.91675 91.000
78.93670 89.000
78.95665 98.000
78.97659 117.000
78.99654 109.000
79.01649 107.000
79.03643 115.000
79.05638 90.000
79.07633 79.000
79.09628 86.000
79.11622 91.000
79.13617 85.000
79.15612 84.000
79.17606 98.000
79.19601 87.000
79.21596 99.000
79.23590 89.000
79.25585 92.000
79.27580 110.000
79.29575 110.000
79.31569 95.000
79.33564 94.000
79.35559 104.000
79.37553 98.000
79.39548 90.000
79.41543 98.000
79.43537 81.000
79.45532 90.000
79.47527 95.000
79.49521 95.000
79.51516 101.000
79.53511 82.000
79.55506 91.000
79.57500 85.000
79.59495 80.000
79.61490 81.000
79.63484 88.000
79.65479 96.000
79.67474 106.000
79.69468 86.000
79.71463 93.000
79.73458 97.000
79.75453 92.000
79.77447 90.000
79.79442 93.000
79.81437 92.000
79.83431 108.000
79.85426 93.000
79.87421 96.000
79.89415 84.000
79.91410 102.000
79.93405 90.000
79.95399 78.000
79.97394 80.000
79.99389 89.000
80.01384 91.000
80.03378 101.000
80.05373 85.000
80.07368 86.000
80.09362 101.000
80.11357 99.000
80.13352 86.000
80.15346 92.000
80.17341 88.000
80.19336 102.000
80.21331 89.000
80.23325 90.000
80.25320 105.000
80.27315 112.000
80.29309 87.000
80.31304 88.000
80.33299 107.000
80.35293 83.000
80.37288 95.000
80.39283 101.000
80.41278 85.000
80.43272 96.000
80.45267 95.000
80.47262 115.000
80.49256 85.000
80.51251 92.000
80.53246 66.000
80.55240 81.000
80.57235 93.000
80.59230 87.000
80.61224 97.000
80.63219 91.000
80.65214 95.000
80.67209 106.000
80.69203 104.000
80.71198 100.000
80.73193 111.000
80.75187 95.000
80.77182 102.000
80.79177 94.000
80.81171 123.000
80.83166 116.000
80.85161 115.000
80.87156 135.000
80.89150 115.000
80.91145 101.000
80.93140 121.000
80.95134 112.000
80.97129 125.000
80.99124 112.000
81.01118 126.000
81.03113 104.000
81.05108 100.000
81.07102 123.000
81.09097 135.000
81.11092 117.000
81.13087 105.000
81.15081 121.000
81.17076 123.000
81.19071 98.000
81.21065 92.000
81.23060 101.000
81.25055 124.000
81.27049 93.000
81.29044 88.000
81.31039 102.000
81.33034 107.000
81.35028 88.000
81.37023 102.000
81.39018 86.000
81.41012 100.000
81.43007 98.000
81.45002 86.000
81.46996 109.000
81.48991 90.000
81.50986 91.000
81.52980 96.000
81.54975 102.000
81.56970 78.000
81.58965 101.000
81.60959 107.000
81.62954 82.000
81.64949 71.000
81.66943 68.000
81.68938 77.000
81.70933 92.000
81.72927 90.000
81.74922 102.000
81.76917 89.000
81.78912 93.000
81.80906 92.000
81.82901 84.000
81.84896 93.000
81.86890 93.000
81.88885 72.000
81.90880 87.000
81.92874 69.000
81.94869 89.000
81.96864 88.000
81.98859 84.000
82.00853 100.000
82.02848 92.000
82.04843 80.000
82.06837 91.000
82.08832 104.000
82.10827 90.000
82.12821 88.000
82.14816 96.000
82.16811 91.000
82.18805 98.000
82.20800 93.000
82.22795 106.000
82.24790 93.000
82.26784 107.000
82.28779 87.000
82.30774 85.000
82.32768 94.000
82.34763 89.000
82.36758 87.000
82.38752 75.000
82.40747 114.000
82.42742 95.000
82.44737 100.000
82.46731 97.000
82.48726 91.000
82.50721 90.000
82.52715 97.000
82.54710 111.000
82.56705 106.000
82.58699 84.000
82.60694 91.000
82.62689 94.000
82.64683 78.000
82.66678 99.000
82.68673 94.000
82.70668 97.000
82.72662 100.000
82.74657 74.000
82.76652 113.000
82.78646 91.000
82.80641 78.000
82.82636 98.000
82.84630 77.000
82.86625 85.000
82.88620 80.000
82.90615 96.000
82.92609 80.000
82.94604 105.000
82.96599 97.000
82.98593 113.000
83.00588 99.000
83.02583 93.000
83.04577 68.000
83.06572 107.000
83.08567 101.000
83.10561 89.000
83.12556 105.000
83.14551 86.000
83.16546 100.000
83.18540 100.000
83.20535 90.000
83.22530 91.000
83.24524 69.000
83.26519 83.000
83.28514 78.000
83.30508 104.000
83.32503 97.000
83.34498 89.000
83.36493 84.000
83.38487 82.000
83.40482 97.000
83.42477 96.000
83.44471 87.000
83.46466 92.000
83.48461 90.000
83.50455 97.000
83.52450 88.000
83.54445 96.000
83.56440 88.000
83.58434 84.000
83.60429 77.000
83.62424 105.000
83.64418 79.000
83.66413 86.000
83.68408 99.000
83.70402 90.000
83.72397 77.000
83.74392 89.000
83.76386 94.000
83.78381 97.000
83.80376 92.000
83.82371 108.000
83.84365 95.000
83.86360 95.000
83.88355 92.000
83.90349 98.000
83.92344 84.000
83.94339 87.000
83.96333 85.000
83.98328 106.000
84.00323 88.000
84.02318 102.000
84.04312 94.000
84.06307 79.000
84.08302 82.000
84.10296 83.000
84.12291 97.000
84.14286 82.000
84.16280 100.000
84.18275 102.000
84.20270 99.000
84.22264 106.000
84.24259 108.000
84.26254 95.000
84.28249 110.000
84.30243 103.000
84.32238 108.000
84.34233 126.000
84.36227 106.000
84.38222 128.000
84.40217 120.000
84.42211 108.000
84.44206 126.000
84.46201 116.000
84.48196 129.000
84.50190 137.000
84.52185 146.000
84.54180 183.000
84.56174 172.000
84.58169 183.000
84.60164 200.000
84.62158 234.000
84.64153 233.000
84.66148 244.000
84.68142 237.000
84.70137 228.000
84.72132 249.000
84.74127 228.000
84.76121 225.000
84.78116 229.000
84.80111 182.000
84.82105 207.000
84.84100 195.000
84.86095 199.000
84.88089 195.000
84.90084 185.000
84.92079 186.000
84.94074 159.000
84.96068 182.000
84.98063 170.000
85.00058 156.000
85.02052 156.000
85.04047 169.000
85.06042 128.000
85.08036 140.000
85.10031 130.000
85.12026 138.000
85.14021 130.000
85.16015 134.000
85.18010 100.000
85.20005 82.000
85.21999 92.000
85.23994 107.000
85.25989 103.000
85.27983 114.000
85.29978 106.000
85.31973 94.000
85.33967 104.000
85.35962 99.000
85.37957 87.000
85.39952 94.000
85.41946 105.000
85.43941 94.000
85.45936 73.000
85.47930 96.000
85.49925 100.000
85.51920 93.000
85.53914 86.000
85.55909 78.000
85.57904 89.000
85.59899 93.000
85.61893 94.000
85.63888 78.000
85.65883 90.000
85.67877 84.000
85.69872 115.000
85.71867 84.000
85.73861 104.000
85.75856 102.000
85.77851 84.000
85.79845 92.000
85.81840 93.000
85.83835 91.000
85.85830 89.000
85.87824 95.000
85.89819 83.000
85.91814 83.000
85.93808 95.000
85.95803 100.000
85.97798 89.000
85.99792 85.000
86.01787 88.000
86.03782 114.000
86.05777 92.000
86.07771 84.000
86.09766 115.000
86.11761 107.000
86.13755 91.000
86.15750 91.000
86.17745 96.000
86.19739 108.000
86.21734 111.000
86.23729 106.000
86.25723 115.000
86.27718 111.000
86.29713 121.000
86.31708 113.000
86.33702 111.000
86.35697 102.000
86.37692 128.000
86.39686 119.000
86.41681 114.000
86.43676 115.000
86.45670 121.000
86.47665 120.000
86.49660 114.000
86.51655 94.000
86.53649 95.000
86.55644 102.000
86.57639 121.000
86.59633 118.000
86.61628 125.000
86.63623 114.000
86.65617 106.000
86.67612 75.000
86.69607 116.000
86.71602 104.000
86.73596 103.000
86.75591 122.000
86.77586 108.000
86.79580 98.000
86.81575 115.000
86.83570 90.000
86.85564 112.000
86.87559 90.000
86.89554 94.000
86.91548 93.000
86.93543 98.000
86.95538 84.000
86.97533 124.000
86.99527 122.000
87.01522 128.000
87.03517 135.000
87.05511 106.000
87.07506 91.000
87.09501 121.000
87.11495 100.000
87.13490 116.000
87.15485 102.000
87.17480 88.000
87.19474 113.000
87.21469 105.000
87.23464 109.000
87.25458 109.000
87.27453 100.000
87.29448 121.000
87.31442 112.000
87.33437 92.000
87.35432 86.000
87.37426 95.000
87.39421 94.000
87.41416 112.000
87.43411 99.000
87.45405 97.000
87.47400 78.000
87.49395 82.000
87.51389 94.000
87.53384 84.000
87.55379 89.000
87.57373 86.000
87.59368 84.000
87.61363 91.000
87.63358 94.000
87.65352 96.000
87.67347 94.000
87.69342 84.000
87.71336 111.000
87.73331 77.000
87.75326 101.000
87.77320 82.000
87.79315 94.000
87.81310 79.000
87.83304 87.000
87.85299 91.000
87.87294 87.000
87.89289 92.000
87.91283 79.000
87.93278 94.000
87.95273 117.000
87.97267 89.000
87.99262 77.000
88.01257 86.000
88.03251 81.000
88.05246 90.000
88.07241 93.000
88.09236 100.000
88.11230 79.000
88.13225 74.000
88.15220 86.000
88.17214 95.000
88.19209 84.000
88.21204 82.000
88.23198 89.000
88.25193 86.000
88.27188 68.000
88.29183 82.000
88.31177 78.000
88.33172 87.000
88.35167 85.000
88.37161 89.000
88.39156 94.000
88.41151 91.000
88.43145 83.000
88.45140 73.000
88.47135 91.000
88.49129 94.000
88.51124 88.000
88.53119 92.000
88.55114 104.000
88.57108 83.000
88.59103 69.000
88.61098 87.000
88.63092 76.000
88.65087 92.000
88.67082 93.000
88.69076 85.000
88.71071 91.000
88.73066 83.000
88.75061 74.000
88.77055 88.000
88.79050 98.000
88.81045 82.000
88.83039 85.000
88.85034 83.000
88.87029 92.000
88.89023 86.000
88.91018 86.000
88.93013 87.000
88.95007 77.000
88.97002 87.000
88.98997 75.000
89.00992 76.000
89.02986 91.000
89.04981 106.000
89.06976 105.000
89.08970 77.000
89.10965 92.000
89.12960 90.000
89.14954 102.000
89.16949 76.000
89.18944 88.000
89.20939 103.000
89.22933 84.000
89.24928 73.000
89.26923 94.000
89.28917 110.000
89.30912 81.000
89.32907 92.000
89.34901 79.000
89.36896 91.000
89.38891 104.000
89.40885 83.000
89.42880 88.000
89.44875 101.000
89.46870 82.000
89.48864 94.000
89.50859 82.000
89.52854 83.000
89.54848 93.000
89.56843 104.000
89.58838 99.000
89.60832 98.000
89.62827 85.000
89.64822 93.000
89.66817 98.000
89.68811 95.000
89.70806 99.000
89.72801 83.000
89.74795 97.000
89.76790 100.000
89.78785 106.000
89.80779 86.000
89.82774 93.000
89.84769 101.000
89.86764 92.000
89.88758 101.000
89.90753 94.000
89.92748 79.000
89.94742 80.000
89.96737 96.000
89.98732 97.000
90.00726 96.000
