10.00000 114.000
10.01995 102.000
10.03989 122.000
10.05984 112.000
10.07979 108.000
10.09973 104.000
10.11968 120.000
10.13963 121.000
10.15958 120.000
10.17952 109.000
10.19947 122.000
10.21942 104.000
10.23936 139.000
10.25931 123.000
10.27926 126.000
10.29920 97.000
10.31915 137.000
10.33910 124.000
10.35905 132.000
10.37899 111.000
10.39894 125.000
10.41889 116.000
10.43883 116.000
10.45878 122.000
10.47873 111.000
10.49867 117.000
10.51862 117.000
10.53857 113.000
10.55851 104.000
10.57846 94.000
10.59841 147.000
10.61836 128.000
10.63830 105.000
10.65825 94.000
10.67820 119.000
10.69814 105.000
10.71809 119.000
10.73804 106.000
10.75798 114.000
10.77793 115.000
10.79788 109.000
10.81783 111.000
10.83777 104.000
10.85772 101.000
10.87767 111.000
10.89761 128.000
10.91756 113.000
10.93751 99.000
10.95745 110.000
10.97740 108.000
10.99735 94.000
11.01730 112.000
11.03724 99.000
11.05719 134.000
11.07714 101.000
11.09708 110.000
11.11703 88.000
11.13698 113.000
11.15692 109.000
11.17687 123.000
11.19682 112.000
11.21676 125.000
11.23671 125.000
11.25666 105.000
11.27661 118.000
11.29655 126.000
11.31650 119.000
11.33645 110.000
11.35639 110.000
11.37634 136.000
11.39629 98.000
11.41623 112.000
11.43618 99.000
11.45613 106.000
11.47608 125.000
11.49602 110.000
11.51597 103.000
11.53592 119.000
11.55586 103.000
11.57581 121.000
11.59576 114.000
11.61570 108.000
11.63565 110.000
11.65560 118.000
11.67554 125.000
11.69549 132.000
11.71544 103.000
11.73539 110.000
11.75533 107.000
11.77528 120.000
11.79523 113.000
11.81517 126.000
11.83512 120.000
11.85507 124.000
11.87501 120.000
11.89496 115.000
11.91491 104.000
11.93486 100.000
11.95480 112.000
11.97475 106.000
11.99470 126.000
12.01464 129.000
12.03459 110.000
12.05454 108.000
12.07448 111.000
12.09443 110.000
12.11438 121.000
12.13432 112.000
12.15427 97.000
12.17422 118.000
12.19417 94.000
12.21411 110.000
12.23406 121.000
12.25401 116.000
12.27395 114.000
12.29390 110.000
12.31385 119.000
12.33379 110.000
12.35374 96.000
12.37369 113.000
12.39364 103.000
12.41358 113.000
12.43353 119.000
12.45348 112.000
12.47342 99.000
12.49337 123.000
12.51332 132.000
12.53326 106.000
12.55321 121.000
12.57316 115.000
12.59311 126.000
12.61305 125.000
12.63300 107.000
12.65295 116.000
12.67289 118.000
12.69284 116.000
12.71279 122.000
12.73273 92.000
12.75268 128.000
12.77263 108.000
12.79257 115.000
12.81252 115.000
12.83247 113.000
12.85242 114.000
12.87236 125.000
12.89231 98.000
12.91226 108.000
12.93220 115.000
12.95215 111.000
12.97210 97.000
12.99204 121.000
13.01199 117.000
13.03194 109.000
13.05189 100.000
13.07183 109.000
13.09178 113.000
13.11173 132.000
13.13167 87.000
13.15162 114.000
13.17157 82.000
13.19151 108.000
13.21146 115.000
13.23141 98.000
13.25135 121.000
13.27130 90.000
13.29125 105.000
13.31120 114.000
13.33114 106.000
13.35109 121.000
13.37104 119.000
13.39098 111.000
13.41093 108.000
13.43088 109.000
13.45082 119.000
13.47077 105.000
13.49072 117.000
13.51067 110.000
13.53061 89.000
13.55056 124.000
13.57051 112.000
13.59045 101.000
13.61040 121.000
13.63035 97.000
13.65029 116.000
13.67024 109.000
13.69019 103.000
13.71013 111.000
13.73008 109.000
13.75003 89.000
13.76998 113.000
13.78992 115.000
13.80987 114.000
13.82982 109.000
13.84976 105.000
13.86971 95.000
13.88966 109.000
13.90960 98.000
13.92955 97.000
13.94950 105.000
13.96945 122.000
13.98939 115.000
14.00934 103.000
14.02929 89.000
14.04923 93.000
14.06918 122.000
14.08913 107.000
14.10907 97.000
14.12902 97.000
14.14897 97.000
14.16892 109.000
14.18886 88.000
14.20881 113.000
14.22876 110.000
14.24870 121.000
14.26865 109.000
14.28860 113.000
14.30854 95.000
14.32849 107.000
14.34844 111.000
14.36838 85.000
14.38833 103.000
14.40828 103.000
14.42823 117.000
14.44817 117.000
14.46812 132.000
14.48807 110.000
14.50801 113.000
14.52796 113.000
14.54791 104.000
14.56785 114.000
14.58780 111.000
14.60775 113.000
14.62770 116.000
14.64764 97.000
14.66759 90.000
14.68754 112.000
14.70748 99.000
14.72743 104.000
14.74738 95.000
14.76732 96.000
14.78727 116.000
14.80722 90.000
14.82716 103.000
14.84711 102.000
14.86706 110.000
14.88701 115.000
14.90695 102.000
14.92690 120.000
14.94685 100.000
14.96679 103.000
14.98674 102.000
15.00669 104.000
15.02663 96.000
15.04658 113.000
15.06653 118.000
15.08648 102.000
15.10642 113.000
15.12637 126.000
15.14632 106.000
15.16626 107.000
15.18621 107.000
15.20616 113.000
15.22610 103.000
15.24605 117.000
15.26600 104.000
15.28594 114.000
15.30589 117.000
15.32584 99.000
15.34579 106.000
15.36573 125.000
15.38568 120.000
15.40563 108.000
15.42557 115.000
15.44552 104.000
15.46547 112.000
15.48541 115.000
15.50536 125.000
15.52531 104.000
15.54526 124.000
15.56520 131.000
15.58515 125.000
15.60510 152.000
15.62504 152.000
15.64499 153.000
15.66494 212.000
15.68488 282.000
15.70483 385.000
15.72478 413.000
15.74472 463.000
15.76467 354.000
15.78462 282.000
15.80457 206.000
15.82451 171.000
15.84446 160.000
15.86441 144.000
15.88435 142.000
15.90430 168.000
15.92425 178.000
15.94419 246.000
15.96414 260.000
15.98409 250.000
16.00404 286.000
16.02398 305.000
16.04393 387.000
16.06388 374.000
16.08382 440.000
16.10377 513.000
16.12372 635.000
16.14366 799.000
16.16361 928.000
16.18356 952.000
16.20351 953.000
16.22345 786.000
16.24340 522.000
16.26335 375.000
16.28329 252.000
16.30324 175.000
16.32319 172.000
16.34313 154.000
16.36308 142.000
16.38303 121.000
16.40297 138.000
16.42292 122.000
16.44287 117.000
16.46282 126.000
16.48276 99.000
16.50271 120.000
16.52266 107.000
16.54260 124.000
16.56255 135.000
16.58250 119.000
16.60244 124.000
16.62239 127.000
16.64234 119.000
16.66229 119.000
16.68223 120.000
16.70218 111.000
16.72213 119.000
16.74207 111.000
16.76202 118.000
16.78197 119.000
16.80191 106.000
16.82186 124.000
16.84181 104.000
16.86175 105.000
16.88170 145.000
16.90165 115.000
16.92160 121.000
16.94154 117.000
16.96149 110.000
16.98144 115.000
17.00138 105.000
17.02133 115.000
17.04128 108.000
17.06122 115.000
17.08117 110.000
17.10112 102.000
17.12107 113.000
17.14101 129.000
17.16096 116.000
17.18091 99.000
17.20085 110.000
17.22080 124.000
17.24075 107.000
17.26069 115.000
17.28064 106.000
17.30059 113.000
17.32053 112.000
17.34048 103.000
17.36043 95.000
17.38038 117.000
17.40032 117.000
17.42027 121.000
17.44022 127.000
17.46016 111.000
17.48011 88.000
17.50006 116.000
17.52000 112.000
17.53995 111.000
17.55990 90.000
17.57985 98.000
17.59979 106.000
17.61974 127.000
17.63969 118.000
17.65963 112.000
17.67958 109.000
17.69953 114.000
17.71947 121.000
17.73942 125.000
17.75937 130.000
17.77932 122.000
17.79926 115.000
17.81921 114.000
17.83916 132.000
17.85910 98.000
17.87905 123.000
17.89900 104.000
17.91894 111.000
17.93889 122.000
17.95884 102.000
17.97878 139.000
17.99873 104.000
18.01868 118.000
18.03863 127.000
18.05857 157.000
18.07852 187.000
18.09847 214.000
18.11841 318.000
18.13836 461.000
18.15831 599.000
18.17825 780.000
18.19820 826.000
18.21815 696.000
18.23810 518.000
18.25804 346.000
18.27799 215.000
18.29794 145.000
18.31788 143.000
18.33783 123.000
18.35778 119.000
18.37772 118.000
18.39767 105.000
18.41762 113.000
18.43756 104.000
18.45751 115.000
18.47746 104.000
18.49741 116.000
18.51735 112.000
18.53730 110.000
18.55725 86.000
18.57719 104.000
18.59714 131.000
18.61709 119.000
18.63703 97.000
18.65698 95.000
18.67693 103.000
18.69688 82.000
18.71682 97.000
18.73677 92.000
18.75672 95.000
18.77666 111.000
18.79661 122.000
18.81656 104.000
18.83650 96.000
18.85645 113.000
18.87640 104.000
18.89634 111.000
18.91629 104.000
18.93624 109.000
18.95619 114.000
18.97613 110.000
18.99608 92.000
19.01603 91.000
19.03597 99.000
19.05592 145.000
19.07587 116.000
19.09581 104.000
19.11576 98.000
19.13571 105.000
19.15566 101.000
19.17560 111.000
19.19555 117.000
19.21550 113.000
19.23544 96.000
19.25539 99.000
19.27534 85.000
19.29528 96.000
19.31523 96.000
19.33518 113.000
19.35513 120.000
19.37507 104.000
19.39502 114.000
19.41497 109.000
19.43491 96.000
19.45486 93.000
19.47481 101.000
19.49475 122.000
19.51470 85.000
19.53465 127.000
19.55459 94.000
19.57454 91.000
19.59449 92.000
19.61444 114.000
19.63438 115.000
19.65433 97.000
19.67428 105.000
19.69422 114.000
19.71417 126.000
19.73412 97.000
19.75406 110.000
19.77401 87.000
19.79396 90.000
19.81391 93.000
19.83385 105.000
19.85380 87.000
19.87375 99.000
19.89369 102.000
19.91364 99.000
19.93359 123.000
19.95353 99.000
19.97348 86.000
19.99343 108.000
20.01337 103.000
20.03332 87.000
20.05327 93.000
20.07322 101.000
20.09316 111.000
20.11311 90.000
20.13306 83.000
20.15300 118.000
20.17295 105.000
20.19290 95.000
20.21284 90.000
20.23279 104.000
20.25274 102.000
20.27269 112.000
20.29263 95.000
20.31258 92.000
20.33253 118.000
20.35247 119.000
20.37242 105.000
20.39237 108.000
20.41231 91.000
20.43226 98.000
20.45221 90.000
20.47215 118.000
20.49210 115.000
20.51205 98.000
20.53200 90.000
20.55194 108.000
20.57189 115.000
20.59184 126.000
20.61178 125.000
20.63173 152.000
20.65168 114.000
20.67162 146.000
20.69157 140.000
20.71152 181.000
20.73147 193.000
20.75141 223.000
20.77136 268.000
20.79131 284.000
20.81125 304.000
20.83120 297.000
20.85115 305.000
20.87109 268.000
20.89104 251.000
20.91099 221.000
20.93094 209.000
20.95088 189.000
20.97083 170.000
20.99078 148.000
21.01072 121.000
21.03067 121.000
21.05062 117.000
21.07056 108.000
21.09051 102.000
21.11046 118.000
21.13040 107.000
21.15035 101.000
21.17030 81.000
21.19025 105.000
21.21019 100.000
21.23014 120.000
21.25009 96.000
21.27003 122.000
21.28998 86.000
21.30993 115.000
21.32987 109.000
21.34982 103.000
21.36977 109.000
21.38972 106.000
21.40966 105.000
21.42961 98.000
21.44956 103.000
21.46950 100.000
21.48945 82.000
21.50940 106.000
21.52934 99.000
21.54929 124.000
21.56924 107.000
21.58918 107.000
21.60913 110.000
21.62908 105.000
21.64903 100.000
21.66897 100.000
21.68892 115.000
21.70887 89.000
21.72881 97.000
21.74876 82.000
21.76871 95.000
21.78865 113.000
21.80860 103.000
21.82855 126.000
21.84850 96.000
21.86844 107.000
21.88839 105.000
21.90834 100.000
21.92828 116.000
21.94823 116.000
21.96818 100.000
21.98812 99.000
22.00807 91.000
22.02802 107.000
22.04796 111.000
22.06791 110.000
22.08786 97.000
22.10781 97.000
22.12775 97.000
22.14770 110.000
22.16765 114.000
22.18759 113.000
22.20754 94.000
22.22749 99.000
22.24743 91.000
22.26738 97.000
22.28733 99.000
22.30728 132.000
22.32722 116.000
22.34717 103.000
22.36712 104.000
22.38706 103.000
22.40701 92.000
22.42696 114.000
22.44690 94.000
22.46685 123.000
22.48680 95.000
22.50675 101.000
22.52669 104.000
22.54664 124.000
22.56659 90.000
22.58653 81.000
22.60648 100.000
22.62643 110.000
22.64637 110.000
22.66632 98.000
22.68627 87.000
22.70621 92.000
22.72616 110.000
22.74611 110.000
22.76606 90.000
22.78600 102.000
22.80595 107.000
22.82590 100.000
22.84584 104.000
22.86579 96.000
22.88574 78.000
22.90568 93.000
22.92563 126.000
22.94558 110.000
22.96553 120.000
22.98547 98.000
23.00542 96.000
23.02537 103.000
23.04531 100.000
23.06526 101.000
23.08521 111.000
23.10515 108.000
23.12510 95.000
23.14505 106.000
23.16499 95.000
23.18494 109.000
23.20489 91.000
23.22484 102.000
23.24478 101.000
23.26473 106.000
23.28468 90.000
23.30462 105.000
23.32457 97.000
23.34452 82.000
23.36446 117.000
23.38441 93.000
23.40436 101.000
23.42431 130.000
23.44425 108.000
23.46420 94.000
23.48415 96.000
23.50409 93.000
23.52404 104.000
23.54399 120.000
23.56393 126.000
23.58388 103.000
23.60383 122.000
23.62377 102.000
23.64372 101.000
23.66367 87.000
23.68362 94.000
23.70356 78.000
23.72351 93.000
23.74346 93.000
23.76340 104.000
23.78335 111.000
23.80330 85.000
23.82324 100.000
23.84319 115.000
23.86314 117.000
23.88309 94.000
23.90303 106.000
23.92298 107.000
23.94293 115.000
23.96287 95.000
23.98282 112.000
24.00277 105.000
24.02271 108.000
24.04266 96.000
24.06261 110.000
24.08256 106.000
24.10250 95.000
24.12245 112.000
24.14240 114.000
24.16234 101.000
24.18229 112.000
24.20224 123.000
24.22218 104.000
24.24213 101.000
24.26208 97.000
24.28202 89.000
24.30197 120.000
24.32192 116.000
24.34187 106.000
24.36181 108.000
24.38176 105.000
24.40171 141.000
24.42165 99.000
24.44160 115.000
24.46155 91.000
24.48149 79.000
24.50144 114.000
24.52139 118.000
24.54134 106.000
24.56128 107.000
24.58123 90.000
24.60118 114.000
24.62112 100.000
24.64107 99.000
24.66102 105.000
24.68096 96.000
24.70091 73.000
24.72086 96.000
24.74080 115.000
24.76075 95.000
24.78070 106.000
24.80065 100.000
24.82059 105.000
24.84054 116.000
24.86049 103.000
24.88043 114.000
24.90038 110.000
24.92033 104.000
24.94027 110.000
24.96022 101.000
24.98017 91.000
25.00012 108.000
25.02006 94.000
25.04001 94.000
25.05996 107.000
25.07990 105.000
25.09985 90.000
25.11980 111.000
25.13974 116.000
25.15969 99.000
25.17964 100.000
25.19958 119.000
25.21953 122.000
25.23948 105.000
25.25943 111.000
25.27937 115.000
25.29932 117.000
25.31927 107.000
25.33921 104.000
25.35916 106.000
25.37911 113.000
25.39905 108.000
25.41900 116.000
25.43895 105.000
25.45890 117.000
25.47884 98.000
25.49879 106.000
25.51874 105.000
25.53868 94.000
25.55863 98.000
25.57858 119.000
25.59852 92.000
25.61847 108.000
25.63842 92.000
25.65837 104.000
25.67831 103.000
25.69826 93.000
25.71821 127.000
25.73815 112.000
25.75810 96.000
25.77805 94.000
25.79799 82.000
25.81794 91.000
25.83789 86.000
25.85783 96.000
25.87778 96.000
25.89773 116.000
25.91768 135.000
25.93762 106.000
25.95757 108.000
25.97752 105.000
25.99746 104.000
26.01741 119.000
26.03736 112.000
26.05730 94.000
26.07725 113.000
26.09720 87.000
26.11715 97.000
26.13709 104.000
26.15704 101.000
26.17699 117.000
26.19693 104.000
26.21688 106.000
26.23683 104.000
26.25677 107.000
26.27672 111.000
26.29667 96.000
26.31661 119.000
26.33656 117.000
26.35651 111.000
26.37646 100.000
26.39640 113.000
26.41635 107.000
26.43630 114.000
26.45624 95.000
26.47619 96.000
26.49614 89.000
26.51608 115.000
26.53603 103.000
26.55598 102.000
26.57593 117.000
26.59587 106.000
26.61582 101.000
26.63577 118.000
26.65571 113.000
26.67566 114.000
26.69561 103.000
26.71555 106.000
26.73550 91.000
26.75545 89.000
26.77539 116.000
26.79534 109.000
26.81529 119.000
26.83524 107.000
26.85518 112.000
26.87513 117.000
26.89508 96.000
26.91502 105.000
26.93497 94.000
26.95492 119.000
26.97486 92.000
26.99481 101.000
27.01476 114.000
27.03471 113.000
27.05465 113.000
27.07460 123.000
27.09455 109.000
27.11449 105.000
27.13444 109.000
27.15439 104.000
27.17433 98.000
27.19428 105.000
27.21423 111.000
27.23417 110.000
27.25412 105.000
27.27407 115.000
27.29402 128.000
27.31396 97.000
27.33391 87.000
27.35386 99.000
27.37380 98.000
27.39375 90.000
27.41370 107.000
27.43364 110.000
27.45359 99.000
27.47354 98.000
27.49349 105.000
27.51343 124.000
27.53338 107.000
27.55333 111.000
27.57327 120.000
27.59322 131.000
27.61317 96.000
27.63311 123.000
27.65306 105.000
27.67301 99.000
27.69296 118.000
27.71290 120.000
27.73285 100.000
27.75280 109.000
27.77274 102.000
27.79269 117.000
27.81264 115.000
27.83258 116.000
27.85253 118.000
27.87248 115.000
27.89242 98.000
27.91237 103.000
27.93232 105.000
27.95227 97.000
27.97221 87.000
27.99216 112.000
28.01211 111.000
28.03205 123.000
28.05200 110.000
28.07195 99.000
28.09189 109.000
28.11184 130.000
28.13179 114.000
28.15174 104.000
28.17168 116.000
28.19163 109.000
28.21158 126.000
28.23152 114.000
28.25147 121.000
28.27142 110.000
28.29136 87.000
28.31131 106.000
28.33126 106.000
28.35120 122.000
28.37115 105.000
28.39110 118.000
28.41105 117.000
28.43099 99.000
28.45094 94.000
28.47089 90.000
28.49083 106.000
28.51078 105.000
28.53073 107.000
28.55067 106.000
28.57062 108.000
28.59057 106.000
28.61052 111.000
28.63046 103.000
28.65041 117.000
28.67036 138.000
28.69030 128.000
28.71025 118.000
28.73020 108.000
28.75014 107.000
28.77009 117.000
28.79004 121.000
28.80998 127.000
28.82993 137.000
28.84988 121.000
28.86983 122.000
28.88977 107.000
28.90972 100.000
28.92967 117.000
28.94961 125.000
28.96956 105.000
28.98951 108.000
29.00945 127.000
29.02940 121.000
29.04935 117.000
29.06930 93.000
29.08924 107.000
29.10919 122.000
29.12914 130.000
29.14908 91.000
29.16903 110.000
29.18898 93.000
29.20892 129.000
29.22887 127.000
29.24882 108.000
29.26877 111.000
29.28871 122.000
29.30866 115.000
29.32861 117.000
29.34855 119.000
29.36850 145.000
29.38845 125.000
29.40839 130.000
29.42834 118.000
29.44829 160.000
29.46823 130.000
29.48818 119.000
29.50813 118.000
29.52808 111.000
29.54802 119.000
29.56797 126.000
29.58792 121.000
29.60786 130.000
29.62781 107.000
29.64776 116.000
29.66770 119.000
29.68765 126.000
29.70760 129.000
29.72755 147.000
29.74749 161.000
29.76744 169.000
29.78739 202.000
29.80733 212.000
29.82728 276.000
29.84723 386.000
29.86717 514.000
29.88712 667.000
29.90707 856.000
29.92701 954.000
29.94696 952.000
29.96691 767.000
29.98686 744.000
30.00680 686.000
30.02675 508.000
30.04670 347.000
30.06664 273.000
30.08659 200.000
30.10654 191.000
30.12648 159.000
30.14643 158.000
30.16638 131.000
30.18633 119.000
30.20627 112.000
30.22622 130.000
30.24617 102.000
30.26611 122.000
30.28606 125.000
30.30601 127.000
30.32595 124.000
30.34590 120.000
30.36585 102.000
30.38579 136.000
30.40574 123.000
30.42569 135.000
30.44564 123.000
30.46558 126.000
30.48553 114.000
30.50548 107.000
30.52542 109.000
30.54537 120.000
30.56532 110.000
30.58526 103.000
30.60521 115.000
30.62516 104.000
30.64511 105.000
30.66505 117.000
30.68500 107.000
30.70495 123.000
30.72489 118.000
30.74484 114.000
30.76479 116.000
30.78473 111.000
30.80468 114.000
30.82463 124.000
30.84458 130.000
30.86452 109.000
30.88447 93.000
30.90442 111.000
30.92436 119.000
30.94431 120.000
30.96426 129.000
30.98420 105.000
31.00415 111.000
31.02410 123.000
31.04404 117.000
31.06399 133.000
31.08394 129.000
31.10389 137.000
31.12383 108.000
31.14378 113.000
31.16373 109.000
31.18367 107.000
31.20362 112.000
31.22357 105.000
31.24351 117.000
31.26346 126.000
31.28341 116.000
31.30336 120.000
31.32330 116.000
31.34325 104.000
31.36320 123.000
31.38314 99.000
31.40309 122.000
31.42304 121.000
31.44298 117.000
31.46293 109.000
31.48288 90.000
31.50282 131.000
31.52277 104.000
31.54272 122.000
31.56267 110.000
31.58261 122.000
31.60256 133.000
31.62251 126.000
31.64245 100.000
31.66240 117.000
31.68235 133.000
31.70229 112.000
31.72224 127.000
31.74219 130.000
31.76214 143.000
31.78208 131.000
31.80203 142.000
31.82198 159.000
31.84192 132.000
31.86187 118.000
31.88182 132.000
31.90176 119.000
31.92171 101.000
31.94166 113.000
31.96160 117.000
31.98155 108.000
32.00150 133.000
32.02145 115.000
32.04139 120.000
32.06134 94.000
32.08129 110.000
32.10123 138.000
32.12118 113.000
32.14113 111.000
32.16107 109.000
32.18102 111.000
32.20097 108.000
32.22092 117.000
32.24086 123.000
32.26081 113.000
32.28076 133.000
32.30070 119.000
32.32065 123.000
32.34060 102.000
32.36054 123.000
32.38049 126.000
32.40044 109.000
32.42039 141.000
32.44033 126.000
32.46028 138.000
32.48023 135.000
32.50017 153.000
32.52012 139.000
32.54007 147.000
32.56001 173.000
32.57996 157.000
32.59991 171.000
32.61985 169.000
32.63980 152.000
32.65975 161.000
32.67970 192.000
32.69964 197.000
32.71959 241.000
32.73954 220.000
32.75948 195.000
32.77943 160.000
32.79938 167.000
32.81932 168.000
32.83927 150.000
32.85922 138.000
32.87917 150.000
32.89911 122.000
32.91906 122.000
32.93901 117.000
32.95895 107.000
32.97890 109.000
32.99885 108.000
33.01879 113.000
33.03874 147.000
33.05869 106.000
33.07863 125.000
33.09858 115.000
33.11853 128.000
33.13848 106.000
33.15842 115.000
33.17837 100.000
33.19832 106.000
33.21826 117.000
33.23821 111.000
33.25816 120.000
33.27810 112.000
33.29805 97.000
33.31800 129.000
33.33795 120.000
33.35789 128.000
33.37784 119.000
33.39779 103.000
33.41773 119.000
33.43768 117.000
33.45763 113.000
33.47757 120.000
33.49752 122.000
33.51747 100.000
33.53741 112.000
33.55736 129.000
33.57731 118.000
33.59726 116.000
33.61720 118.000
33.63715 126.000
33.65710 142.000
33.67704 128.000
33.69699 139.000
33.71694 118.000
33.73688 138.000
33.75683 146.000
33.77678 140.000
33.79673 152.000
33.81667 139.000
33.83662 129.000
33.85657 147.000
33.87651 147.000
33.89646 121.000
33.91641 138.000
33.93635 135.000
33.95630 130.000
33.97625 121.000
33.99620 141.000
34.01614 149.000
34.03609 121.000
34.05604 137.000
34.07598 160.000
34.09593 115.000
34.11588 147.000
34.13582 152.000
34.15577 176.000
34.17572 169.000
34.19566 175.000
34.21561 159.000
34.23556 181.000
34.25551 211.000
34.27545 219.000
34.29540 236.000
34.31535 232.000
34.33529 233.000
34.35524 219.000
34.37519 255.000
34.39513 233.000
34.41508 243.000
34.43503 240.000
34.45498 249.000
34.47492 194.000
34.49487 209.000
34.51482 222.000
34.53476 199.000
34.55471 194.000
34.57466 173.000
34.59460 186.000
34.61455 153.000
34.63450 179.000
34.65444 186.000
34.67439 166.000
34.69434 165.000
34.71429 198.000
34.73423 184.000
34.75418 183.000
34.77413 173.000
34.79407 190.000
34.81402 168.000
34.83397 184.000
34.85391 201.000
34.87386 165.000
34.89381 171.000
34.91376 163.000
34.93370 177.000
34.95365 218.000
34.97360 217.000
34.99354 231.000
35.01349 266.000
35.03344 283.000
35.05338 344.000
35.07333 365.000
35.09328 477.000
35.11322 578.000
35.13317 719.000
35.15312 1018.000
35.17307 1334.000
35.19301 1722.000
35.21296 2219.000
35.23291 2671.000
35.25285 2899.000
35.27280 2757.000
35.29275 2540.000
35.31269 2280.000
35.33264 2042.000
35.35259 1855.000
35.37254 1465.000
35.39248 1179.000
35.41243 841.000
35.43238 662.000
35.45232 565.000
35.47227 443.000
35.49222 413.000
35.51216 401.000
35.53211 392.000
35.55206 359.000
35.57201 337.000
35.59195 318.000
35.61190 274.000
35.63185 276.000
35.65179 233.000
35.67174 207.000
35.69169 192.000
35.71163 173.000
35.73158 160.000
35.75153 163.000
35.77147 147.000
35.79142 138.000
35.81137 140.000
35.83132 143.000
35.85126 139.000
35.87121 152.000
35.89116 158.000
35.91110 143.000
35.93105 140.000
35.95100 142.000
35.97094 124.000
35.99089 140.000
36.01084 121.000
36.03079 130.000
36.05073 140.000
36.07068 121.000
36.09063 121.000
36.11057 123.000
36.13052 138.000
36.15047 113.000
36.17041 130.000
36.19036 124.000
36.21031 134.000
36.23025 134.000
36.25020 122.000
36.27015 134.000
36.29010 124.000
36.31004 127.000
36.32999 128.000
36.34994 130.000
36.36988 145.000
36.38983 154.000
36.40978 143.000
36.42972 137.000
36.44967 147.000
36.46962 211.000
36.48957 224.000
36.50951 266.000
36.52946 262.000
36.54941 289.000
36.56935 286.000
36.58930 248.000
36.60925 224.000
36.62919 227.000
36.64914 224.000
36.66909 180.000
36.68903 201.000
36.70898 174.000
36.72893 188.000
36.74888 179.000
36.76882 200.000
36.78877 224.000
36.80872 298.000
36.82866 288.000
36.84861 305.000
36.86856 423.000
36.88850 420.000
36.90845 350.000
36.92840 307.000
36.94835 283.000
36.96829 270.000
36.98824 270.000
37.00819 219.000
37.02813 185.000
37.04808 146.000
37.06803 139.000
37.08797 122.000
37.10792 122.000
37.12787 129.000
37.14781 132.000
37.16776 111.000
37.18771 106.000
37.20766 130.000
37.22760 116.000
37.24755 86.000
37.26750 121.000
37.28744 112.000
37.30739 124.000
37.32734 122.000
37.34728 120.000
37.36723 111.000
37.38718 96.000
37.40713 105.000
37.42707 124.000
37.44702 107.000
37.46697 110.000
37.48691 116.000
37.50686 79.000
37.52681 112.000
37.54675 101.000
37.56670 105.000
37.58665 114.000
37.60660 95.000
37.62654 124.000
37.64649 99.000
37.66644 97.000
37.68638 104.000
37.70633 99.000
37.72628 113.000
37.74622 112.000
37.76617 104.000
37.78612 106.000
37.80606 125.000
37.82601 120.000
37.84596 118.000
37.86591 135.000
37.88585 110.000
37.90580 105.000
37.92575 111.000
37.94569 104.000
37.96564 109.000
37.98559 109.000
38.00553 98.000
38.02548 115.000
38.04543 133.000
38.06538 114.000
38.08532 119.000
38.10527 111.000
38.12522 104.000
38.14516 114.000
38.16511 90.000
38.18506 122.000
38.20500 114.000
38.22495 107.000
38.24490 101.000
38.26484 126.000
38.28479 107.000
38.30474 121.000
38.32469 106.000
38.34463 121.000
38.36458 90.000
38.38453 115.000
38.40447 108.000
38.42442 122.000
38.44437 112.000
38.46431 112.000
38.48426 103.000
38.50421 126.000
38.52416 133.000
38.54410 116.000
38.56405 145.000
38.58400 137.000
38.60394 136.000
38.62389 167.000
38.64384 180.000
38.66378 211.000
38.68373 233.000
38.70368 248.000
38.72362 252.000
38.74357 237.000
38.76352 300.000
38.78347 244.000
38.80341 249.000
38.82336 201.000
38.84331 239.000
38.86325 221.000
38.88320 176.000
38.90315 191.000
38.92309 186.000
38.94304 149.000
38.96299 138.000
38.98294 161.000
39.00288 124.000
39.02283 122.000
39.04278 140.000
39.06272 118.000
39.08267 121.000
39.10262 111.000
39.12256 128.000
39.14251 111.000
39.16246 109.000
39.18241 130.000
39.20235 113.000
39.22230 105.000
39.24225 132.000
39.26219 109.000
39.28214 116.000
39.30209 89.000
39.32203 113.000
39.34198 112.000
39.36193 109.000
39.38187 116.000
39.40182 117.000
39.42177 100.000
39.44172 98.000
39.46166 105.000
39.48161 123.000
39.50156 111.000
39.52150 118.000
39.54145 107.000
39.56140 98.000
39.58134 95.000
39.60129 114.000
39.62124 120.000
39.64119 90.000
39.66113 105.000
39.68108 118.000
39.70103 114.000
39.72097 94.000
39.74092 105.000
39.76087 126.000
39.78081 121.000
39.80076 116.000
39.82071 117.000
39.84065 107.000
39.86060 123.000
39.88055 95.000
39.90050 91.000
39.92044 109.000
39.94039 111.000
39.96034 114.000
39.98028 123.000
40.00023 129.000
40.02018 102.000
40.04012 100.000
40.06007 107.000
40.08002 112.000
40.09997 101.000
40.11991 99.000
40.13986 104.000
40.15981 104.000
40.17975 111.000
40.19970 110.000
40.21965 110.000
40.23959 100.000
40.25954 116.000
40.27949 110.000
40.29943 104.000
40.31938 86.000
40.33933 112.000
40.35928 87.000
40.37922 113.000
40.39917 106.000
40.41912 107.000
40.43906 114.000
40.45901 113.000
40.47896 102.000
40.49890 115.000
40.51885 120.000
40.53880 121.000
40.55875 110.000
40.57869 109.000
40.59864 112.000
40.61859 116.000
40.63853 106.000
40.65848 116.000
40.67843 119.000
40.69837 109.000
40.71832 114.000
40.73827 117.000
40.75822 113.000
40.77816 122.000
40.79811 124.000
40.81806 121.000
40.83800 105.000
40.85795 125.000
40.87790 128.000
40.89784 130.000
40.91779 116.000
40.93774 126.000
40.95768 122.000
40.97763 131.000
40.99758 126.000
41.01753 120.000
41.03747 125.000
41.05742 122.000
41.07737 129.000
41.09731 125.000
41.11726 152.000
41.13721 156.000
41.15715 164.000
41.17710 164.000
41.19705 150.000
41.21700 183.000
41.23694 212.000
41.25689 247.000
41.27684 257.000
41.29678 403.000
41.31673 511.000
41.33668 721.000
41.35662 825.000
41.37657 786.000
41.39652 740.000
41.41646 639.000
41.43641 620.000
41.45636 563.000
41.47631 616.000
41.49625 500.000
41.51620 389.000
41.53615 313.000
41.55609 273.000
41.57604 247.000
41.59599 208.000
41.61593 174.000
41.63588 160.000
41.65583 143.000
41.67578 129.000
41.69572 133.000
41.71567 144.000
41.73562 134.000
41.75556 107.000
41.77551 115.000
41.79546 108.000
41.81540 131.000
41.83535 128.000
41.85530 146.000
41.87524 117.000
41.89519 112.000
41.91514 124.000
41.93509 100.000
41.95503 119.000
41.97498 127.000
41.99493 118.000
42.01487 106.000
42.03482 115.000
42.05477 104.000
42.07471 133.000
42.09466 115.000
42.11461 118.000
42.13456 110.000
42.15450 128.000
42.17445 135.000
42.19440 135.000
42.21434 120.000
42.23429 125.000
42.25424 140.000
42.27418 127.000
42.29413 136.000
42.31408 143.000
42.33403 131.000
42.35397 131.000
42.37392 141.000
42.39387 110.000
42.41381 117.000
42.43376 112.000
42.45371 149.000
42.47365 148.000
42.49360 140.000
42.51355 140.000
42.53349 162.000
42.55344 150.000
42.57339 151.000
42.59334 150.000
42.61328 167.000
42.63323 190.000
42.65318 204.000
42.67312 220.000
42.69307 232.000
42.71302 263.000
42.73296 313.000
42.75291 359.000
42.77286 493.000
42.79281 536.000
42.81275 568.000
42.83270 596.000
42.85265 618.000
42.87259 570.000
42.89254 552.000
42.91249 559.000
42.93243 551.000
42.95238 455.000
42.97233 395.000
42.99227 350.000
43.01222 342.000
43.03217 277.000
43.05212 260.000
43.07206 205.000
43.09201 177.000
43.11196 163.000
43.13190 164.000
43.15185 161.000
43.17180 144.000
43.19174 134.000
43.21169 132.000
43.23164 135.000
43.25159 124.000
43.27153 131.000
43.29148 131.000
43.31143 107.000
43.33137 110.000
43.35132 115.000
43.37127 122.000
43.39121 119.000
43.41116 115.000
43.43111 127.000
43.45105 117.000
43.47100 89.000
43.49095 129.000
43.51090 101.000
43.53084 103.000
43.55079 94.000
43.57074 85.000
43.59068 101.000
43.61063 129.000
43.63058 108.000
43.65052 107.000
43.67047 114.000
43.69042 110.000
43.71037 113.000
43.73031 96.000
43.75026 137.000
43.77021 110.000
43.79015 97.000
43.81010 117.000
43.83005 98.000
43.84999 103.000
43.86994 86.000
43.88989 110.000
43.90984 120.000
43.92978 92.000
43.94973 108.000
43.96968 102.000
43.98962 124.000
44.00957 104.000
44.02952 89.000
44.04946 97.000
44.06941 99.000
44.08936 114.000
44.10930 96.000
44.12925 104.000
44.14920 110.000
44.16915 96.000
44.18909 105.000
44.20904 90.000
44.22899 101.000
44.24893 120.000
44.26888 102.000
44.28883 124.000
44.30877 97.000
44.32872 101.000
44.34867 109.000
44.36862 116.000
44.38856 122.000
44.40851 125.000
44.42846 112.000
44.44840 122.000
44.46835 116.000
44.48830 133.000
44.50824 123.000
44.52819 123.000
44.54814 116.000
44.56808 122.000
44.58803 102.000
44.60798 147.000
44.62793 115.000
44.64787 119.000
44.66782 129.000
44.68777 118.000
44.70771 154.000
44.72766 116.000
44.74761 119.000
44.76755 102.000
44.78750 124.000
44.80745 138.000
44.82740 119.000
44.84734 125.000
44.86729 112.000
44.88724 119.000
44.90718 99.000
44.92713 101.000
44.94708 100.000
44.96702 120.000
44.98697 103.000
45.00692 104.000
45.02686 91.000
45.04681 99.000
45.06676 89.000
45.08671 84.000
45.10665 125.000
45.12660 105.000
45.14655 109.000
45.16649 103.000
45.18644 109.000
45.20639 87.000
45.22633 103.000
45.24628 91.000
45.26623 105.000
45.28618 106.000
45.30612 110.000
45.32607 100.000
45.34602 114.000
45.36596 122.000
45.38591 113.000
45.40586 104.000
45.42580 121.000
45.44575 94.000
45.46570 113.000
45.48565 90.000
45.50559 99.000
45.52554 103.000
45.54549 76.000
45.56543 109.000
45.58538 100.000
45.60533 98.000
45.62527 101.000
45.64522 90.000
45.66517 109.000
45.68511 102.000
45.70506 108.000
45.72501 94.000
45.74496 94.000
45.76490 105.000
45.78485 108.000
45.80480 98.000
45.82474 96.000
45.84469 118.000
45.86464 107.000
45.88458 97.000
45.90453 108.000
45.92448 100.000
45.94443 122.000
45.96437 122.000
45.98432 97.000
46.00427 101.000
46.02421 93.000
46.04416 98.000
46.06411 117.000
46.08405 103.000
46.10400 101.000
46.12395 85.000
46.14389 95.000
46.16384 127.000
46.18379 105.000
46.20374 92.000
46.22368 116.000
46.24363 92.000
46.26358 133.000
46.28352 104.000
46.30347 116.000
46.32342 117.000
46.34336 102.000
46.36331 104.000
46.38326 83.000
46.40321 106.000
46.42315 107.000
46.44310 105.000
46.46305 111.000
46.48299 106.000
46.50294 87.000
46.52289 99.000
46.54283 107.000
46.56278 104.000
46.58273 89.000
46.60267 90.000
46.62262 94.000
46.64257 110.000
46.66252 99.000
46.68246 102.000
46.70241 93.000
46.72236 97.000
46.74230 106.000
46.76225 109.000
46.78220 128.000
46.80214 145.000
46.82209 127.000
46.84204 124.000
46.86199 118.000
46.88193 120.000
46.90188 126.000
46.92183 113.000
46.94177 109.000
46.96172 117.000
46.98167 105.000
47.00161 111.000
47.02156 117.000
47.04151 116.000
47.06146 112.000
47.08140 104.000
47.10135 101.000
47.12130 126.000
47.14124 103.000
47.16119 114.000
47.18114 105.000
47.20108 107.000
47.22103 113.000
47.24098 100.000
47.26092 118.000
47.28087 113.000
47.30082 82.000
47.32077 117.000
47.34071 113.000
47.36066 100.000
47.38061 98.000
47.40055 109.000
47.42050 115.000
47.44045 91.000
47.46039 102.000
47.48034 104.000
47.50029 114.000
47.52024 94.000
47.54018 102.000
47.56013 92.000
47.58008 106.000
47.60002 95.000
47.61997 128.000
47.63992 109.000
47.65986 95.000
47.67981 91.000
47.69976 87.000
47.71970 100.000
47.73965 108.000
47.75960 117.000
47.77955 110.000
47.79949 95.000
47.81944 115.000
47.83939 91.000
47.85933 108.000
47.87928 104.000
47.89923 130.000
47.91917 101.000
47.93912 100.000
47.95907 101.000
47.97902 104.000
47.99896 120.000
48.01891 118.000
48.03886 121.000
48.05880 97.000
48.07875 85.000
48.09870 95.000
48.11864 116.000
48.13859 95.000
48.15854 106.000
48.17848 102.000
48.19843 120.000
48.21838 105.000
48.23833 120.000
48.25827 104.000
48.27822 100.000
48.29817 107.000
48.31811 116.000
48.33806 122.000
48.35801 111.000
48.37795 114.000
48.39790 120.000
48.41785 108.000
48.43780 118.000
48.45774 128.000
48.47769 123.000
48.49764 123.000
48.51758 84.000
48.53753 116.000
48.55748 109.000
48.57742 137.000
48.59737 110.000
48.61732 130.000
48.63726 144.000
48.65721 129.000
48.67716 141.000
48.69711 133.000
48.71705 141.000
48.73700 157.000
48.75695 141.000
48.77689 129.000
48.79684 132.000
48.81679 131.000
48.83673 119.000
48.85668 136.000
48.87663 123.000
48.89658 132.000
48.91652 121.000
48.93647 117.000
48.95642 110.000
48.97636 106.000
48.99631 112.000
49.01626 123.000
49.03620 110.000
49.05615 89.000
49.07610 107.000
49.09605 105.000
49.11599 119.000
49.13594 115.000
49.15589 98.000
49.17583 89.000
49.19578 107.000
49.21573 105.000
49.23567 96.000
49.25562 116.000
49.27557 117.000
49.29551 110.000
49.31546 122.000
49.33541 110.000
49.35536 109.000
49.37530 117.000
49.39525 117.000
49.41520 108.000
49.43514 109.000
49.45509 92.000
49.47504 100.000
49.49498 113.000
49.51493 101.000
49.53488 105.000
49.55483 99.000
49.57477 121.000
49.59472 116.000
49.61467 101.000
49.63461 127.000
49.65456 108.000
49.67451 119.000
49.69445 114.000
49.71440 103.000
49.73435 100.000
49.75429 100.000
49.77424 118.000
49.79419 97.000
49.81414 97.000
49.83408 98.000
49.85403 118.000
49.87398 100.000
49.89392 102.000
49.91387 108.000
49.93382 113.000
49.95376 109.000
49.97371 93.000
49.99366 105.000
50.01361 103.000
50.03355 85.000
50.05350 99.000
50.07345 121.000
50.09339 113.000
50.11334 92.000
50.13329 117.000
50.15323 95.000
50.17318 107.000
50.19313 92.000
50.21307 84.000
50.23302 90.000
50.25297 98.000
50.27292 117.000
50.29286 87.000
50.31281 91.000
50.33276 93.000
50.35270 90.000
50.37265 100.000
50.39260 103.000
50.41254 113.000
50.43249 107.000
50.45244 93.000
50.47239 98.000
50.49233 110.000
50.51228 110.000
50.53223 87.000
50.55217 96.000
50.57212 98.000
50.59207 95.000
50.61201 93.000
50.63196 92.000
50.65191 102.000
50.67186 99.000
50.69180 115.000
50.71175 97.000
50.73170 111.000
50.75164 105.000
50.77159 109.000
50.79154 103.000
50.81148 103.000
50.83143 89.000
50.85138 98.000
50.87132 117.000
50.89127 78.000
50.91122 83.000
50.93117 80.000
50.95111 95.000
50.97106 94.000
50.99101 92.000
51.01095 98.000
51.03090 134.000
51.05085 92.000
51.07079 110.000
51.09074 111.000
51.11069 103.000
51.13064 121.000
51.15058 107.000
51.17053 90.000
51.19048 91.000
51.21042 95.000
51.23037 107.000
51.25032 103.000
51.27026 94.000
51.29021 106.000
51.31016 95.000
51.33010 97.000
51.35005 101.000
51.37000 108.000
51.38995 101.000
51.40989 103.000
51.42984 84.000
51.44979 106.000
51.46973 98.000
51.48968 101.000
51.50963 107.000
51.52957 110.000
51.54952 107.000
51.56947 120.000
51.58942 102.000
51.60936 110.000
51.62931 104.000
51.64926 105.000
51.66920 111.000
51.68915 113.000
51.70910 91.000
51.72904 97.000
51.74899 94.000
51.76894 101.000
51.78888 95.000
51.80883 111.000
51.82878 133.000
51.84873 122.000
51.86867 106.000
51.88862 105.000
51.90857 100.000
51.92851 104.000
51.94846 101.000
51.96841 108.000
51.98835 105.000
52.00830 100.000
52.02825 94.000
52.04820 108.000
52.06814 122.000
52.08809 98.000
52.10804 102.000
52.12798 118.000
52.14793 114.000
52.16788 101.000
52.18782 120.000
52.20777 109.000
52.22772 95.000
52.24767 115.000
52.26761 110.000
52.28756 87.000
52.30751 117.000
52.32745 104.000
52.34740 110.000
52.36735 111.000
52.38729 111.000
52.40724 115.000
52.42719 132.000
52.44713 110.000
52.46708 101.000
52.48703 113.000
52.50698 107.000
52.52692 110.000
52.54687 135.000
52.56682 147.000
52.58676 123.000
52.60671 125.000
52.62666 143.000
52.64660 119.000
52.66655 129.000
52.68650 161.000
52.70645 174.000
52.72639 196.000
52.74634 202.000
52.76629 192.000
52.78623 214.000
52.80618 190.000
52.82613 181.000
52.84607 185.000
52.86602 167.000
52.88597 179.000
52.90591 159.000
52.92586 190.000
52.94581 152.000
52.96576 176.000
52.98570 151.000
53.00565 169.000
53.02560 175.000
53.04554 196.000
53.06549 193.000
53.08544 225.000
53.10538 248.000
53.12533 276.000
53.14528 292.000
53.16523 265.000
53.18517 252.000
53.20512 269.000
53.22507 236.000
53.24501 230.000
53.26496 196.000
53.28491 220.000
53.30485 220.000
53.32480 176.000
53.34475 192.000
53.36469 174.000
53.38464 157.000
53.40459 131.000
53.42454 138.000
53.44448 128.000
53.46443 114.000
53.48438 119.000
53.50432 129.000
53.52427 133.000
53.54422 134.000
53.56416 92.000
53.58411 120.000
53.60406 115.000
53.62401 128.000
53.64395 121.000
53.66390 122.000
53.68385 102.000
53.70379 126.000
53.72374 120.000
53.74369 103.000
53.76363 98.000
53.78358 121.000
53.80353 125.000
53.82348 109.000
53.84342 107.000
53.86337 110.000
53.88332 87.000
53.90326 116.000
53.92321 126.000
53.94316 110.000
53.96310 108.000
53.98305 121.000
54.00300 95.000
54.02294 107.000
54.04289 113.000
54.06284 120.000
54.08279 112.000
54.10273 116.000
54.12268 110.000
54.14263 120.000
54.16257 102.000
54.18252 111.000
54.20247 109.000
54.22241 114.000
54.24236 130.000
54.26231 92.000
54.28226 97.000
54.30220 95.000
54.32215 99.000
54.34210 103.000
54.36204 115.000
54.38199 130.000
54.40194 103.000
54.42188 124.000
54.44183 95.000
54.46178 119.000
54.48172 90.000
54.50167 121.000
54.52162 141.000
54.54157 112.000
54.56151 117.000
54.58146 112.000
54.60141 95.000
54.62135 82.000
54.64130 117.000
54.66125 116.000
54.68119 117.000
54.70114 110.000
54.72109 93.000
54.74104 125.000
54.76098 117.000
54.78093 110.000
54.80088 109.000
54.82082 112.000
54.84077 98.000
54.86072 113.000
54.88066 116.000
54.90061 103.000
54.92056 94.000
54.94050 115.000
54.96045 114.000
54.98040 109.000
55.00035 108.000
55.02029 95.000
55.04024 105.000
55.06019 106.000
55.08013 108.000
55.10008 101.000
55.12003 114.000
55.13997 118.000
55.15992 101.000
55.17987 99.000
55.19982 100.000
55.21976 115.000
55.23971 108.000
55.25966 105.000
55.27960 105.000
55.29955 109.000
55.31950 104.000
55.33944 122.000
55.35939 109.000
55.37934 106.000
55.39929 121.000
55.41923 103.000
55.43918 107.000
55.45913 105.000
55.47907 84.000
55.49902 114.000
55.51897 103.000
55.53891 94.000
55.55886 98.000
55.57881 102.000
55.59875 108.000
55.61870 108.000
55.63865 125.000
55.65860 116.000
55.67854 102.000
55.69849 121.000
55.71844 102.000
55.73838 125.000
55.75833 95.000
55.77828 107.000
55.79822 106.000
55.81817 108.000
55.83812 113.000
55.85807 96.000
55.87801 116.000
55.89796 107.000
55.91791 107.000
55.93785 102.000
55.95780 115.000
55.97775 111.000
55.99769 132.000
56.01764 112.000
56.03759 104.000
56.05753 123.000
56.07748 118.000
56.09743 118.000
56.11738 106.000
56.13732 138.000
56.15727 113.000
56.17722 112.000
56.19716 129.000
56.21711 122.000
56.23706 144.000
56.25700 124.000
56.27695 141.000
56.29690 131.000
56.31685 135.000
56.33679 148.000
56.35674 142.000
56.37669 162.000
56.39663 180.000
56.41658 196.000
56.43653 213.000
56.45647 244.000
56.47642 265.000
56.49637 284.000
56.51631 305.000
56.53626 318.000
56.55621 420.000
56.57616 468.000
56.59610 516.000
56.61605 569.000
56.63600 622.000
56.65594 636.000
56.67589 661.000
56.69584 631.000
56.71578 544.000
56.73573 557.000
56.75568 503.000
56.77563 514.000
56.79557 469.000
56.81552 452.000
56.83547 427.000
56.85541 364.000
56.87536 322.000
56.89531 315.000
56.91525 247.000
56.93520 242.000
56.95515 201.000
56.97510 178.000
56.99504 164.000
57.01499 159.000
57.03494 168.000
57.05488 177.000
57.07483 144.000
57.09478 147.000
57.11472 138.000
57.13467 147.000
57.15462 144.000
57.17456 140.000
57.19451 162.000
57.21446 144.000
57.23441 158.000
57.25435 190.000
57.27430 171.000
57.29425 174.000
57.31419 192.000
57.33414 207.000
57.35409 215.000
57.37403 235.000
57.39398 213.000
57.41393 246.000
57.43388 225.000
57.45382 202.000
57.47377 201.000
57.49372 186.000
57.51366 191.000
57.53361 173.000
57.55356 178.000
57.57350 167.000
57.59345 180.000
57.61340 149.000
57.63334 155.000
57.65329 133.000
57.67324 136.000
57.69319 140.000
57.71313 141.000
57.73308 138.000
57.75303 122.000
57.77297 104.000
57.79292 108.000
57.81287 98.000
57.83281 113.000
57.85276 116.000
57.87271 111.000
57.89266 133.000
57.91260 110.000
57.93255 101.000
57.95250 113.000
57.97244 114.000
57.99239 128.000
58.01234 124.000
58.03228 111.000
58.05223 115.000
58.07218 113.000
58.09212 116.000
58.11207 124.000
58.13202 129.000
58.15197 110.000
58.17191 117.000
58.19186 114.000
58.21181 142.000
58.23175 117.000
58.25170 114.000
58.27165 137.000
58.29159 113.000
58.31154 126.000
58.33149 117.000
58.35144 111.000
58.37138 106.000
58.39133 105.000
58.41128 117.000
58.43122 128.000
58.45117 104.000
58.47112 108.000
58.49106 112.000
58.51101 111.000
58.53096 105.000
58.55090 95.000
58.57085 108.000
58.59080 118.000
58.61075 90.000
58.63069 124.000
58.65064 122.000
58.67059 116.000
58.69053 117.000
58.71048 110.000
58.73043 94.000
58.75037 107.000
58.77032 115.000
58.79027 106.000
58.81022 110.000
58.83016 101.000
58.85011 121.000
58.87006 116.000
58.89000 117.000
58.90995 123.000
58.92990 102.000
58.94984 101.000
58.96979 130.000
58.98974 120.000
59.00969 106.000
59.02963 96.000
59.04958 106.000
59.06953 106.000
59.08947 107.000
59.10942 97.000
59.12937 102.000
59.14931 115.000
59.16926 114.000
59.18921 108.000
59.20915 87.000
59.22910 111.000
59.24905 110.000
59.26900 108.000
59.28894 104.000
59.30889 96.000
59.32884 112.000
59.34878 116.000
59.36873 109.000
59.38868 134.000
59.40862 98.000
59.42857 99.000
59.44852 109.000
59.46847 116.000
59.48841 104.000
59.50836 110.000
59.52831 111.000
59.54825 111.000
59.56820 102.000
59.58815 101.000
59.60809 105.000
59.62804 122.000
59.64799 107.000
59.66793 127.000
59.68788 145.000
59.70783 80.000
59.72778 102.000
59.74772 112.000
59.76767 120.000
59.78762 113.000
59.80756 110.000
59.82751 112.000
59.84746 88.000
59.86740 101.000
59.88735 108.000
59.90730 112.000
59.92725 108.000
59.94719 115.000
59.96714 97.000
59.98709 126.000
60.00703 101.000
60.02698 93.000
60.04693 104.000
60.06687 101.000
60.08682 101.000
60.10677 121.000
60.12671 105.000
60.14666 112.000
60.16661 116.000
60.18656 89.000
60.20650 97.000
60.22645 97.000
60.24640 131.000
60.26634 91.000
60.28629 103.000
60.30624 126.000
60.32618 108.000
60.34613 99.000
60.36608 109.000
60.38603 113.000
60.40597 98.000
60.42592 93.000
60.44587 115.000
60.46581 121.000
60.48576 108.000
60.50571 108.000
60.52565 105.000
60.54560 125.000
60.56555 122.000
60.58550 113.000
60.60544 101.000
60.62539 98.000
60.64534 114.000
60.66528 108.000
60.68523 124.000
60.70518 117.000
60.72512 98.000
60.74507 95.000
60.76502 97.000
60.78496 119.000
60.80491 90.000
60.82486 112.000
60.84481 105.000
60.86475 101.000
60.88470 104.000
60.90465 114.000
60.92459 120.000
60.94454 109.000
60.96449 105.000
60.98443 126.000
61.00438 113.000
61.02433 120.000
61.04428 111.000
61.06422 129.000
61.08417 96.000
61.10412 128.000
61.12406 116.000
61.14401 136.000
61.16396 148.000
61.18390 98.000
61.20385 125.000
61.22380 109.000
61.24374 140.000
61.26369 121.000
61.28364 128.000
61.30359 118.000
61.32353 120.000
61.34348 128.000
61.36343 149.000
61.38337 145.000
61.40332 139.000
61.42327 147.000
61.44321 159.000
61.46316 160.000
61.48311 139.000
61.50306 143.000
61.52300 182.000
61.54295 167.000
61.56290 168.000
61.58284 158.000
61.60279 146.000
61.62274 164.000
61.64268 160.000
61.66263 161.000
61.68258 154.000
61.70252 174.000
61.72247 166.000
61.74242 151.000
61.76237 161.000
61.78231 166.000
61.80226 175.000
61.82221 185.000
61.84215 206.000
61.86210 186.000
61.88205 188.000
61.90199 196.000
61.92194 178.000
61.94189 197.000
61.96184 223.000
61.98178 258.000
62.00173 241.000
62.02168 260.000
62.04162 304.000
62.06157 344.000
62.08152 440.000
62.10146 511.000
62.12141 569.000
62.14136 648.000
62.16131 724.000
62.18125 811.000
62.20120 830.000
62.22115 793.000
62.24109 803.000
62.26104 748.000
62.28099 732.000
62.30093 753.000
62.32088 657.000
62.34083 642.000
62.36077 675.000
62.38072 614.000
62.40067 644.000
62.42062 566.000
62.44056 484.000
62.46051 444.000
62.48046 377.000
62.50040 324.000
62.52035 295.000
62.54030 292.000
62.56024 254.000
62.58019 264.000
62.60014 240.000
62.62009 209.000
62.64003 187.000
62.65998 171.000
62.67993 189.000
62.69987 159.000
62.71982 123.000
62.73977 158.000
62.75971 131.000
62.77966 160.000
62.79961 128.000
62.81955 126.000
62.83950 134.000
62.85945 154.000
62.87940 145.000
62.89934 109.000
62.91929 147.000
62.93924 123.000
62.95918 134.000
62.97913 129.000
62.99908 140.000
63.01902 121.000
63.03897 130.000
63.05892 140.000
63.07887 140.000
63.09881 106.000
63.11876 109.000
63.13871 104.000
63.15865 124.000
63.17860 130.000
63.19855 116.000
63.21849 100.000
63.23844 117.000
63.25839 116.000
63.27833 113.000
63.29828 94.000
63.31823 122.000
63.33818 122.000
63.35812 104.000
63.37807 102.000
63.39802 100.000
63.41796 130.000
63.43791 114.000
63.45786 111.000
63.47780 106.000
63.49775 110.000
63.51770 110.000
63.53765 123.000
63.55759 96.000
63.57754 101.000
63.59749 96.000
63.61743 105.000
63.63738 93.000
63.65733 116.000
63.67727 133.000
63.69722 130.000
63.71717 126.000
63.73712 113.000
63.75706 105.000
63.77701 113.000
63.79696 121.000
63.81690 113.000
63.83685 106.000
63.85680 113.000
63.87674 120.000
63.89669 119.000
63.91664 105.000
63.93658 91.000
63.95653 117.000
63.97648 93.000
63.99643 99.000
64.01637 106.000
64.03632 104.000
64.05627 88.000
64.07621 97.000
64.09616 123.000
64.11611 104.000
64.13605 115.000
64.15600 110.000
64.17595 117.000
64.19590 115.000
64.21584 113.000
64.23579 95.000
64.25574 111.000
64.27568 94.000
64.29563 111.000
64.31558 128.000
64.33552 106.000
64.35547 110.000
64.37542 77.000
64.39536 91.000
64.41531 100.000
64.43526 104.000
64.45521 119.000
64.47515 101.000
64.49510 112.000
64.51505 110.000
64.53499 98.000
64.55494 116.000
64.57489 120.000
64.59483 107.000
64.61478 101.000
64.63473 101.000
64.65468 129.000
64.67462 117.000
64.69457 120.000
64.71452 127.000
64.73446 101.000
64.75441 101.000
64.77436 104.000
64.79430 129.000
64.81425 109.000
64.83420 112.000
64.85414 124.000
64.87409 141.000
64.89404 136.000
64.91399 150.000
64.93393 152.000
64.95388 147.000
64.97383 147.000
64.99377 145.000
65.01372 151.000
65.03367 165.000
65.05361 127.000
65.07356 131.000
65.09351 132.000
65.11346 153.000
65.13340 129.000
65.15335 132.000
65.17330 133.000
65.19324 128.000
65.21319 133.000
65.23314 125.000
65.25308 113.000
65.27303 118.000
65.29298 127.000
65.31293 134.000
65.33287 156.000
65.35282 147.000
65.37277 138.000
65.39271 163.000
65.41266 175.000
65.43261 156.000
65.45255 125.000
65.47250 145.000
65.49245 150.000
65.51239 139.000
65.53234 147.000
65.55229 149.000
65.57224 125.000
65.59218 131.000
65.61213 142.000
65.63208 128.000
65.65202 126.000
65.67197 112.000
65.69192 124.000
65.71186 137.000
65.73181 145.000
65.75176 120.000
65.77171 110.000
65.79165 125.000
65.81160 124.000
65.83155 126.000
65.85149 116.000
65.87144 121.000
65.89139 125.000
65.91133 119.000
65.93128 115.000
65.95123 137.000
65.97117 132.000
65.99112 145.000
66.01107 134.000
66.03102 127.000
66.05096 120.000
66.07091 113.000
66.09086 119.000
66.11080 129.000
66.13075 126.000
66.15070 132.000
66.17064 145.000
66.19059 141.000
66.21054 121.000
66.23049 137.000
66.25043 137.000
66.27038 119.000
66.29033 118.000
66.31027 117.000
66.33022 143.000
66.35017 121.000
66.37011 117.000
66.39006 131.000
66.41001 126.000
66.42995 100.000
66.44990 141.000
66.46985 116.000
66.48980 105.000
66.50974 115.000
66.52969 112.000
66.54964 118.000
66.56958 120.000
66.58953 107.000
66.60948 95.000
66.62942 102.000
66.64937 123.000
66.66932 116.000
66.68927 97.000
66.70921 117.000
66.72916 100.000
66.74911 97.000
66.76905 122.000
66.78900 104.000
66.80895 103.000
66.82889 124.000
66.84884 103.000
66.86879 101.000
66.88874 108.000
66.90868 105.000
66.92863 101.000
66.94858 104.000
66.96852 93.000
66.98847 87.000
67.00842 114.000
67.02836 120.000
67.04831 109.000
67.06826 111.000
67.08820 97.000
67.10815 112.000
67.12810 93.000
67.14805 117.000
67.16799 122.000
67.18794 118.000
67.20789 107.000
67.22783 97.000
67.24778 84.000
67.26773 105.000
67.28767 89.000
67.30762 111.000
67.32757 83.000
67.34752 131.000
67.36746 120.000
67.38741 137.000
67.40736 109.000
67.42730 119.000
67.44725 116.000
67.46720 113.000
67.48714 118.000
67.50709 101.000
67.52704 117.000
67.54698 125.000
67.56693 114.000
67.58688 126.000
67.60683 145.000
67.62677 128.000
67.64672 134.000
67.66667 133.000
67.68661 158.000
67.70656 147.000
67.72651 148.000
67.74645 124.000
67.76640 118.000
67.78635 124.000
67.80630 98.000
67.82624 134.000
67.84619 137.000
67.86614 109.000
67.88608 133.000
67.90603 130.000
67.92598 142.000
67.94592 135.000
67.96587 118.000
67.98582 93.000
68.00576 119.000
68.02571 112.000
68.04566 148.000
68.06561 138.000
68.08555 122.000
68.10550 111.000
68.12545 128.000
68.14539 131.000
68.16534 116.000
68.18529 124.000
68.20523 114.000
68.22518 124.000
68.24513 127.000
68.26508 129.000
68.28502 127.000
68.30497 115.000
68.32492 113.000
68.34486 107.000
68.36481 129.000
68.38476 113.000
68.40470 116.000
68.42465 121.000
68.44460 128.000
68.46455 124.000
68.48449 107.000
68.50444 123.000
68.52439 97.000
68.54433 99.000
68.56428 115.000
68.58423 118.000
68.60417 113.000
68.62412 97.000
68.64407 104.000
68.66401 101.000
68.68396 105.000
68.70391 106.000
68.72386 103.000
68.74380 117.000
68.76375 138.000
68.78370 115.000
68.80364 107.000
68.82359 98.000
68.84354 116.000
68.86348 115.000
68.88343 99.000
68.90338 103.000
68.92333 106.000
68.94327 100.000
68.96322 105.000
68.98317 89.000
69.00311 89.000
69.02306 98.000
69.04301 113.000
69.06295 85.000
69.08290 130.000
69.10285 122.000
69.12279 122.000
69.14274 121.000
69.16269 98.000
69.18264 96.000
69.20258 80.000
69.22253 112.000
69.24248 83.000
69.26242 102.000
69.28237 107.000
69.30232 96.000
69.32226 92.000
69.34221 122.000
69.36216 98.000
69.38211 97.000
69.40205 85.000
69.42200 103.000
69.44195 96.000
69.46189 123.000
69.48184 113.000
69.50179 95.000
69.52173 114.000
69.54168 112.000
69.56163 108.000
69.58157 105.000
69.60152 93.000
69.62147 115.000
69.64142 113.000
69.66136 120.000
69.68131 111.000
69.70126 102.000
69.72120 103.000
69.74115 110.000
69.76110 99.000
69.78104 102.000
69.80099 100.000
69.82094 86.000
69.84089 104.000
69.86083 101.000
69.88078 103.000
69.90073 101.000
69.92067 105.000
69.94062 99.000
69.96057 99.000
69.98051 112.000
70.00046 102.000
70.02041 106.000
70.04035 107.000
70.06030 103.000
70.08025 87.000
70.10020 104.000
70.12014 118.000
70.14009 98.000
70.16004 101.000
70.17998 106.000
70.19993 125.000
70.21988 119.000
70.23982 100.000
70.25977 113.000
70.27972 113.000
70.29967 125.000
70.31961 99.000
70.33956 131.000
70.35951 138.000
70.37945 105.000
70.39940 133.000
70.41935 149.000
70.43929 141.000
70.45924 149.000
70.47919 123.000
70.49914 111.000
70.51908 150.000
70.53903 126.000
70.55898 131.000
70.57892 144.000
70.59887 145.000
70.61882 149.000
70.63876 160.000
70.65871 116.000
70.67866 135.000
70.69860 126.000
70.71855 154.000
70.73850 119.000
70.75845 141.000
70.77839 105.000
70.79834 122.000
70.81829 122.000
70.83823 126.000
70.85818 120.000
70.87813 110.000
70.89807 99.000
70.91802 121.000
70.93797 105.000
70.95792 112.000
70.97786 116.000
70.99781 119.000
71.01776 96.000
71.03770 110.000
71.05765 104.000
71.07760 110.000
71.09754 114.000
71.11749 94.000
71.13744 115.000
71.15738 102.000
71.17733 103.000
71.19728 112.000
71.21723 102.000
71.23717 99.000
71.25712 122.000
71.27707 105.000
71.29701 94.000
71.31696 93.000
71.33691 100.000
71.35685 114.000
71.37680 112.000
71.39675 112.000
71.41670 96.000
71.43664 104.000
71.45659 106.000
71.47654 98.000
71.49648 106.000
71.51643 107.000
71.53638 118.000
71.55632 105.000
71.57627 129.000
71.59622 79.000
71.61616 107.000
71.63611 107.000
71.65606 105.000
71.67601 101.000
71.69595 88.000
71.71590 106.000
71.73585 111.000
71.75579 109.000
71.77574 124.000
71.79569 111.000
71.81563 111.000
71.83558 112.000
71.85553 113.000
71.87548 104.000
71.89542 114.000
71.91537 95.000
71.93532 109.000
71.95526 104.000
71.97521 101.000
71.99516 111.000
72.01510 116.000
72.03505 98.000
72.05500 93.000
72.07495 110.000
72.09489 124.000
72.11484 96.000
72.13479 118.000
72.15473 114.000
72.17468 106.000
72.19463 131.000
72.21457 131.000
72.23452 121.000
72.25447 154.000
72.27441 151.000
72.29436 151.000
72.31431 148.000
72.33426 117.000
72.35420 149.000
72.37415 124.000
72.39410 143.000
72.41404 123.000
72.43399 125.000
72.45394 149.000
72.47388 126.000
72.49383 132.000
72.51378 118.000
72.53373 111.000
72.55367 128.000
72.57362 134.000
72.59357 103.000
72.61351 118.000
72.63346 132.000
72.65341 139.000
72.67335 108.000
72.69330 107.000
72.71325 123.000
72.73319 124.000
72.75314 112.000
72.77309 107.000
72.79304 119.000
72.81298 147.000
72.83293 125.000
72.85288 117.000
72.87282 114.000
72.89277 125.000
72.91272 99.000
72.93266 128.000
72.95261 123.000
72.97256 102.000
72.99251 120.000
73.01245 126.000
73.03240 137.000
73.05235 100.000
73.07229 128.000
73.09224 118.000
73.11219 104.000
73.13213 131.000
73.15208 120.000
73.17203 136.000
73.19197 133.000
73.21192 126.000
73.23187 161.000
73.25182 138.000
73.27176 140.000
73.29171 143.000
73.31166 142.000
73.33160 145.000
73.35155 146.000
73.37150 129.000
73.39144 157.000
73.41139 144.000
73.43134 154.000
73.45129 173.000
73.47123 198.000
73.49118 200.000
73.51113 204.000
73.53107 214.000
73.55102 234.000
73.57097 261.000
73.59091 222.000
73.61086 256.000
73.63081 207.000
73.65076 200.000
73.67070 216.000
73.69065 203.000
73.71060 212.000
73.73054 184.000
73.75049 211.000
73.77044 191.000
73.79038 188.000
73.81033 189.000
73.83028 194.000
73.85022 199.000
73.87017 150.000
73.89012 127.000
73.91007 146.000
73.93001 133.000
73.94996 142.000
73.96991 132.000
73.98985 126.000
74.00980 134.000
74.02975 120.000
74.04969 114.000
74.06964 108.000
74.08959 146.000
74.10954 133.000
74.12948 136.000
74.14943 123.000
74.16938 120.000
74.18932 107.000
74.20927 111.000
74.22922 111.000
74.24916 113.000
74.26911 112.000
74.28906 108.000
74.30900 124.000
74.32895 123.000
74.34890 130.000
74.36885 145.000
74.38879 125.000
74.40874 161.000
74.42869 141.000
74.44863 152.000
74.46858 157.000
74.48853 171.000
74.50847 171.000
74.52842 180.000
74.54837 143.000
74.56832 192.000
74.58826 176.000
74.60821 186.000
74.62816 178.000
74.64810 161.000
74.66805 170.000
74.68800 169.000
74.70794 162.000
74.72789 191.000
74.74784 156.000
74.76778 169.000
74.78773 146.000
74.80768 150.000
74.82763 143.000
74.84757 160.000
74.86752 159.000
74.88747 135.000
74.90741 128.000
74.92736 122.000
74.94731 143.000
74.96725 129.000
74.98720 121.000
75.00715 113.000
75.02710 116.000
75.04704 129.000
75.06699 111.000
75.08694 122.000
75.10688 130.000
75.12683 99.000
75.14678 124.000
75.16672 117.000
75.18667 119.000
75.20662 100.000
75.22657 91.000
75.24651 114.000
75.26646 128.000
75.28641 115.000
75.30635 115.000
75.32630 126.000
75.34625 117.000
75.36619 100.000
75.38614 117.000
75.40609 92.000
75.42603 95.000
75.44598 118.000
75.46593 99.000
75.48588 107.000
75.50582 101.000
75.52577 95.000
75.54572 97.000
75.56566 121.000
75.58561 98.000
75.60556 111.000
75.62550 100.000
75.64545 106.000
75.66540 97.000
75.68535 119.000
75.70529 99.000
75.72524 102.000
75.74519 101.000
75.76513 107.000
75.78508 114.000
75.80503 115.000
75.82497 99.000
75.84492 101.000
75.86487 114.000
75.88481 103.000
75.90476 99.000
75.92471 94.000
75.94466 100.000
75.96460 120.000
75.98455 113.000
76.00450 113.000
76.02444 106.000
76.04439 94.000
76.06434 105.000
76.08428 92.000
76.10423 99.000
76.12418 112.000
76.14413 130.000
76.16407 99.000
76.18402 111.000
76.20397 107.000
76.22391 99.000
76.24386 83.000
76.26381 100.000
76.28375 113.000
76.30370 101.000
76.32365 87.000
76.34359 100.000
76.36354 108.000
76.38349 104.000
76.40344 96.000
76.42338 97.000
76.44333 101.000
76.46328 89.000
76.48322 102.000
76.50317 93.000
76.52312 96.000
76.54306 94.000
76.56301 93.000
76.58296 105.000
76.60291 108.000
76.62285 95.000
76.64280 105.000
76.66275 94.000
76.68269 96.000
76.70264 120.000
76.72259 114.000
76.74253 111.000
76.76248 93.000
76.78243 112.000
76.80238 133.000
76.82232 117.000
76.84227 92.000
76.86222 100.000
76.88216 125.000
76.90211 116.000
76.92206 89.000
76.94200 109.000
76.96195 87.000
76.98190 105.000
77.00184 93.000
77.02179 104.000
77.04174 91.000
77.06169 131.000
77.08163 115.000
77.10158 98.000
77.12153 99.000
77.14147 109.000
77.16142 100.000
77.18137 95.000
77.20131 117.000
77.22126 117.000
77.24121 104.000
77.26116 97.000
77.28110 105.000
77.30105 93.000
77.32100 92.000
77.34094 101.000
77.36089 99.000
77.38084 117.000
77.40078 113.000
77.42073 116.000
77.44068 126.000
77.46062 110.000
77.48057 107.000
77.50052 115.000
77.52047 102.000
77.54041 106.000
77.56036 147.000
77.58031 112.000
77.60025 141.000
77.62020 140.000
77.64015 134.000
77.66009 134.000
77.68004 128.000
77.69999 152.000
77.71994 145.000
77.73988 129.000
77.75983 118.000
77.77978 135.000
77.79972 146.000
77.81967 129.000
77.83962 107.000
77.85956 137.000
77.87951 119.000
77.89946 118.000
77.91940 112.000
77.93935 114.000
77.95930 132.000
77.97925 128.000
77.99919 122.000
78.01914 101.000
78.03909 111.000
78.05903 113.000
78.07898 136.000
78.09893 107.000
78.11887 113.000
78.13882 121.000
78.15877 117.000
78.17872 117.000
78.19866 101.000
78.21861 120.000
78.23856 115.000
78.25850 99.000
78.27845 102.000
78.29840 111.000
78.31834 124.000
78.33829 112.000
78.35824 119.000
78.37819 125.000
78.39813 115.000
78.41808 136.000
78.43803 132.000
78.45797 127.000
78.47792 155.000
78.49787 166.000
78.51781 160.000
78.53776 161.000
78.55771 156.000
78.57765 119.000
78.59760 144.000
78.61755 115.000
78.63750 148.000
78.65744 126.000
78.67739 142.000
78.69734 141.000
78.71728 129.000
78.73723 143.000
78.75718 140.000
78.77712 128.000
78.79707 116.000
78.81702 115.000
78.83697 113.000
78.85691 99.000
78.87686 111.000
78.89681 97.000
78.91675 95.000
78.93670 104.000
78.95665 123.000
78.97659 96.000
78.99654 121.000
79.01649 132.000
79.03643 97.000
79.05638 105.000
79.07633 107.000
79.09628 101.000
79.11622 95.000
79.13617 107.000
79.15612 113.000
79.17606 112.000
79.19601 107.000
79.21596 94.000
79.23590 93.000
79.25585 103.000
79.27580 88.000
79.29575 97.000
79.31569 125.000
79.33564 100.000
79.35559 116.000
79.37553 93.000
79.39548 103.000
79.41543 118.000
79.43537 112.000
79.45532 98.000
79.47527 92.000
79.49521 88.000
79.51516 115.000
79.53511 91.000
79.55506 104.000
79.57500 93.000
79.59495 100.000
79.61490 107.000
79.63484 99.000
79.65479 89.000
79.67474 101.000
79.69468 119.000
79.71463 110.000
79.73458 93.000
79.75453 90.000
79.77447 100.000
79.79442 111.000
79.81437 99.000
79.83431 94.000
79.85426 105.000
79.87421 97.000
79.89415 96.000
79.91410 119.000
79.93405 90.000
79.95399 93.000
79.97394 116.000
79.99389 100.000
80.01384 116.000
80.03378 103.000
80.05373 119.000
80.07368 114.000
80.09362 103.000
80.11357 100.000
80.13352 88.000
80.15346 99.000
80.17341 102.000
80.19336 110.000
80.21331 103.000
80.23325 100.000
80.25320 117.000
80.27315 101.000
80.29309 111.000
80.31304 100.000
80.33299 107.000
80.35293 90.000
80.37288 111.000
80.39283 100.000
80.41278 84.000
80.43272 102.000
80.45267 120.000
80.47262 100.000
80.49256 93.000
80.51251 108.000
80.53246 82.000
80.55240 100.000
80.57235 96.000
80.59230 93.000
80.61224 102.000
80.63219 95.000
80.65214 102.000
80.67209 113.000
80.69203 109.000
80.71198 105.000
80.73193 92.000
80.75187 102.000
80.77182 97.000
80.79177 88.000
80.81171 97.000
80.83166 81.000
80.85161 89.000
80.87156 112.000
80.89150 86.000
80.91145 116.000
80.93140 101.000
80.95134 89.000
80.97129 113.000
80.99124 102.000
81.01118 101.000
81.03113 96.000
81.05108 96.000
81.07102 107.000
81.09097 114.000
81.11092 95.000
81.13087 87.000
81.15081 106.000
81.17076 97.000
81.19071 98.000
81.21065 116.000
81.23060 118.000
81.25055 99.000
81.27049 116.000
81.29044 98.000
81.31039 92.000
81.33034 107.000
81.35028 106.000
81.37023 126.000
81.39018 98.000
81.41012 113.000
81.43007 114.000
81.45002 96.000
81.46996 106.000
81.48991 127.000
81.50986 111.000
81.52980 119.000
81.54975 111.000
81.56970 95.000
81.58965 118.000
81.60959 112.000
81.62954 96.000
81.64949 110.000
81.66943 96.000
81.68938 100.000
81.70933 114.000
81.72927 106.000
81.74922 101.000
81.76917 89.000
81.78912 91.000
81.80906 105.000
81.82901 106.000
81.84896 95.000
81.86890 105.000
81.88885 113.000
81.90880 115.000
81.92874 99.000
81.94869 99.000
81.96864 98.000
81.98859 111.000
82.00853 108.000
82.02848 107.000
82.04843 108.000
82.06837 95.000
82.08832 120.000
82.10827 106.000
82.12821 104.000
82.14816 98.000
82.16811 92.000
82.18805 82.000
82.20800 111.000
82.22795 92.000
82.24790 106.000
82.26784 116.000
82.28779 121.000
82.30774 105.000
82.32768 96.000
82.34763 89.000
82.36758 94.000
82.38752 106.000
82.40747 92.000
82.42742 104.000
82.44737 84.000
82.46731 109.000
82.48726 107.000
82.50721 107.000
82.52715 109.000
82.54710 106.000
82.56705 101.000
82.58699 89.000
82.60694 108.000
82.62689 105.000
82.64683 103.000
82.66678 116.000
82.68673 102.000
82.70668 97.000
82.72662 94.000
82.74657 95.000
82.76652 100.000
82.78646 107.000
82.80641 101.000
82.82636 99.000
82.84630 95.000
82.86625 98.000
82.88620 99.000
82.90615 103.000
82.92609 106.000
82.94604 111.000
82.96599 105.000
82.98593 90.000
83.00588 109.000
83.02583 102.000
83.04577 96.000
83.06572 95.000
83.08567 106.000
83.10561 100.000
83.12556 107.000
83.14551 97.000
83.16546 97.000
83.18540 109.000
83.20535 104.000
83.22530 116.000
83.24524 98.000
83.26519 92.000
83.28514 100.000
83.30508 117.000
83.32503 112.000
83.34498 108.000
83.36493 111.000
83.38487 96.000
83.40482 110.000
83.42477 102.000
83.44471 95.000
83.46466 102.000
83.48461 109.000
83.50455 131.000
83.52450 105.000
83.54445 115.000
83.56440 96.000
83.58434 116.000
83.60429 93.000
83.62424 114.000
83.64418 83.000
83.66413 97.000
83.68408 111.000
83.70402 84.000
83.72397 106.000
83.74392 112.000
83.76386 95.000
83.78381 98.000
83.80376 99.000
83.82371 104.000
83.84365 108.000
83.86360 99.000
83.88355 95.000
83.90349 112.000
83.92344 97.000
83.94339 114.000
83.96333 108.000
83.98328 99.000
84.00323 100.000
84.02318 88.000
84.04312 125.000
84.06307 113.000
84.08302 119.000
84.10296 117.000
84.12291 107.000
84.14286 103.000
84.16280 104.000
84.18275 121.000
84.20270 96.000
84.22264 114.000
84.24259 111.000
84.26254 132.000
84.28249 121.000
84.30243 105.000
84.32238 107.000
84.34233 119.000
84.36227 97.000
84.38222 105.000
84.40217 77.000
84.42211 100.000
84.44206 120.000
84.46201 82.000
84.48196 112.000
84.50190 111.000
84.52185 98.000
84.54180 104.000
84.56174 103.000
84.58169 116.000
84.60164 104.000
84.62158 90.000
84.64153 107.000
84.66148 95.000
84.68142 106.000
84.70137 94.000
84.72132 109.000
84.74127 92.000
84.76121 96.000
84.78116 99.000
84.80111 94.000
84.82105 85.000
84.84100 104.000
84.86095 102.000
84.88089 105.000
84.90084 97.000
84.92079 102.000
84.94074 106.000
84.96068 113.000
84.98063 89.000
85.00058 99.000
85.02052 98.000
85.04047 96.000
85.06042 113.000
85.08036 111.000
85.10031 103.000
85.12026 129.000
85.14021 115.000
85.16015 104.000
85.18010 88.000
85.20005 117.000
85.21999 106.000
85.23994 105.000
85.25989 103.000
85.27983 105.000
85.29978 122.000
85.31973 105.000
85.33967 98.000
85.35962 103.000
85.37957 108.000
85.39952 112.000
85.41946 103.000
85.43941 97.000
85.45936 110.000
85.47930 106.000
85.49925 108.000
85.51920 128.000
85.53914 110.000
85.55909 103.000
85.57904 78.000
85.59899 93.000
85.61893 89.000
85.63888 100.000
85.65883 114.000
85.67877 95.000
85.69872 99.000
85.71867 109.000
85.73861 103.000
85.75856 104.000
85.77851 107.000
85.79845 125.000
85.81840 110.000
85.83835 104.000
85.85830 126.000
85.87824 118.000
85.89819 110.000
85.91814 112.000
85.93808 141.000
85.95803 113.000
85.97798 114.000
85.99792 123.000
86.01787 115.000
86.03782 129.000
86.05777 131.000
86.07771 144.000
86.09766 130.000
86.11761 129.000
86.13755 133.000
86.15750 138.000
86.17745 164.000
86.19739 136.000
86.21734 137.000
86.23729 139.000
86.25723 138.000
86.27718 159.000
86.29713 137.000
86.31708 160.000
86.33702 149.000
86.35697 139.000
86.37692 156.000
86.39686 148.000
86.41681 127.000
86.43676 137.000
86.45670 136.000
86.47665 149.000
86.49660 122.000
86.51655 136.000
86.53649 129.000
86.55644 111.000
86.57639 118.000
86.59633 121.000
86.61628 119.000
86.63623 118.000
86.65617 104.000
86.67612 89.000
86.69607 120.000
86.71602 135.000
86.73596 101.000
86.75591 126.000
86.77586 126.000
86.79580 103.000
86.81575 126.000
86.83570 93.000
86.85564 81.000
86.87559 100.000
86.89554 98.000
86.91548 105.000
86.93543 107.000
86.95538 112.000
86.97533 106.000
86.99527 101.000
87.01522 97.000
87.03517 94.000
87.05511 114.000
87.07506 107.000
87.09501 105.000
87.11495 126.000
87.13490 88.000
87.15485 135.000
87.17480 127.000
87.19474 101.000
87.21469 93.000
87.23464 98.000
87.25458 100.000
87.27453 101.000
87.29448 99.000
87.31442 98.000
87.33437 94.000
87.35432 117.000
87.37426 118.000
87.39421 96.000
87.41416 114.000
87.43411 92.000
87.45405 123.000
87.47400 107.000
87.49395 92.000
87.51389 95.000
87.53384 101.000
87.55379 82.000
87.57373 101.000
87.59368 97.000
87.61363 88.000
87.63358 102.000
87.65352 116.000
87.67347 107.000
87.69342 103.000
87.71336 107.000
87.73331 94.000
87.75326 110.000
87.77320 91.000
87.79315 81.000
87.81310 101.000
87.83304 101.000
87.85299 101.000
87.87294 107.000
87.89289 107.000
87.91283 113.000
87.93278 91.000
87.95273 109.000
87.97267 106.000
87.99262 94.000
88.01257 96.000
88.03251 104.000
88.05246 117.000
88.07241 111.000
88.09236 99.000
88.11230 96.000
88.13225 86.000
88.15220 92.000
88.17214 100.000
88.19209 105.000
88.21204 111.000
88.23198 107.000
88.25193 119.000
88.27188 77.000
88.29183 118.000
88.31177 106.000
88.33172 105.000
88.35167 112.000
88.37161 117.000
88.39156 98.000
88.41151 102.000
88.43145 102.000
88.45140 126.000
88.47135 104.000
88.49129 108.000
88.51124 103.000
88.53119 103.000
88.55114 114.000
88.57108 93.000
88.59103 98.000
88.61098 122.000
88.63092 104.000
88.65087 126.000
88.67082 112.000
88.69076 93.000
88.71071 116.000
88.73066 114.000
88.75061 123.000
88.77055 120.000
88.79050 137.000
88.81045 158.000
88.83039 130.000
88.85034 128.000
88.87029 151.000
88.89023 137.000
88.91018 184.000
88.93013 195.000
88.95007 213.000
88.97002 192.000
88.98997 230.000
89.00992 215.000
89.02986 228.000
89.04981 239.000
89.06976 231.000
89.08970 235.000
89.10965 230.000
89.12960 259.000
89.14954 229.000
89.16949 224.000
89.18944 240.000
89.20939 218.000
89.22933 229.000
89.24928 219.000
89.26923 235.000
89.28917 195.000
89.30912 211.000
89.32907 180.000
89.34901 216.000
89.36896 194.000
89.38891 210.000
89.40885 207.000
89.42880 174.000
89.44875 169.000
89.46870 157.000
89.48864 163.000
89.50859 161.000
89.52854 146.000
89.54848 161.000
89.56843 140.000
89.58838 133.000
89.60832 140.000
89.62827 124.000
89.64822 130.000
89.66817 114.000
89.68811 130.000
89.70806 117.000
89.72801 109.000
89.74795 127.000
89.76790 114.000
89.78785 130.000
89.80779 102.000
89.82774 131.000
89.84769 130.000
89.86764 155.000
89.88758 129.000
89.90753 130.000
89.92748 113.000
89.94742 124.000
89.96737 111.000
89.98732 129.000
90.00726 118.000
