10.00000 255.000
10.01995 252.000
10.03989 237.000
10.05984 246.000
10.07979 260.000
10.09973 254.000
10.11968 279.000
10.13963 260.000
10.15958 253.000
10.17952 238.000
10.19947 255.000
10.21942 249.000
10.23936 263.000
10.25931 270.000
10.27926 251.000
10.29920 264.000
10.31915 224.000
10.33910 235.000
10.35905 273.000
10.37899 238.000
10.39894 265.000
10.41889 263.000
10.43883 243.000
10.45878 260.000
10.47873 273.000
10.49867 240.000
10.51862 250.000
10.53857 272.000
10.55851 237.000
10.57846 286.000
10.59841 243.000
10.61836 240.000
10.63830 269.000
10.65825 242.000
10.67820 273.000
10.69814 269.000
10.71809 257.000
10.73804 246.000
10.75798 246.000
10.77793 269.000
10.79788 259.000
10.81783 251.000
10.83777 247.000
10.85772 246.000
10.87767 217.000
10.89761 258.000
10.91756 294.000
10.93751 262.000
10.95745 246.000
10.97740 264.000
10.99735 245.000
11.01730 312.000
11.03724 225.000
11.05719 244.000
11.07714 250.000
11.09708 277.000
11.11703 256.000
11.13698 249.000
11.15692 261.000
11.17687 294.000
11.19682 246.000
11.21676 263.000
11.23671 230.000
11.25666 252.000
11.27661 281.000
11.29655 250.000
11.31650 271.000
11.33645 253.000
11.35639 258.000
11.37634 264.000
11.39629 258.000
11.41623 265.000
11.43618 257.000
11.45613 270.000
11.47608 274.000
11.49602 221.000
11.51597 284.000
11.53592 246.000
11.55586 249.000
11.57581 278.000
11.59576 250.000
11.61570 264.000
11.63565 249.000
11.65560 267.000
11.67554 267.000
11.69549 281.000
11.71544 257.000
11.73539 278.000
11.75533 285.000
11.77528 283.000
11.79523 273.000
11.81517 263.000
11.83512 277.000
11.85507 232.000
11.87501 252.000
11.89496 289.000
11.91491 253.000
11.93486 249.000
11.95480 238.000
11.97475 276.000
11.99470 277.000
12.01464 264.000
12.03459 246.000
12.05454 252.000
12.07448 240.000
12.09443 262.000
12.11438 273.000
12.13432 243.000
12.15427 260.000
12.17422 258.000
12.19417 276.000
12.21411 231.000
12.23406 294.000
12.25401 272.000
12.27395 272.000
12.29390 267.000
12.31385 270.000
12.33379 288.000
12.35374 263.000
12.37369 251.000
12.39364 280.000
12.41358 284.000
12.43353 256.000
12.45348 259.000
12.47342 290.000
12.49337 269.000
12.51332 290.000
12.53326 270.000
12.55321 299.000
12.57316 270.000
12.59311 266.000
12.61305 275.000
12.63300 283.000
12.65295 270.000
12.67289 263.000
12.69284 246.000
12.71279 277.000
12.73273 308.000
12.75268 295.000
12.77263 275.000
12.79257 287.000
12.81252 277.000
12.83247 248.000
12.85242 298.000
12.87236 290.000
12.89231 265.000
12.91226 259.000
12.93220 267.000
12.95215 246.000
12.97210 268.000
12.99204 298.000
13.01199 284.000
13.03194 274.000
13.05189 237.000
13.07183 293.000
13.09178 253.000
13.11173 275.000
13.13167 278.000
13.15162 262.000
13.17157 270.000
13.19151 271.000
13.21146 277.000
13.23141 267.000
13.25135 285.000
13.27130 272.000
13.29125 303.000
13.31120 267.000
13.33114 272.000
13.35109 293.000
13.37104 264.000
13.39098 271.000
13.41093 278.000
13.43088 294.000
13.45082 278.000
13.47077 302.000
13.49072 264.000
13.51067 303.000
13.53061 274.000
13.55056 241.000
13.57051 271.000
13.59045 278.000
13.61040 285.000
13.63035 274.000
13.65029 309.000
13.67024 276.000
13.69019 270.000
13.71013 276.000
13.73008 281.000
13.75003 317.000
13.76998 279.000
13.78992 260.000
13.80987 267.000
13.82982 272.000
13.84976 284.000
13.86971 301.000
13.88966 278.000
13.90960 262.000
13.92955 265.000
13.94950 262.000
13.96945 273.000
13.98939 282.000
14.00934 283.000
14.02929 298.000
14.04923 302.000
14.06918 277.000
14.08913 279.000
14.10907 258.000
14.12902 268.000
14.14897 287.000
14.16892 269.000
14.18886 307.000
14.20881 279.000
14.22876 290.000
14.24870 287.000
14.26865 260.000
14.28860 260.000
14.30854 284.000
14.32849 283.000
14.34844 288.000
14.36838 316.000
14.38833 295.000
14.40828 273.000
14.42823 321.000
14.44817 283.000
14.46812 268.000
14.48807 281.000
14.50801 281.000
14.52796 283.000
14.54791 319.000
14.56785 291.000
14.58780 312.000
14.60775 291.000
14.62770 323.000
14.64764 263.000
14.66759 289.000
14.68754 304.000
14.70748 255.000
14.72743 277.000
14.74738 290.000
14.76732 302.000
14.78727 290.000
14.80722 297.000
14.82716 280.000
14.84711 293.000
14.86706 308.000
14.88701 267.000
14.90695 294.000
14.92690 295.000
14.94685 284.000
14.96679 322.000
14.98674 288.000
15.00669 299.000
15.02663 304.000
15.04658 284.000
15.06653 279.000
15.08648 271.000
15.10642 296.000
15.12637 310.000
15.14632 300.000
15.16626 267.000
15.18621 306.000
15.20616 293.000
15.22610 293.000
15.24605 284.000
15.26600 313.000
15.28594 273.000
15.30589 284.000
15.32584 287.000
15.34579 298.000
15.36573 310.000
15.38568 287.000
15.40563 331.000
15.42557 288.000
15.44552 260.000
15.46547 305.000
15.48541 321.000
15.50536 297.000
15.52531 284.000
15.54526 288.000
15.56520 298.000
15.58515 276.000
15.60510 308.000
15.62504 306.000
15.64499 282.000
15.66494 300.000
15.68488 319.000
15.70483 340.000
15.72478 300.000
15.74472 305.000
15.76467 311.000
15.78462 323.000
15.80457 314.000
15.82451 283.000
15.84446 325.000
15.86441 299.000
15.88435 320.000
15.90430 295.000
15.92425 263.000
15.94419 275.000
15.96414 286.000
15.98409 300.000
16.00404 283.000
16.02398 322.000
16.04393 289.000
16.06388 283.000
16.08382 238.000
16.10377 265.000
16.12372 261.000
16.14366 306.000
16.16361 334.000
16.18356 297.000
16.20351 299.000
16.22345 283.000
16.24340 270.000
16.26335 310.000
16.28329 302.000
16.30324 284.000
16.32319 298.000
16.34313 261.000
16.36308 306.000
16.38303 296.000
16.40297 292.000
16.42292 301.000
16.44287 303.000
16.46282 319.000
16.48276 287.000
16.50271 300.000
16.52266 307.000
16.54260 304.000
16.56255 314.000
16.58250 258.000
16.60244 301.000
16.62239 274.000
16.64234 262.000
16.66229 289.000
16.68223 286.000
16.70218 312.000
16.72213 302.000
16.74207 322.000
16.76202 332.000
16.78197 287.000
16.80191 320.000
16.82186 282.000
16.84181 318.000
16.86175 334.000
16.88170 313.000
16.90165 329.000
16.92160 336.000
16.94154 324.000
16.96149 330.000
16.98144 340.000
17.00138 352.000
17.02133 300.000
17.04128 299.000
17.06122 308.000
17.08117 325.000
17.10112 304.000
17.12107 293.000
17.14101 334.000
17.16096 323.000
17.18091 333.000
17.20085 310.000
17.22080 327.000
17.24075 315.000
17.26069 305.000
17.28064 348.000
17.30059 336.000
17.32053 313.000
17.34048 328.000
17.36043 378.000
17.38038 348.000
17.40032 332.000
17.42027 354.000
17.44022 322.000
17.46016 309.000
17.48011 311.000
17.50006 280.000
17.52000 301.000
17.53995 308.000
17.55990 320.000
17.57985 294.000
17.59979 293.000
17.61974 284.000
17.63969 290.000
17.65963 297.000
17.67958 314.000
17.69953 314.000
17.71947 333.000
17.73942 284.000
17.75937 297.000
17.77932 309.000
17.79926 276.000
17.81921 270.000
17.83916 297.000
17.85910 249.000
17.87905 297.000
17.89900 284.000
17.91894 278.000
17.93889 304.000
17.95884 279.000
17.97878 299.000
17.99873 271.000
18.01868 310.000
18.03863 322.000
18.05857 270.000
18.07852 291.000
18.09847 298.000
18.11841 305.000
18.13836 310.000
18.15831 290.000
18.17825 279.000
18.19820 291.000
18.21815 259.000
18.23810 313.000
18.25804 290.000
18.27799 333.000
18.29794 279.000
18.31788 325.000
18.33783 289.000
18.35778 313.000
18.37772 343.000
18.39767 322.000
18.41762 317.000
18.43756 338.000
18.45751 378.000
18.47746 362.000
18.49741 349.000
18.51735 319.000
18.53730 335.000
18.55725 322.000
18.57719 301.000
18.59714 296.000
18.61709 311.000
18.63703 293.000
18.65698 286.000
18.67693 301.000
18.69688 297.000
18.71682 294.000
18.73677 295.000
18.75672 293.000
18.77666 311.000
18.79661 294.000
18.81656 294.000
18.83650 300.000
18.85645 274.000
18.87640 272.000
18.89634 323.000
18.91629 300.000
18.93624 292.000
18.95619 282.000
18.97613 314.000
18.99608 258.000
19.01603 294.000
19.03597 321.000
19.05592 307.000
19.07587 265.000
19.09581 265.000
19.11576 305.000
19.13571 301.000
19.15566 307.000
19.17560 306.000
19.19555 265.000
19.21550 298.000
19.23544 296.000
19.25539 276.000
19.27534 310.000
19.29528 294.000
19.31523 304.000
19.33518 251.000
19.35513 279.000
19.37507 281.000
19.39502 278.000
19.41497 322.000
19.43491 277.000
19.45486 290.000
19.47481 272.000
19.49475 298.000
19.51470 262.000
19.53465 306.000
19.55459 302.000
19.57454 296.000
19.59449 271.000
19.61444 303.000
19.63438 302.000
19.65433 301.000
19.67428 296.000
19.69422 307.000
19.71417 331.000
19.73412 279.000
19.75406 285.000
19.77401 296.000
19.79396 295.000
19.81391 297.000
19.83385 267.000
19.85380 298.000
19.87375 268.000
19.89369 297.000
19.91364 297.000
19.93359 276.000
19.95353 280.000
19.97348 279.000
19.99343 280.000
20.01337 291.000
20.03332 293.000
20.05327 295.000
20.07322 290.000
20.09316 303.000
20.11311 287.000
20.13306 284.000
20.15300 293.000
20.17295 290.000
20.19290 289.000
20.21284 294.000
20.23279 312.000
20.25274 305.000
20.27269 280.000
20.29263 310.000
20.31258 303.000
20.33253 299.000
20.35247 317.000
20.37242 314.000
20.39237 304.000
20.41231 264.000
20.43226 294.000
20.45221 315.000
20.47215 321.000
20.49210 333.000
20.51205 307.000
20.53200 332.000
20.55194 333.000
20.57189 295.000
20.59184 312.000
20.61178 348.000
20.63173 333.000
20.65168 322.000
20.67162 338.000
20.69157 337.000
20.71152 376.000
20.73147 375.000
20.75141 399.000
20.77136 374.000
20.79131 472.000
20.81125 536.000
20.83120 498.000
20.85115 564.000
20.87109 611.000
20.89104 585.000
20.91099 600.000
20.93094 560.000
20.95088 584.000
20.97083 557.000
20.99078 467.000
21.01072 464.000
21.03067 431.000
21.05062 437.000
21.07056 406.000
21.09051 442.000
21.11046 418.000
21.13040 414.000
21.15035 413.000
21.17030 379.000
21.19025 321.000
21.21019 377.000
21.23014 357.000
21.25009 360.000
21.27003 287.000
21.28998 322.000
21.30993 269.000
21.32987 303.000
21.34982 347.000
21.36977 311.000
21.38972 333.000
21.40966 343.000
21.42961 281.000
21.44956 317.000
21.46950 282.000
21.48945 297.000
21.50940 285.000
21.52934 313.000
21.54929 293.000
21.56924 290.000
21.58918 356.000
21.60913 310.000
21.62908 310.000
21.64903 258.000
21.66897 280.000
21.68892 307.000
21.70887 272.000
21.72881 300.000
21.74876 313.000
21.76871 300.000
21.78865 308.000
21.80860 328.000
21.82855 272.000
21.84850 267.000
21.86844 328.000
21.88839 326.000
21.90834 290.000
21.92828 288.000
21.94823 312.000
21.96818 298.000
21.98812 313.000
22.00807 313.000
22.02802 294.000
22.04796 319.000
22.06791 308.000
22.08786 299.000
22.10781 297.000
22.12775 331.000
22.14770 343.000
22.16765 277.000
22.18759 295.000
22.20754 289.000
22.22749 297.000
22.24743 312.000
22.26738 271.000
22.28733 280.000
22.30728 298.000
22.32722 277.000
22.34717 270.000
22.36712 312.000
22.38706 261.000
22.40701 277.000
22.42696 259.000
22.44690 283.000
22.46685 251.000
22.48680 276.000
22.50675 276.000
22.52669 271.000
22.54664 290.000
22.56659 316.000
22.58653 284.000
22.60648 313.000
22.62643 311.000
22.64637 295.000
22.66632 306.000
22.68627 290.000
22.70621 300.000
22.72616 260.000
22.74611 334.000
22.76606 305.000
22.78600 314.000
22.80595 280.000
22.82590 314.000
22.84584 289.000
22.86579 288.000
22.88574 279.000
22.90568 307.000
22.92563 262.000
22.94558 317.000
22.96553 293.000
22.98547 289.000
23.00542 310.000
23.02537 287.000
23.04531 267.000
23.06526 293.000
23.08521 284.000
23.10515 322.000
23.12510 297.000
23.14505 298.000
23.16499 320.000
23.18494 290.000
23.20489 294.000
23.22484 302.000
23.24478 300.000
23.26473 324.000
23.28468 284.000
23.30462 303.000
23.32457 306.000
23.34452 291.000
23.36446 296.000
23.38441 286.000
23.40436 304.000
23.42431 280.000
23.44425 270.000
23.46420 310.000
23.48415 332.000
23.50409 309.000
23.52404 297.000
23.54399 287.000
23.56393 314.000
23.58388 259.000
23.60383 307.000
23.62377 286.000
23.64372 317.000
23.66367 282.000
23.68362 313.000
23.70356 317.000
23.72351 302.000
23.74346 322.000
23.76340 278.000
23.78335 297.000
23.80330 305.000
23.82324 340.000
23.84319 286.000
23.86314 278.000
23.88309 305.000
23.90303 284.000
23.92298 274.000
23.94293 292.000
23.96287 305.000
23.98282 257.000
24.00277 293.000
24.02271 267.000
24.04266 317.000
24.06261 277.000
24.08256 288.000
24.10250 281.000
24.12245 272.000
24.14240 335.000
24.16234 305.000
24.18229 322.000
24.20224 301.000
24.22218 333.000
24.24213 290.000
24.26208 290.000
24.28202 276.000
24.30197 325.000
24.32192 278.000
24.34187 315.000
24.36181 324.000
24.38176 256.000
24.40171 286.000
24.42165 316.000
24.44160 279.000
24.46155 305.000
24.48149 300.000
24.50144 313.000
24.52139 278.000
24.54134 304.000
24.56128 337.000
24.58123 300.000
24.60118 301.000
24.62112 297.000
24.64107 282.000
24.66102 298.000
24.68096 274.000
24.70091 288.000
24.72086 316.000
24.74080 316.000
24.76075 287.000
24.78070 272.000
24.80065 293.000
24.82059 281.000
24.84054 306.000
24.86049 285.000
24.88043 293.000
24.90038 286.000
24.92033 289.000
24.94027 312.000
24.96022 307.000
24.98017 285.000
25.00012 325.000
25.02006 336.000
25.04001 329.000
25.05996 336.000
25.07990 326.000
25.09985 324.000
25.11980 320.000
25.13974 282.000
25.15969 343.000
25.17964 302.000
25.19958 290.000
25.21953 324.000
25.23948 276.000
25.25943 314.000
25.27937 296.000
25.29932 314.000
25.31927 284.000
25.33921 293.000
25.35916 309.000
25.37911 313.000
25.39905 290.000
25.41900 320.000
25.43895 291.000
25.45890 319.000
25.47884 319.000
25.49879 280.000
25.51874 323.000
25.53868 307.000
25.55863 312.000
25.57858 276.000
25.59852 286.000
25.61847 290.000
25.63842 285.000
25.65837 276.000
25.67831 331.000
25.69826 326.000
25.71821 312.000
25.73815 293.000
25.75810 299.000
25.77805 285.000
25.79799 305.000
25.81794 313.000
25.83789 335.000
25.85783 302.000
25.87778 315.000
25.89773 333.000
25.91768 336.000
25.93762 321.000
25.95757 302.000
25.97752 307.000
25.99746 305.000
26.01741 303.000
26.03736 300.000
26.05730 292.000
26.07725 337.000
26.09720 323.000
26.11715 291.000
26.13709 344.000
26.15704 309.000
26.17699 302.000
26.19693 302.000
26.21688 325.000
26.23683 290.000
26.25677 301.000
26.27672 307.000
26.29667 336.000
26.31661 298.000
26.33656 297.000
26.35651 308.000
26.37646 333.000
26.39640 299.000
26.41635 303.000
26.43630 326.000
26.45624 283.000
26.47619 318.000
26.49614 296.000
26.51608 328.000
26.53603 316.000
26.55598 310.000
26.57593 259.000
26.59587 279.000
26.61582 299.000
26.63577 309.000
26.65571 304.000
26.67566 298.000
26.69561 278.000
26.71555 270.000
26.73550 293.000
26.75545 306.000
26.77539 291.000
26.79534 294.000
26.81529 294.000
26.83524 304.000
26.85518 270.000
26.87513 332.000
26.89508 315.000
26.91502 335.000
26.93497 324.000
26.95492 317.000
26.97486 307.000
26.99481 294.000
27.01476 280.000
27.03471 335.000
27.05465 267.000
27.07460 340.000
27.09455 340.000
27.11449 291.000
27.13444 324.000
27.15439 330.000
27.17433 274.000
27.19428 300.000
27.21423 308.000
27.23417 313.000
27.25412 297.000
27.27407 300.000
27.29402 309.000
27.31396 326.000
27.33391 315.000
27.35386 289.000
27.37380 304.000
27.39375 299.000
27.41370 328.000
27.43364 294.000
27.45359 297.000
27.47354 315.000
27.49349 338.000
27.51343 301.000
27.53338 302.000
27.55333 315.000
27.57327 304.000
27.59322 323.000
27.61317 309.000
27.63311 290.000
27.65306 318.000
27.67301 306.000
27.69296 295.000
27.71290 318.000
27.73285 326.000
27.75280 267.000
27.77274 311.000
27.79269 331.000
27.81264 333.000
27.83258 321.000
27.85253 321.000
27.87248 265.000
27.89242 327.000
27.91237 318.000
27.93232 302.000
27.95227 290.000
27.97221 302.000
27.99216 302.000
28.01211 299.000
28.03205 325.000
28.05200 324.000
28.07195 324.000
28.09189 314.000
28.11184 306.000
28.13179 273.000
28.15174 287.000
28.17168 293.000
28.19163 298.000
28.21158 304.000
28.23152 332.000
28.25147 306.000
28.27142 292.000
28.29136 300.000
28.31131 308.000
28.33126 315.000
28.35120 317.000
28.37115 315.000
28.39110 316.000
28.41105 296.000
28.43099 302.000
28.45094 277.000
28.47089 328.000
28.49083 292.000
28.51078 330.000
28.53073 321.000
28.55067 332.000
28.57062 303.000
28.59057 345.000
28.61052 317.000
28.63046 324.000
28.65041 281.000
28.67036 299.000
28.69030 303.000
28.71025 301.000
28.73020 310.000
28.75014 267.000
28.77009 328.000
28.79004 302.000
28.80998 291.000
28.82993 304.000
28.84988 303.000
28.86983 324.000
28.88977 295.000
28.90972 317.000
28.92967 321.000
28.94961 308.000
28.96956 293.000
28.98951 306.000
29.00945 304.000
29.02940 337.000
29.04935 313.000
29.06930 342.000
29.08924 348.000
29.10919 299.000
29.12914 336.000
29.14908 316.000
29.16903 319.000
29.18898 320.000
29.20892 334.000
29.22887 332.000
29.24882 335.000
29.26877 371.000
29.28871 336.000
29.30866 349.000
29.32861 334.000
29.34855 340.000
29.36850 372.000
29.38845 408.000
29.40839 388.000
29.42834 394.000
29.44829 376.000
29.46823 387.000
29.48818 393.000
29.50813 413.000
29.52808 373.000
29.54802 396.000
29.56797 365.000
29.58792 363.000
29.60786 358.000
29.62781 360.000
29.64776 390.000
29.66770 352.000
29.68765 333.000
29.70760 336.000
29.72755 311.000
29.74749 323.000
29.76744 308.000
29.78739 331.000
29.80733 344.000
29.82728 321.000
29.84723 337.000
29.86717 328.000
29.88712 327.000
29.90707 363.000
29.92701 327.000
29.94696 301.000
29.96691 345.000
29.98686 354.000
30.00680 329.000
30.02675 379.000
30.04670 329.000
30.06664 325.000
30.08659 320.000
30.10654 346.000
30.12648 351.000
30.14643 391.000
30.16638 362.000
30.18633 349.000
30.20627 371.000
30.22622 388.000
30.24617 385.000
30.26611 447.000
30.28606 437.000
30.30601 453.000
30.32595 513.000
30.34590 521.000
30.36585 518.000
30.38579 530.000
30.40574 460.000
30.42569 423.000
30.44564 405.000
30.46558 408.000
30.48553 385.000
30.50548 349.000
30.52542 330.000
30.54537 331.000
30.56532 301.000
30.58526 370.000
30.60521 356.000
30.62516 345.000
30.64511 330.000
30.66505 310.000
30.68500 333.000
30.70495 341.000
30.72489 330.000
30.74484 301.000
30.76479 286.000
30.78473 341.000
30.80468 328.000
30.82463 312.000
30.84458 333.000
30.86452 304.000
30.88447 309.000
30.90442 345.000
30.92436 353.000
30.94431 320.000
30.96426 305.000
30.98420 327.000
31.00415 352.000
31.02410 320.000
31.04404 338.000
31.06399 300.000
31.08394 321.000
31.10389 312.000
31.12383 340.000
31.14378 334.000
31.16373 343.000
31.18367 308.000
31.20362 322.000
31.22357 266.000
31.24351 349.000
31.26346 337.000
31.28341 306.000
31.30336 320.000
31.32330 329.000
31.34325 348.000
31.36320 332.000
31.38314 316.000
31.40309 316.000
31.42304 301.000
31.44298 334.000
31.46293 317.000
31.48288 342.000
31.50282 331.000
31.52277 306.000
31.54272 341.000
31.56267 298.000
31.58261 282.000
31.60256 348.000
31.62251 311.000
31.64245 334.000
31.66240 314.000
31.68235 334.000
31.70229 330.000
31.72224 316.000
31.74219 348.000
31.76214 310.000
31.78208 329.000
31.80203 316.000
31.82198 357.000
31.84192 322.000
31.86187 313.000
31.88182 318.000
31.90176 327.000
31.92171 320.000
31.94166 320.000
31.96160 338.000
31.98155 371.000
32.00150 336.000
32.02145 347.000
32.04139 340.000
32.06134 337.000
32.08129 311.000
32.10123 314.000
32.12118 281.000
32.14113 299.000
32.16107 339.000
32.18102 301.000
32.20097 343.000
32.22092 349.000
32.24086 326.000
32.26081 326.000
32.28076 320.000
32.30070 295.000
32.32065 349.000
32.34060 303.000
32.36054 276.000
32.38049 357.000
32.40044 312.000
32.42039 306.000
32.44033 320.000
32.46028 338.000
32.48023 300.000
32.50017 335.000
32.52012 279.000
32.54007 343.000
32.56001 313.000
32.57996 358.000
32.59991 306.000
32.61985 343.000
32.63980 305.000
32.65975 287.000
32.67970 317.000
32.69964 323.000
32.71959 317.000
32.73954 326.000
32.75948 325.000
32.77943 301.000
32.79938 320.000
32.81932 325.000
32.83927 314.000
32.85922 339.000
32.87917 330.000
32.89911 346.000
32.91906 333.000
32.93901 318.000
32.95895 330.000
32.97890 315.000
32.99885 325.000
33.01879 296.000
33.03874 338.000
33.05869 344.000
33.07863 318.000
33.09858 322.000
33.11853 327.000
33.13848 350.000
33.15842 333.000
33.17837 361.000
33.19832 275.000
33.21826 315.000
33.23821 306.000
33.25816 315.000
33.27810 377.000
33.29805 319.000
33.31800 346.000
33.33795 324.000
33.35789 326.000
33.37784 333.000
33.39779 340.000
33.41773 337.000
33.43768 333.000
33.45763 319.000
33.47757 364.000
33.49752 321.000
33.51747 311.000
33.53741 333.000
33.55736 358.000
33.57731 339.000
33.59726 355.000
33.61720 376.000
33.63715 348.000
33.65710 366.000
33.67704 373.000
33.69699 345.000
33.71694 369.000
33.73688 343.000
33.75683 359.000
33.77678 328.000
33.79673 340.000
33.81667 360.000
33.83662 364.000
33.85657 339.000
33.87651 385.000
33.89646 353.000
33.91641 345.000
33.93635 336.000
33.95630 383.000
33.97625 369.000
33.99620 382.000
34.01614 395.000
34.03609 380.000
34.05604 401.000
34.07598 382.000
34.09593 394.000
34.11588 402.000
34.13582 400.000
34.15577 457.000
34.17572 447.000
34.19566 493.000
34.21561 551.000
34.23556 562.000
34.25551 539.000
34.27545 562.000
34.29540 643.000
34.31535 672.000
34.33529 650.000
34.35524 693.000
34.37519 708.000
34.39513 705.000
34.41508 715.000
34.43503 691.000
34.45498 680.000
34.47492 623.000
34.49487 632.000
34.51482 646.000
34.53476 657.000
34.55471 630.000
34.57466 553.000
34.59460 569.000
34.61455 531.000
34.63450 520.000
34.65444 503.000
34.67439 443.000
34.69434 493.000
34.71429 452.000
34.73423 481.000
34.75418 438.000
34.77413 477.000
34.79407 483.000
34.81402 438.000
34.83397 498.000
34.85391 457.000
34.87386 463.000
34.89381 468.000
34.91376 452.000
34.93370 450.000
34.95365 467.000
34.97360 436.000
34.99354 475.000
35.01349 469.000
35.03344 498.000
35.05338 463.000
35.07333 452.000
35.09328 492.000
35.11322 475.000
35.13317 445.000
35.15312 442.000
35.17307 423.000
35.19301 408.000
35.21296 433.000
35.23291 416.000
35.25285 421.000
35.27280 442.000
35.29275 427.000
35.31269 451.000
35.33264 420.000
35.35259 417.000
35.37254 451.000
35.39248 433.000
35.41243 443.000
35.43238 466.000
35.45232 424.000
35.47227 421.000
35.49222 481.000
35.51216 469.000
35.53211 447.000
35.55206 510.000
35.57201 495.000
35.59195 584.000
35.61190 603.000
35.63185 654.000
35.65179 688.000
35.67174 698.000
35.69169 765.000
35.71163 946.000
35.73158 967.000
35.75153 930.000
35.77147 859.000
35.79142 844.000
35.81137 799.000
35.83132 734.000
35.85126 671.000
35.87121 650.000
35.89116 535.000
35.91110 512.000
35.93105 485.000
35.95100 474.000
35.97094 476.000
35.99089 522.000
36.01084 445.000
36.03079 419.000
36.05073 457.000
36.07068 447.000
36.09063 437.000
36.11057 414.000
36.13052 458.000
36.15047 463.000
36.17041 443.000
36.19036 432.000
36.21031 444.000
36.23025 478.000
36.25020 444.000
36.27015 464.000
36.29010 419.000
36.31004 476.000
36.32999 522.000
36.34994 507.000
36.36988 537.000
36.38983 577.000
36.40978 631.000
36.42972 645.000
36.44967 633.000
36.46962 670.000
36.48957 627.000
36.50951 610.000
36.52946 667.000
36.54941 689.000
36.56935 623.000
36.58930 641.000
36.60925 642.000
36.62919 591.000
36.64914 630.000
36.66909 695.000
36.68903 700.000
36.70898 713.000
36.72893 742.000
36.74888 804.000
36.76882 841.000
36.78877 855.000
36.80872 941.000
36.82866 1087.000
36.84861 1200.000
36.86856 1294.000
36.88850 1549.000
36.90845 1858.000
36.92840 1990.000
36.94835 2396.000
36.96829 2771.000
36.98824 3024.000
37.00819 3316.000
37.02813 3361.000
37.04808 3416.000
37.06803 3418.000
37.08797 3561.000
37.10792 3381.000
37.12787 3258.000
37.14781 3043.000
37.16776 2846.000
37.18771 2605.000
37.20766 2441.000
37.22760 2107.000
37.24755 1825.000
37.26750 1635.000
37.28744 1435.000
37.30739 1291.000
37.32734 1166.000
37.34728 1033.000
37.36723 902.000
37.38718 780.000
37.40713 768.000
37.42707 593.000
37.44702 587.000
37.46697 579.000
37.48691 552.000
37.50686 519.000
37.52681 503.000
37.54675 490.000
37.56670 525.000
37.58665 459.000
37.60660 441.000
37.62654 432.000
37.64649 436.000
37.66644 417.000
37.68638 421.000
37.70633 409.000
37.72628 420.000
37.74622 383.000
37.76617 426.000
37.78612 389.000
37.80606 380.000
37.82601 393.000
37.84596 383.000
37.86591 348.000
37.88585 353.000
37.90580 344.000
37.92575 356.000
37.94569 373.000
37.96564 349.000
37.98559 338.000
38.00553 375.000
38.02548 360.000
38.04543 363.000
38.06538 355.000
38.08532 361.000
38.10527 376.000
38.12522 373.000
38.14516 363.000
38.16511 334.000
38.18506 343.000
38.20500 345.000
38.22495 349.000
38.24490 359.000
38.26484 336.000
38.28479 364.000
38.30474 350.000
38.32469 341.000
38.34463 339.000
38.36458 350.000
38.38453 327.000
38.40447 369.000
38.42442 346.000
38.44437 349.000
38.46431 350.000
38.48426 336.000
38.50421 340.000
38.52416 353.000
38.54410 319.000
38.56405 353.000
38.58400 361.000
38.60394 358.000
38.62389 325.000
38.64384 308.000
38.66378 334.000
38.68373 357.000
38.70368 341.000
38.72362 370.000
38.74357 360.000
38.76352 331.000
38.78347 388.000
38.80341 360.000
38.82336 330.000
38.84331 342.000
38.86325 340.000
38.88320 324.000
38.90315 332.000
38.92309 344.000
38.94304 315.000
38.96299 367.000
38.98294 307.000
39.00288 343.000
39.02283 332.000
39.04278 346.000
39.06272 359.000
39.08267 352.000
39.10262 331.000
39.12256 363.000
39.14251 332.000
39.16246 332.000
39.18241 326.000
39.20235 336.000
39.22230 332.000
39.24225 337.000
39.26219 336.000
39.28214 313.000
39.30209 328.000
39.32203 326.000
39.34198 335.000
39.36193 330.000
39.38187 335.000
39.40182 338.000
39.42177 340.000
39.44172 339.000
39.46166 328.000
39.48161 327.000
39.50156 368.000
39.52150 330.000
39.54145 310.000
39.56140 344.000
39.58134 350.000
39.60129 340.000
39.62124 342.000
39.64119 319.000
39.66113 322.000
39.68108 361.000
39.70103 317.000
39.72097 326.000
39.74092 353.000
39.76087 315.000
39.78081 325.000
39.80076 348.000
39.82071 338.000
39.84065 315.000
39.86060 338.000
39.88055 324.000
39.90050 351.000
39.92044 349.000
39.94039 310.000
39.96034 363.000
39.98028 332.000
40.00023 347.000
40.02018 335.000
40.04012 321.000
40.06007 350.000
40.08002 334.000
40.09997 362.000
40.11991 334.000
40.13986 374.000
40.15981 351.000
40.17975 333.000
40.19970 342.000
40.21965 346.000
40.23959 335.000
40.25954 327.000
40.27949 351.000
40.29943 326.000
40.31938 339.000
40.33933 335.000
40.35928 327.000
40.37922 362.000
40.39917 353.000
40.41912 320.000
40.43906 340.000
40.45901 329.000
40.47896 386.000
40.49890 364.000
40.51885 307.000
40.53880 320.000
40.55875 351.000
40.57869 347.000
40.59864 386.000
40.61859 377.000
40.63853 360.000
40.65848 357.000
40.67843 336.000
40.69837 356.000
40.71832 307.000
40.73827 346.000
40.75822 337.000
40.77816 349.000
40.79811 348.000
40.81806 358.000
40.83800 352.000
40.85795 355.000
40.87790 374.000
40.89784 350.000
40.91779 317.000
40.93774 338.000
40.95768 397.000
40.97763 362.000
40.99758 369.000
41.01753 327.000
41.03747 351.000
41.05742 334.000
41.07737 333.000
41.09731 370.000
41.11726 382.000
41.13721 369.000
41.15715 367.000
41.17710 354.000
41.19705 349.000
41.21700 381.000
41.23694 382.000
41.25689 416.000
41.27684 398.000
41.29678 353.000
41.31673 399.000
41.33668 390.000
41.35662 392.000
41.37657 369.000
41.39652 396.000
41.41646 382.000
41.43641 377.000
41.45636 412.000
41.47631 420.000
41.49625 375.000
41.51620 390.000
41.53615 414.000
41.55609 437.000
41.57604 460.000
41.59599 435.000
41.61593 477.000
41.63588 462.000
41.65583 459.000
41.67578 447.000
41.69572 442.000
41.71567 464.000
41.73562 505.000
41.75556 515.000
41.77551 527.000
41.79546 526.000
41.81540 523.000
41.83535 611.000
41.85530 676.000
41.87524 718.000
41.89519 763.000
41.91514 800.000
41.93509 788.000
41.95503 772.000
41.97498 749.000
41.99493 812.000
42.01487 740.000
42.03482 743.000
42.05477 700.000
42.07471 691.000
42.09466 624.000
42.11461 633.000
42.13456 590.000
42.15450 566.000
42.17445 575.000
42.19440 547.000
42.21434 563.000
42.23429 580.000
42.25424 544.000
42.27418 582.000
42.29413 530.000
42.31408 588.000
42.33403 583.000
42.35397 593.000
42.37392 585.000
42.39387 613.000
42.41381 563.000
42.43376 602.000
42.45371 709.000
42.47365 701.000
42.49360 658.000
42.51355 696.000
42.53349 745.000
42.55344 778.000
42.57339 787.000
42.59334 803.000
42.61328 789.000
42.63323 875.000
42.65318 945.000
42.67312 976.000
42.69307 1051.000
42.71302 1106.000
42.73296 1212.000
42.75291 1365.000
42.77286 1429.000
42.79281 1485.000
42.81275 1623.000
42.83270 1799.000
42.85265 1989.000
42.87259 2308.000
42.89254 2599.000
42.91249 2847.000
42.93243 3069.000
42.95238 3322.000
42.97233 3560.000
42.99227 3795.000
43.01222 3926.000
43.03217 4086.000
43.05212 4045.000
43.07206 4094.000
43.09201 3950.000
43.11196 3872.000
43.13190 3790.000
43.15185 3571.000
43.17180 3516.000
43.19174 3393.000
43.21169 3152.000
43.23164 2933.000
43.25159 2785.000
43.27153 2529.000
43.29148 2368.000
43.31143 2154.000
43.33137 2048.000
43.35132 1726.000
43.37127 1550.000
43.39121 1410.000
43.41116 1331.000
43.43111 1204.000
43.45105 1056.000
43.47100 937.000
43.49095 937.000
43.51090 778.000
43.53084 751.000
43.55079 723.000
43.57074 719.000
43.59068 659.000
43.61063 667.000
43.63058 611.000
43.65052 640.000
43.67047 570.000
43.69042 510.000
43.71037 530.000
43.73031 517.000
43.75026 498.000
43.77021 512.000
43.79015 448.000
43.81010 470.000
43.83005 459.000
43.84999 437.000
43.86994 488.000
43.88989 432.000
43.90984 471.000
43.92978 444.000
43.94973 416.000
43.96968 403.000
43.98962 406.000
44.00957 428.000
44.02952 410.000
44.04946 425.000
44.06941 358.000
44.08936 397.000
44.10930 403.000
44.12925 376.000
44.14920 393.000
44.16915 430.000
44.18909 359.000
44.20904 401.000
44.22899 368.000
44.24893 371.000
44.26888 352.000
44.28883 384.000
44.30877 374.000
44.32872 394.000
44.34867 380.000
44.36862 369.000
44.38856 338.000
44.40851 385.000
44.42846 371.000
44.44840 361.000
44.46835 316.000
44.48830 365.000
44.50824 342.000
44.52819 351.000
44.54814 351.000
44.56808 335.000
44.58803 362.000
44.60798 378.000
44.62793 345.000
44.64787 352.000
44.66782 329.000
44.68777 351.000
44.70771 356.000
44.72766 374.000
44.74761 346.000
44.76755 350.000
44.78750 348.000
44.80745 328.000
44.82740 305.000
44.84734 300.000
44.86729 320.000
44.88724 332.000
44.90718 354.000
44.92713 339.000
44.94708 339.000
44.96702 337.000
44.98697 340.000
45.00692 318.000
45.02686 340.000
45.04681 356.000
45.06676 337.000
45.08671 351.000
45.10665 310.000
45.12660 348.000
45.14655 321.000
45.16649 346.000
45.18644 339.000
45.20639 331.000
45.22633 339.000
45.24628 330.000
45.26623 322.000
45.28618 348.000
45.30612 316.000
45.32607 310.000
45.34602 350.000
45.36596 302.000
45.38591 325.000
45.40586 308.000
45.42580 305.000
45.44575 305.000
45.46570 351.000
45.48565 308.000
45.50559 317.000
45.52554 347.000
45.54549 327.000
45.56543 294.000
45.58538 370.000
45.60533 354.000
45.62527 357.000
45.64522 337.000
45.66517 300.000
45.68511 336.000
45.70506 321.000
45.72501 344.000
45.74496 323.000
45.76490 324.000
45.78485 322.000
45.80480 335.000
45.82474 357.000
45.84469 319.000
45.86464 321.000
45.88458 345.000
45.90453 341.000
45.92448 339.000
45.94443 336.000
45.96437 289.000
45.98432 352.000
46.00427 335.000
46.02421 329.000
46.04416 334.000
46.06411 317.000
46.08405 330.000
46.10400 315.000
46.12395 328.000
46.14389 332.000
46.16384 329.000
46.18379 340.000
46.20374 322.000
46.22368 318.000
46.24363 332.000
46.26358 318.000
46.28352 319.000
46.30347 332.000
46.32342 307.000
46.34336 314.000
46.36331 328.000
46.38326 320.000
46.40321 369.000
46.42315 344.000
46.44310 317.000
46.46305 352.000
46.48299 304.000
46.50294 326.000
46.52289 364.000
46.54283 312.000
46.56278 334.000
46.58273 352.000
46.60267 307.000
46.62262 322.000
46.64257 342.000
46.66252 336.000
46.68246 327.000
46.70241 293.000
46.72236 319.000
46.74230 300.000
46.76225 315.000
46.78220 280.000
46.80214 326.000
46.82209 360.000
46.84204 317.000
46.86199 315.000
46.88193 307.000
46.90188 300.000
46.92183 320.000
46.94177 311.000
46.96172 324.000
46.98167 330.000
47.00161 301.000
47.02156 340.000
47.04151 327.000
47.06146 317.000
47.08140 332.000
47.10135 310.000
47.12130 302.000
47.14124 317.000
47.16119 313.000
47.18114 304.000
47.20108 348.000
47.22103 332.000
47.24098 293.000
47.26092 299.000
47.28087 330.000
47.30082 288.000
47.32077 322.000
47.34071 310.000
47.36066 299.000
47.38061 336.000
47.40055 288.000
47.42050 294.000
47.44045 307.000
47.46039 322.000
47.48034 313.000
47.50029 316.000
47.52024 327.000
47.54018 313.000
47.56013 327.000
47.58008 309.000
47.60002 321.000
47.61997 315.000
47.63992 312.000
47.65986 320.000
47.67981 312.000
47.69976 316.000
47.71970 334.000
47.73965 338.000
47.75960 318.000
47.77955 339.000
47.79949 326.000
47.81944 331.000
47.83939 334.000
47.85933 342.000
47.87928 316.000
47.89923 339.000
47.91917 327.000
47.93912 336.000
47.95907 345.000
47.97902 311.000
47.99896 314.000
48.01891 323.000
48.03886 307.000
48.05880 343.000
48.07875 346.000
48.09870 325.000
48.11864 290.000
48.13859 331.000
48.15854 330.000
48.17848 333.000
48.19843 331.000
48.21838 342.000
48.23833 311.000
48.25827 301.000
48.27822 313.000
48.29817 323.000
48.31811 354.000
48.33806 338.000
48.35801 279.000
48.37795 320.000
48.39790 293.000
48.41785 324.000
48.43780 321.000
48.45774 327.000
48.47769 335.000
48.49764 324.000
48.51758 307.000
48.53753 321.000
48.55748 302.000
48.57742 335.000
48.59737 314.000
48.61732 322.000
48.63726 347.000
48.65721 330.000
48.67716 326.000
48.69711 326.000
48.71705 288.000
48.73700 307.000
48.75695 334.000
48.77689 310.000
48.79684 322.000
48.81679 319.000
48.83673 326.000
48.85668 291.000
48.87663 346.000
48.89658 307.000
48.91652 320.000
48.93647 339.000
48.95642 306.000
48.97636 337.000
48.99631 315.000
49.01626 323.000
49.03620 325.000
49.05615 349.000
49.07610 338.000
49.09605 325.000
49.11599 341.000
49.13594 350.000
49.15589 307.000
49.17583 311.000
49.19578 338.000
49.21573 328.000
49.23567 350.000
49.25562 310.000
49.27557 316.000
49.29551 334.000
49.31546 381.000
49.33541 337.000
49.35536 376.000
49.37530 319.000
49.39525 360.000
49.41520 322.000
49.43514 341.000
49.45509 330.000
49.47504 337.000
49.49498 363.000
49.51493 346.000
49.53488 335.000
49.55483 346.000
49.57477 314.000
49.59472 329.000
49.61467 367.000
49.63461 326.000
49.65456 327.000
49.67451 319.000
49.69445 338.000
49.71440 335.000
49.73435 330.000
49.75429 336.000
49.77424 346.000
49.79419 311.000
49.81414 342.000
49.83408 360.000
49.85403 328.000
49.87398 316.000
49.89392 309.000
49.91387 335.000
49.93382 345.000
49.95376 300.000
49.97371 315.000
49.99366 326.000
50.01361 311.000
50.03355 322.000
50.05350 338.000
50.07345 295.000
50.09339 308.000
50.11334 307.000
50.13329 308.000
50.15323 306.000
50.17318 322.000
50.19313 307.000
50.21307 320.000
50.23302 311.000
50.25297 302.000
50.27292 338.000
50.29286 322.000
50.31281 312.000
50.33276 335.000
50.35270 313.000
50.37265 316.000
50.39260 281.000
50.41254 333.000
50.43249 286.000
50.45244 349.000
50.47239 301.000
50.49233 306.000
50.51228 318.000
50.53223 323.000
50.55217 345.000
50.57212 303.000
50.59207 313.000
50.61201 315.000
50.63196 323.000
50.65191 298.000
50.67186 316.000
50.69180 307.000
50.71175 315.000
50.73170 295.000
50.75164 309.000
50.77159 300.000
50.79154 294.000
50.81148 308.000
50.83143 322.000
50.85138 325.000
50.87132 292.000
50.89127 356.000
50.91122 315.000
50.93117 319.000
50.95111 305.000
50.97106 351.000
50.99101 279.000
51.01095 302.000
51.03090 293.000
51.05085 296.000
51.07079 303.000
51.09074 294.000
51.11069 288.000
51.13064 306.000
51.15058 308.000
51.17053 303.000
51.19048 347.000
51.21042 304.000
51.23037 346.000
51.25032 321.000
51.27026 323.000
51.29021 283.000
51.31016 277.000
51.33010 321.000
51.35005 317.000
51.37000 285.000
51.38995 283.000
51.40989 300.000
51.42984 313.000
51.44979 344.000
51.46973 286.000
51.48968 292.000
51.50963 296.000
51.52957 275.000
51.54952 291.000
51.56947 307.000
51.58942 304.000
51.60936 292.000
51.62931 343.000
51.64926 295.000
51.66920 309.000
51.68915 306.000
51.70910 304.000
51.72904 342.000
51.74899 321.000
51.76894 285.000
51.78888 281.000
51.80883 281.000
51.82878 299.000
51.84873 275.000
51.86867 323.000
51.88862 319.000
51.90857 320.000
51.92851 277.000
51.94846 328.000
51.96841 317.000
51.98835 323.000
52.00830 319.000
52.02825 333.000
52.04820 298.000
52.06814 294.000
52.08809 321.000
52.10804 288.000
52.12798 317.000
52.14793 338.000
52.16788 337.000
52.18782 323.000
52.20777 302.000
52.22772 306.000
52.24767 358.000
52.26761 330.000
52.28756 316.000
52.30751 335.000
52.32745 300.000
52.34740 303.000
52.36735 295.000
52.38729 324.000
52.40724 311.000
52.42719 301.000
52.44713 333.000
52.46708 322.000
52.48703 315.000
52.50698 315.000
52.52692 298.000
52.54687 326.000
52.56682 309.000
52.58676 315.000
52.60671 303.000
52.62666 303.000
52.64660 311.000
52.66655 316.000
52.68650 287.000
52.70645 330.000
52.72639 322.000
52.74634 326.000
52.76629 307.000
52.78623 304.000
52.80618 297.000
52.82613 320.000
52.84607 299.000
52.86602 292.000
52.88597 330.000
52.90591 302.000
52.92586 305.000
52.94581 302.000
52.96576 332.000
52.98570 284.000
53.00565 307.000
53.02560 316.000
53.04554 321.000
53.06549 275.000
53.08544 292.000
53.10538 335.000
53.12533 330.000
53.14528 287.000
53.16523 289.000
53.18517 309.000
53.20512 290.000
53.22507 293.000
53.24501 304.000
53.26496 330.000
53.28491 312.000
53.30485 306.000
53.32480 308.000
53.34475 281.000
53.36469 308.000
53.38464 300.000
53.40459 329.000
53.42454 307.000
53.44448 320.000
53.46443 281.000
53.48438 325.000
53.50432 323.000
53.52427 301.000
53.54422 314.000
53.56416 318.000
53.58411 314.000
53.60406 302.000
53.62401 308.000
53.64395 316.000
53.66390 328.000
53.68385 326.000
53.70379 311.000
53.72374 305.000
53.74369 305.000
53.76363 329.000
53.78358 347.000
53.80353 357.000
53.82348 355.000
53.84342 370.000
53.86337 360.000
53.88332 346.000
53.90326 331.000
53.92321 325.000
53.94316 310.000
53.96310 348.000
53.98305 342.000
54.00300 323.000
54.02294 305.000
54.04289 322.000
54.06284 315.000
54.08279 282.000
54.10273 317.000
54.12268 311.000
54.14263 343.000
54.16257 341.000
54.18252 305.000
54.20247 300.000
54.22241 307.000
54.24236 295.000
54.26231 321.000
54.28226 318.000
54.30220 314.000
54.32215 302.000
54.34210 313.000
54.36204 310.000
54.38199 315.000
54.40194 335.000
54.42188 295.000
54.44183 348.000
54.46178 326.000
54.48172 317.000
54.50167 328.000
54.52162 305.000
54.54157 294.000
54.56151 350.000
54.58146 302.000
54.60141 295.000
54.62135 299.000
54.64130 311.000
54.66125 286.000
54.68119 312.000
54.70114 349.000
54.72109 353.000
54.74104 290.000
54.76098 322.000
54.78093 330.000
54.80088 315.000
54.82082 324.000
54.84077 311.000
54.86072 321.000
54.88066 334.000
54.90061 327.000
54.92056 336.000
54.94050 346.000
54.96045 299.000
54.98040 290.000
55.00035 285.000
55.02029 320.000
55.04024 313.000
55.06019 297.000
55.08013 241.000
55.10008 315.000
55.12003 315.000
55.13997 295.000
55.15992 316.000
55.17987 318.000
55.19982 326.000
55.21976 304.000
55.23971 315.000
55.25966 283.000
55.27960 326.000
55.29955 310.000
55.31950 309.000
55.33944 325.000
55.35939 303.000
55.37934 308.000
55.39929 286.000
55.41923 293.000
55.43918 311.000
55.45913 312.000
55.47907 328.000
55.49902 272.000
55.51897 286.000
55.53891 333.000
55.55886 293.000
55.57881 305.000
55.59875 329.000
55.61870 318.000
55.63865 315.000
55.65860 299.000
55.67854 312.000
55.69849 308.000
55.71844 317.000
55.73838 315.000
55.75833 326.000
55.77828 304.000
55.79822 321.000
55.81817 297.000
55.83812 314.000
55.85807 307.000
55.87801 298.000
55.89796 272.000
55.91791 304.000
55.93785 316.000
55.95780 324.000
55.97775 316.000
55.99769 312.000
56.01764 319.000
56.03759 312.000
56.05753 297.000
56.07748 313.000
56.09743 321.000
56.11738 301.000
56.13732 331.000
56.15727 328.000
56.17722 293.000
56.19716 310.000
56.21711 325.000
56.23706 326.000
56.25700 294.000
56.27695 288.000
56.29690 281.000
56.31685 299.000
56.33679 298.000
56.35674 299.000
56.37669 296.000
56.39663 320.000
56.41658 300.000
56.43653 307.000
56.45647 327.000
56.47642 325.000
56.49637 346.000
56.51631 331.000
56.53626 338.000
56.55621 306.000
56.57616 335.000
56.59610 342.000
56.61605 294.000
56.63600 323.000
56.65594 298.000
56.67589 328.000
56.69584 263.000
56.71578 318.000
56.73573 325.000
56.75568 354.000
56.77563 327.000
56.79557 344.000
56.81552 347.000
56.83547 315.000
56.85541 307.000
56.87536 316.000
56.89531 337.000
56.91525 309.000
56.93520 307.000
56.95515 328.000
56.97510 320.000
56.99504 332.000
57.01499 338.000
57.03494 303.000
57.05488 323.000
57.07483 322.000
57.09478 347.000
57.11472 321.000
57.13467 323.000
57.15462 344.000
57.17456 372.000
57.19451 344.000
57.21446 383.000
57.23441 338.000
57.25435 343.000
57.27430 359.000
57.29425 382.000
57.31419 389.000
57.33414 410.000
57.35409 437.000
57.37403 429.000
57.39398 416.000
57.41393 469.000
57.43388 448.000
57.45382 426.000
57.47377 462.000
57.49372 428.000
57.51366 384.000
57.53361 414.000
57.55356 387.000
57.57350 435.000
57.59345 401.000
57.61340 370.000
57.63334 365.000
57.65329 349.000
57.67324 331.000
57.69319 370.000
57.71313 330.000
57.73308 318.000
57.75303 335.000
57.77297 300.000
57.79292 349.000
57.81287 335.000
57.83281 338.000
57.85276 324.000
57.87271 328.000
57.89266 337.000
57.91260 318.000
57.93255 323.000
57.95250 313.000
57.97244 324.000
57.99239 318.000
58.01234 327.000
58.03228 307.000
58.05223 296.000
58.07218 299.000
58.09212 322.000
58.11207 345.000
58.13202 321.000
58.15197 329.000
58.17191 318.000
58.19186 349.000
58.21181 293.000
58.23175 303.000
58.25170 353.000
58.27165 290.000
58.29159 309.000
58.31154 298.000
58.33149 332.000
58.35144 279.000
58.37138 344.000
58.39133 323.000
58.41128 335.000
58.43122 296.000
58.45117 330.000
58.47112 330.000
58.49106 333.000
58.51101 292.000
58.53096 320.000
58.55090 329.000
58.57085 311.000
58.59080 350.000
58.61075 335.000
58.63069 315.000
58.65064 319.000
58.67059 308.000
58.69053 285.000
58.71048 333.000
58.73043 336.000
58.75037 299.000
58.77032 355.000
58.79027 348.000
58.81022 308.000
58.83016 321.000
58.85011 355.000
58.87006 318.000
58.89000 354.000
58.90995 316.000
58.92990 327.000
58.94984 297.000
58.96979 338.000
58.98974 371.000
59.00969 335.000
59.02963 324.000
59.04958 321.000
59.06953 323.000
59.08947 319.000
59.10942 318.000
59.12937 334.000
59.14931 311.000
59.16926 315.000
59.18921 306.000
59.20915 328.000
59.22910 350.000
59.24905 328.000
59.26900 306.000
59.28894 350.000
59.30889 304.000
59.32884 328.000
59.34878 344.000
59.36873 328.000
59.38868 342.000
59.40862 317.000
59.42857 353.000
59.44852 359.000
59.46847 333.000
59.48841 327.000
59.50836 282.000
59.52831 331.000
59.54825 335.000
59.56820 370.000
59.58815 342.000
59.60809 333.000
59.62804 328.000
59.64799 336.000
59.66793 319.000
59.68788 315.000
59.70783 363.000
59.72778 355.000
59.74772 383.000
59.76767 368.000
59.78762 372.000
59.80756 372.000
59.82751 399.000
59.84746 375.000
59.86740 389.000
59.88735 399.000
59.90730 364.000
59.92725 417.000
59.94719 380.000
59.96714 374.000
59.98709 406.000
60.00703 370.000
60.02698 373.000
60.04693 348.000
60.06687 356.000
60.08682 342.000
60.10677 350.000
60.12671 374.000
60.14666 381.000
60.16661 333.000
60.18656 381.000
60.20650 355.000
60.22645 352.000
60.24640 348.000
60.26634 387.000
60.28629 356.000
60.30624 353.000
60.32618 362.000
60.34613 351.000
60.36608 376.000
60.38603 345.000
60.40597 352.000
60.42592 326.000
60.44587 384.000
60.46581 358.000
60.48576 351.000
60.50571 352.000
60.52565 370.000
60.54560 376.000
60.56555 357.000
60.58550 304.000
60.60544 335.000
60.62539 358.000
60.64534 369.000
60.66528 366.000
60.68523 355.000
60.70518 348.000
60.72512 379.000
60.74507 330.000
60.76502 334.000
60.78496 363.000
60.80491 374.000
60.82486 341.000
60.84481 369.000
60.86475 336.000
60.88470 351.000
60.90465 354.000
60.92459 366.000
60.94454 365.000
60.96449 355.000
60.98443 367.000
61.00438 339.000
61.02433 354.000
61.04428 388.000
61.06422 399.000
61.08417 389.000
61.10412 342.000
61.12406 395.000
61.14401 366.000
61.16396 396.000
61.18390 387.000
61.20385 352.000
61.22380 364.000
61.24374 393.000
61.26369 392.000
61.28364 409.000
61.30359 416.000
61.32353 410.000
61.34348 405.000
61.36343 463.000
61.38337 437.000
61.40332 454.000
61.42327 434.000
61.44321 436.000
61.46316 446.000
61.48311 449.000
61.50306 468.000
61.52300 484.000
61.54295 477.000
61.56290 490.000
61.58284 511.000
61.60279 489.000
61.62274 520.000
61.64268 525.000
61.66263 491.000
61.68258 528.000
61.70252 581.000
61.72247 555.000
61.74242 582.000
61.76237 517.000
61.78231 582.000
61.80226 550.000
61.82221 567.000
61.84215 568.000
61.86210 610.000
61.88205 590.000
61.90199 583.000
61.92194 586.000
61.94189 575.000
61.96184 596.000
61.98178 628.000
62.00173 626.000
62.02168 673.000
62.04162 624.000
62.06157 693.000
62.08152 657.000
62.10146 727.000
62.12141 743.000
62.14136 775.000
62.16131 817.000
62.18125 926.000
62.20120 929.000
62.22115 1087.000
62.24109 1078.000
62.26104 1163.000
62.28099 1267.000
62.30093 1354.000
62.32088 1454.000
62.34083 1517.000
62.36077 1564.000
62.38072 1705.000
62.40067 1766.000
62.42062 1776.000
62.44056 1778.000
62.46051 1826.000
62.48046 1842.000
62.50040 1835.000
62.52035 1755.000
62.54030 1817.000
62.56024 1740.000
62.58019 1767.000
62.60014 1699.000
62.62009 1752.000
62.64003 1636.000
62.65998 1597.000
62.67993 1616.000
62.69987 1479.000
62.71982 1417.000
62.73977 1407.000
62.75971 1361.000
62.77966 1285.000
62.79961 1176.000
62.81955 1206.000
62.83950 1109.000
62.85945 1071.000
62.87940 1041.000
62.89934 988.000
62.91929 884.000
62.93924 881.000
62.95918 826.000
62.97913 830.000
62.99908 780.000
63.01902 738.000
63.03897 737.000
63.05892 718.000
63.07887 646.000
63.09881 655.000
63.11876 631.000
63.13871 613.000
63.15865 541.000
63.17860 534.000
63.19855 540.000
63.21849 543.000
63.23844 527.000
63.25839 530.000
63.27833 511.000
63.29828 463.000
63.31823 460.000
63.33818 428.000
63.35812 458.000
63.37807 431.000
63.39802 412.000
63.41796 415.000
63.43791 396.000
63.45786 412.000
63.47780 387.000
63.49775 373.000
63.51770 396.000
63.53765 397.000
63.55759 362.000
63.57754 355.000
63.59749 379.000
63.61743 369.000
63.63738 413.000
63.65733 336.000
63.67727 389.000
63.69722 394.000
63.71717 388.000
63.73712 372.000
63.75706 361.000
63.77701 386.000
63.79696 359.000
63.81690 358.000
63.83685 371.000
63.85680 368.000
63.87674 378.000
63.89669 347.000
63.91664 346.000
63.93658 354.000
63.95653 389.000
63.97648 348.000
63.99643 321.000
64.01637 347.000
64.03632 338.000
64.05627 368.000
64.07621 314.000
64.09616 350.000
64.11611 349.000
64.13605 373.000
64.15600 381.000
64.17595 326.000
64.19590 321.000
64.21584 356.000
64.23579 330.000
64.25574 365.000
64.27568 327.000
64.29563 335.000
64.31558 340.000
64.33552 372.000
64.35547 343.000
64.37542 330.000
64.39536 356.000
64.41531 329.000
64.43526 355.000
64.45521 383.000
64.47515 364.000
64.49510 355.000
64.51505 357.000
64.53499 344.000
64.55494 364.000
64.57489 352.000
64.59483 323.000
64.61478 319.000
64.63473 389.000
64.65468 342.000
64.67462 322.000
64.69457 335.000
64.71452 299.000
64.73446 348.000
64.75441 322.000
64.77436 341.000
64.79430 336.000
64.81425 337.000
64.83420 357.000
64.85414 353.000
64.87409 329.000
64.89404 321.000
64.91399 340.000
64.93393 321.000
64.95388 335.000
64.97383 330.000
64.99377 320.000
65.01372 323.000
65.03367 325.000
65.05361 342.000
65.07356 350.000
65.09351 368.000
65.11346 345.000
65.13340 314.000
65.15335 343.000
65.17330 347.000
65.19324 324.000
65.21319 297.000
65.23314 314.000
65.25308 308.000
65.27303 310.000
65.29298 320.000
65.31293 333.000
65.33287 359.000
65.35282 348.000
65.37277 316.000
65.39271 336.000
65.41266 304.000
65.43261 321.000
65.45255 330.000
65.47250 347.000
65.49245 344.000
65.51239 315.000
65.53234 362.000
65.55229 333.000
65.57224 325.000
65.59218 336.000
65.61213 365.000
65.63208 342.000
65.65202 351.000
65.67197 315.000
65.69192 355.000
65.71186 311.000
65.73181 343.000
65.75176 338.000
65.77171 318.000
65.79165 326.000
65.81160 354.000
65.83155 331.000
65.85149 331.000
65.87144 352.000
65.89139 334.000
65.91133 324.000
65.93128 327.000
65.95123 304.000
65.97117 314.000
65.99112 294.000
66.01107 329.000
66.03102 315.000
66.05096 349.000
66.07091 368.000
66.09086 318.000
66.11080 298.000
66.13075 327.000
66.15070 318.000
66.17064 314.000
66.19059 325.000
66.21054 301.000
66.23049 366.000
66.25043 319.000
66.27038 326.000
66.29033 348.000
66.31027 344.000
66.33022 309.000
66.35017 315.000
66.37011 302.000
66.39006 349.000
66.41001 307.000
66.42995 294.000
66.44990 305.000
66.46985 341.000
66.48980 347.000
66.50974 299.000
66.52969 310.000
66.54964 336.000
66.56958 357.000
66.58953 320.000
66.60948 287.000
66.62942 326.000
66.64937 303.000
66.66932 328.000
66.68927 307.000
66.70921 290.000
66.72916 291.000
66.74911 290.000
66.76905 307.000
66.78900 363.000
66.80895 302.000
66.82889 310.000
66.84884 297.000
66.86879 313.000
66.88874 317.000
66.90868 300.000
66.92863 327.000
66.94858 323.000
66.96852 330.000
66.98847 300.000
67.00842 293.000
67.02836 314.000
67.04831 320.000
67.06826 306.000
67.08820 353.000
67.10815 305.000
67.12810 270.000
67.14805 308.000
67.16799 329.000
67.18794 328.000
67.20789 331.000
67.22783 291.000
67.24778 320.000
67.26773 318.000
67.28767 313.000
67.30762 316.000
67.32757 294.000
67.34752 317.000
67.36746 340.000
67.38741 309.000
67.40736 279.000
67.42730 299.000
67.44725 295.000
67.46720 296.000
67.48714 323.000
67.50709 345.000
67.52704 328.000
67.54698 321.000
67.56693 308.000
67.58688 345.000
67.60683 293.000
67.62677 342.000
67.64672 301.000
67.66667 274.000
67.68661 322.000
67.70656 293.000
67.72651 283.000
67.74645 311.000
67.76640 313.000
67.78635 327.000
67.80630 325.000
67.82624 336.000
67.84619 300.000
67.86614 312.000
67.88608 317.000
67.90603 323.000
67.92598 315.000
67.94592 304.000
67.96587 304.000
67.98582 304.000
68.00576 319.000
68.02571 321.000
68.04566 335.000
68.06561 345.000
68.08555 304.000
68.10550 300.000
68.12545 279.000
68.14539 298.000
68.16534 288.000
68.18529 276.000
68.20523 326.000
68.22518 297.000
68.24513 338.000
68.26508 334.000
68.28502 327.000
68.30497 325.000
68.32492 323.000
68.34486 325.000
68.36481 310.000
68.38476 330.000
68.40470 266.000
68.42465 317.000
68.44460 311.000
68.46455 299.000
68.48449 291.000
68.50444 297.000
68.52439 305.000
68.54433 321.000
68.56428 305.000
68.58423 321.000
68.60417 323.000
68.62412 317.000
68.64407 330.000
68.66401 302.000
68.68396 331.000
68.70391 317.000
68.72386 319.000
68.74380 341.000
68.76375 317.000
68.78370 306.000
68.80364 293.000
68.82359 289.000
68.84354 331.000
68.86348 336.000
68.88343 316.000
68.90338 283.000
68.92333 336.000
68.94327 314.000
68.96322 316.000
68.98317 310.000
69.00311 299.000
69.02306 308.000
69.04301 310.000
69.06295 342.000
69.08290 318.000
69.10285 293.000
69.12279 323.000
69.14274 298.000
69.16269 307.000
69.18264 355.000
69.20258 315.000
69.22253 318.000
69.24248 281.000
69.26242 288.000
69.28237 327.000
69.30232 351.000
69.32226 321.000
69.34221 319.000
69.36216 334.000
69.38211 295.000
69.40205 314.000
69.42200 306.000
69.44195 310.000
69.46189 311.000
69.48184 327.000
69.50179 311.000
69.52173 306.000
69.54168 309.000
69.56163 329.000
69.58157 289.000
69.60152 327.000
69.62147 315.000
69.64142 310.000
69.66136 322.000
69.68131 299.000
69.70126 295.000
69.72120 293.000
69.74115 279.000
69.76110 314.000
69.78104 321.000
69.80099 314.000
69.82094 342.000
69.84089 273.000
69.86083 326.000
69.88078 313.000
69.90073 299.000
69.92067 299.000
69.94062 305.000
69.96057 301.000
69.98051 293.000
70.00046 343.000
70.02041 336.000
70.04035 339.000
70.06030 289.000
70.08025 349.000
70.10020 316.000
70.12014 287.000
70.14009 316.000
70.16004 327.000
70.17998 280.000
70.19993 304.000
70.21988 338.000
70.23982 285.000
70.25977 332.000
70.27972 316.000
70.29967 305.000
70.31961 335.000
70.33956 293.000
70.35951 311.000
70.37945 305.000
70.39940 310.000
70.41935 324.000
70.43929 303.000
70.45924 289.000
70.47919 324.000
70.49914 330.000
70.51908 298.000
70.53903 278.000
70.55898 345.000
70.57892 327.000
70.59887 291.000
70.61882 312.000
70.63876 322.000
70.65871 336.000
70.67866 290.000
70.69860 328.000
70.71855 294.000
70.73850 273.000
70.75845 338.000
70.77839 319.000
70.79834 302.000
70.81829 317.000
70.83823 318.000
70.85818 282.000
70.87813 320.000
70.89807 306.000
70.91802 284.000
70.93797 335.000
70.95792 309.000
70.97786 299.000
70.99781 319.000
71.01776 303.000
71.03770 303.000
71.05765 352.000
71.07760 356.000
71.09754 307.000
71.11749 335.000
71.13744 358.000
71.15738 334.000
71.17733 345.000
71.19728 315.000
71.21723 320.000
71.23717 322.000
71.25712 331.000
71.27707 323.000
71.29701 314.000
71.31696 333.000
71.33691 332.000
71.35685 355.000
71.37680 363.000
71.39675 360.000
71.41670 354.000
71.43664 346.000
71.45659 329.000
71.47654 293.000
71.49648 308.000
71.51643 345.000
71.53638 321.000
71.55632 327.000
71.57627 315.000
71.59622 327.000
71.61616 342.000
71.63611 306.000
71.65606 312.000
71.67601 296.000
71.69595 339.000
71.71590 301.000
71.73585 331.000
71.75579 324.000
71.77574 307.000
71.79569 301.000
71.81563 329.000
71.83558 318.000
71.85553 335.000
71.87548 298.000
71.89542 350.000
71.91537 344.000
71.93532 318.000
71.95526 326.000
71.97521 332.000
71.99516 302.000
72.01510 302.000
72.03505 338.000
72.05500 351.000
72.07495 330.000
72.09489 315.000
72.11484 344.000
72.13479 314.000
72.15473 329.000
72.17468 301.000
72.19463 296.000
72.21457 358.000
72.23452 374.000
72.25447 328.000
72.27441 316.000
72.29436 343.000
72.31431 343.000
72.33426 340.000
72.35420 316.000
72.37415 372.000
72.39410 349.000
72.41404 345.000
72.43399 316.000
72.45394 325.000
72.47388 312.000
72.49383 317.000
72.51378 330.000
72.53373 345.000
72.55367 351.000
72.57362 372.000
72.59357 291.000
72.61351 335.000
72.63346 311.000
72.65341 361.000
72.67335 287.000
72.69330 302.000
72.71325 311.000
72.73319 324.000
72.75314 375.000
72.77309 359.000
72.79304 343.000
72.81298 349.000
72.83293 358.000
72.85288 315.000
72.87282 346.000
72.89277 343.000
72.91272 314.000
72.93266 337.000
72.95261 379.000
72.97256 361.000
72.99251 354.000
73.01245 331.000
73.03240 330.000
73.05235 322.000
73.07229 348.000
73.09224 354.000
73.11219 328.000
73.13213 346.000
73.15208 391.000
73.17203 337.000
73.19197 357.000
73.21192 330.000
73.23187 346.000
73.25182 361.000
73.27176 376.000
73.29171 374.000
73.31166 366.000
73.33160 357.000
73.35155 320.000
73.37150 315.000
73.39144 318.000
73.41139 339.000
73.43134 361.000
73.45129 378.000
73.47123 335.000
73.49118 339.000
73.51113 349.000
73.53107 336.000
73.55102 353.000
73.57097 321.000
73.59091 314.000
73.61086 345.000
73.63081 342.000
73.65076 368.000
73.67070 324.000
73.69065 362.000
73.71060 338.000
73.73054 361.000
73.75049 362.000
73.77044 388.000
73.79038 356.000
73.81033 315.000
73.83028 363.000
73.85022 352.000
73.87017 378.000
73.89012 322.000
73.91007 373.000
73.93001 367.000
73.94996 355.000
73.96991 382.000
73.98985 367.000
74.00980 363.000
74.02975 348.000
74.04969 394.000
74.06964 384.000
74.08959 367.000
74.10954 358.000
74.12948 372.000
74.14943 399.000
74.16938 373.000
74.18932 398.000
74.20927 412.000
74.22922 385.000
74.24916 375.000
74.26911 372.000
74.28906 394.000
74.30900 406.000
74.32895 428.000
74.34890 431.000
74.36885 426.000
74.38879 402.000
74.40874 435.000
74.42869 472.000
74.44863 425.000
74.46858 501.000
74.48853 508.000
74.50847 486.000
74.52842 498.000
74.54837 515.000
74.56832 568.000
74.58826 589.000
74.60821 567.000
74.62816 602.000
74.64810 654.000
74.66805 620.000
74.68800 673.000
74.70794 646.000
74.72789 647.000
74.74784 748.000
74.76778 688.000
74.78773 726.000
74.80768 779.000
74.82763 737.000
74.84757 763.000
74.86752 760.000
74.88747 785.000
74.90741 786.000
74.92736 780.000
74.94731 757.000
74.96725 731.000
74.98720 758.000
75.00715 718.000
75.02710 743.000
75.04704 750.000
75.06699 727.000
75.08694 713.000
75.10688 718.000
75.12683 722.000
75.14678 704.000
75.16672 734.000
75.18667 664.000
75.20662 656.000
75.22657 646.000
75.24651 613.000
75.26646 585.000
75.28641 640.000
75.30635 584.000
75.32630 555.000
75.34625 538.000
75.36619 496.000
75.38614 480.000
75.40609 491.000
75.42603 486.000
75.44598 506.000
75.46593 483.000
75.48588 455.000
75.50582 464.000
75.52577 456.000
75.54572 432.000
75.56566 446.000
75.58561 430.000
75.60556 396.000
75.62550 415.000
75.64545 377.000
75.66540 396.000
75.68535 390.000
75.70529 386.000
75.72524 378.000
75.74519 386.000
75.76513 367.000
75.78508 331.000
75.80503 384.000
75.82497 322.000
75.84492 356.000
75.86487 343.000
75.88481 342.000
75.90476 346.000
75.92471 334.000
75.94466 366.000
75.96460 358.000
75.98455 336.000
76.00450 346.000
76.02444 338.000
76.04439 327.000
76.06434 336.000
76.08428 343.000
76.10423 307.000
76.12418 341.000
76.14413 358.000
76.16407 310.000
76.18402 337.000
76.20397 340.000
76.22391 341.000
76.24386 320.000
76.26381 321.000
76.28375 354.000
76.30370 335.000
76.32365 327.000
76.34359 315.000
76.36354 341.000
76.38349 336.000
76.40344 317.000
76.42338 332.000
76.44333 301.000
76.46328 329.000
76.48322 345.000
76.50317 346.000
76.52312 333.000
76.54306 338.000
76.56301 332.000
76.58296 334.000
76.60291 345.000
76.62285 333.000
76.64280 294.000
76.66275 358.000
76.68269 308.000
76.70264 304.000
76.72259 325.000
76.74253 342.000
76.76248 360.000
76.78243 321.000
76.80238 303.000
76.82232 363.000
76.84227 316.000
76.86222 353.000
76.88216 307.000
76.90211 304.000
76.92206 351.000
76.94200 333.000
76.96195 311.000
76.98190 343.000
77.00184 341.000
77.02179 338.000
77.04174 319.000
77.06169 316.000
77.08163 326.000
77.10158 313.000
77.12153 315.000
77.14147 347.000
77.16142 339.000
77.18137 330.000
77.20131 343.000
77.22126 291.000
77.24121 345.000
77.26116 322.000
77.28110 327.000
77.30105 364.000
77.32100 370.000
77.34094 337.000
77.36089 349.000
77.38084 313.000
77.40078 351.000
77.42073 369.000
77.44068 328.000
77.46062 332.000
77.48057 363.000
77.50052 348.000
77.52047 343.000
77.54041 348.000
77.56036 363.000
77.58031 372.000
77.60025 369.000
77.62020 371.000
77.64015 346.000
77.66009 316.000
77.68004 323.000
77.69999 322.000
77.71994 354.000
77.73988 357.000
77.75983 332.000
77.77978 339.000
77.79972 336.000
77.81967 347.000
77.83962 318.000
77.85956 351.000
77.87951 335.000
77.89946 343.000
77.91940 338.000
77.93935 343.000
77.95930 363.000
77.97925 346.000
77.99919 327.000
78.01914 350.000
78.03909 329.000
78.05903 344.000
78.07898 395.000
78.09893 370.000
78.11887 321.000
78.13882 353.000
78.15877 362.000
78.17872 359.000
78.19866 380.000
78.21861 366.000
78.23856 360.000
78.25850 391.000
78.27845 375.000
78.29840 391.000
78.31834 405.000
78.33829 380.000
78.35824 424.000
78.37819 386.000
78.39813 408.000
78.41808 370.000
78.43803 428.000
78.45797 460.000
78.47792 435.000
78.49787 432.000
78.51781 453.000
78.53776 493.000
78.55771 509.000
78.57765 491.000
78.59760 517.000
78.61755 540.000
78.63750 595.000
78.65744 542.000
78.67739 564.000
78.69734 597.000
78.71728 606.000
78.73723 609.000
78.75718 651.000
78.77712 656.000
78.79707 618.000
78.81702 677.000
78.83697 613.000
78.85691 622.000
78.87686 671.000
78.89681 662.000
78.91675 647.000
78.93670 647.000
78.95665 620.000
78.97659 632.000
78.99654 596.000
79.01649 569.000
79.03643 583.000
79.05638 586.000
79.07633 616.000
79.09628 600.000
79.11622 556.000
79.13617 510.000
79.15612 520.000
79.17606 526.000
79.19601 554.000
79.21596 523.000
79.23590 476.000
79.25585 476.000
79.27580 456.000
79.29575 447.000
79.31569 478.000
79.33564 469.000
79.35559 452.000
79.37553 461.000
79.39548 441.000
79.41543 432.000
79.43537 362.000
79.45532 395.000
79.47527 389.000
79.49521 374.000
79.51516 381.000
79.53511 379.000
79.55506 364.000
79.57500 339.000
79.59495 376.000
79.61490 361.000
79.63484 351.000
79.65479 357.000
79.67474 370.000
79.69468 391.000
79.71463 360.000
79.73458 328.000
79.75453 334.000
79.77447 355.000
79.79442 325.000
79.81437 318.000
79.83431 359.000
79.85426 351.000
79.87421 344.000
79.89415 352.000
79.91410 350.000
79.93405 304.000
79.95399 339.000
79.97394 302.000
79.99389 316.000
80.01384 316.000
80.03378 335.000
80.05373 317.000
80.07368 322.000
80.09362 306.000
80.11357 312.000
80.13352 324.000
80.15346 337.000
80.17341 329.000
80.19336 318.000
80.21331 319.000
80.23325 309.000
80.25320 300.000
80.27315 344.000
80.29309 311.000
80.31304 339.000
80.33299 312.000
80.35293 312.000
80.37288 309.000
80.39283 301.000
80.41278 298.000
80.43272 312.000
80.45267 329.000
80.47262 324.000
80.49256 311.000
80.51251 306.000
80.53246 293.000
80.55240 320.000
80.57235 297.000
80.59230 289.000
80.61224 325.000
80.63219 327.000
80.65214 346.000
80.67209 313.000
80.69203 308.000
80.71198 329.000
80.73193 289.000
80.75187 316.000
80.77182 306.000
80.79177 335.000
80.81171 324.000
80.83166 332.000
80.85161 316.000
80.87156 311.000
80.89150 293.000
80.91145 303.000
80.93140 337.000
80.95134 328.000
80.97129 284.000
80.99124 309.000
81.01118 286.000
81.03113 293.000
81.05108 317.000
81.07102 313.000
81.09097 315.000
81.11092 316.000
81.13087 286.000
81.15081 316.000
81.17076 311.000
81.19071 309.000
81.21065 294.000
81.23060 338.000
81.25055 306.000
81.27049 336.000
81.29044 335.000
81.31039 319.000
81.33034 288.000
81.35028 304.000
81.37023 311.000
81.39018 327.000
81.41012 342.000
81.43007 304.000
81.45002 301.000
81.46996 309.000
81.48991 331.000
81.50986 323.000
81.52980 310.000
81.54975 284.000
81.56970 331.000
81.58965 303.000
81.60959 294.000
81.62954 304.000
81.64949 301.000
81.66943 317.000
81.68938 304.000
81.70933 294.000
81.72927 278.000
81.74922 295.000
81.76917 305.000
81.78912 338.000
81.80906 325.000
81.82901 329.000
81.84896 320.000
81.86890 336.000
81.88885 295.000
81.90880 351.000
81.92874 320.000
81.94869 293.000
81.96864 286.000
81.98859 323.000
82.00853 337.000
82.02848 302.000
82.04843 327.000
82.06837 283.000
82.08832 301.000
82.10827 329.000
82.12821 321.000
82.14816 271.000
82.16811 313.000
82.18805 296.000
82.20800 298.000
82.22795 293.000
82.24790 336.000
82.26784 288.000
82.28779 315.000
82.30774 347.000
82.32768 296.000
82.34763 278.000
82.36758 324.000
82.38752 315.000
82.40747 288.000
82.42742 309.000
82.44737 340.000
82.46731 312.000
82.48726 299.000
82.50721 313.000
82.52715 315.000
82.54710 336.000
82.56705 299.000
82.58699 320.000
82.60694 327.000
82.62689 298.000
82.64683 283.000
82.66678 362.000
82.68673 299.000
82.70668 315.000
82.72662 300.000
82.74657 315.000
82.76652 318.000
82.78646 322.000
82.80641 331.000
82.82636 321.000
82.84630 325.000
82.86625 313.000
82.88620 314.000
82.90615 304.000
82.92609 299.000
82.94604 330.000
82.96599 332.000
82.98593 321.000
83.00588 327.000
83.02583 325.000
83.04577 296.000
83.06572 306.000
83.08567 308.000
83.10561 318.000
83.12556 285.000
83.14551 304.000
83.16546 305.000
83.18540 308.000
83.20535 276.000
83.22530 301.000
83.24524 313.000
83.26519 306.000
83.28514 310.000
83.30508 319.000
83.32503 289.000
83.34498 307.000
83.36493 288.000
83.38487 289.000
83.40482 303.000
83.42477 332.000
83.44471 306.000
83.46466 318.000
83.48461 296.000
83.50455 321.000
83.52450 325.000
83.54445 332.000
83.56440 307.000
83.58434 325.000
83.60429 306.000
83.62424 331.000
83.64418 299.000
83.66413 305.000
83.68408 277.000
83.70402 308.000
83.72397 295.000
83.74392 317.000
83.76386 294.000
83.78381 272.000
83.80376 271.000
83.82371 287.000
83.84365 331.000
83.86360 289.000
83.88355 313.000
83.90349 289.000
83.92344 282.000
83.94339 300.000
83.96333 295.000
83.98328 305.000
84.00323 310.000
84.02318 288.000
84.04312 310.000
84.06307 301.000
84.08302 325.000
84.10296 285.000
84.12291 304.000
84.14286 286.000
84.16280 311.000
84.18275 301.000
84.20270 315.000
84.22264 304.000
84.24259 303.000
84.26254 330.000
84.28249 297.000
84.30243 311.000
84.32238 311.000
84.34233 293.000
84.36227 309.000
84.38222 312.000
84.40217 300.000
84.42211 291.000
84.44206 283.000
84.46201 290.000
84.48196 313.000
84.50190 322.000
84.52185 343.000
84.54180 318.000
84.56174 310.000
84.58169 307.000
84.60164 330.000
84.62158 300.000
84.64153 301.000
84.66148 299.000
84.68142 305.000
84.70137 287.000
84.72132 330.000
84.74127 291.000
84.76121 314.000
84.78116 300.000
84.80111 311.000
84.82105 297.000
84.84100 314.000
84.86095 324.000
84.88089 293.000
84.90084 317.000
84.92079 314.000
84.94074 304.000
84.96068 314.000
84.98063 316.000
85.00058 289.000
85.02052 313.000
85.04047 319.000
85.06042 281.000
85.08036 304.000
85.10031 313.000
85.12026 281.000
85.14021 283.000
85.16015 286.000
85.18010 311.000
85.20005 285.000
85.21999 285.000
85.23994 323.000
85.25989 288.000
85.27983 297.000
85.29978 325.000
85.31973 302.000
85.33967 300.000
85.35962 275.000
85.37957 319.000
85.39952 335.000
85.41946 311.000
85.43941 267.000
85.45936 297.000
85.47930 308.000
85.49925 305.000
85.51920 317.000
85.53914 317.000
85.55909 337.000
85.57904 321.000
85.59899 296.000
85.61893 271.000
85.63888 289.000
85.65883 293.000
85.67877 302.000
85.69872 295.000
85.71867 295.000
85.73861 323.000
85.75856 304.000
85.77851 304.000
85.79845 297.000
85.81840 277.000
85.83835 290.000
85.85830 292.000
85.87824 307.000
85.89819 282.000
85.91814 304.000
85.93808 289.000
85.95803 307.000
85.97798 275.000
85.99792 313.000
86.01787 326.000
86.03782 294.000
86.05777 319.000
86.07771 320.000
86.09766 299.000
86.11761 294.000
86.13755 298.000
86.15750 323.000
86.17745 346.000
86.19739 340.000
86.21734 295.000
86.23729 293.000
86.25723 324.000
86.27718 314.000
86.29713 304.000
86.31708 305.000
86.33702 296.000
86.35697 285.000
86.37692 327.000
86.39686 309.000
86.41681 317.000
86.43676 318.000
86.45670 339.000
86.47665 297.000
86.49660 275.000
86.51655 298.000
86.53649 307.000
86.55644 324.000
86.57639 288.000
86.59633 289.000
86.61628 292.000
86.63623 272.000
86.65617 343.000
86.67612 300.000
86.69607 299.000
86.71602 299.000
86.73596 292.000
86.75591 308.000
86.77586 309.000
86.79580 320.000
86.81575 295.000
86.83570 295.000
86.85564 303.000
86.87559 312.000
86.89554 301.000
86.91548 314.000
86.93543 305.000
86.95538 324.000
86.97533 332.000
86.99527 313.000
87.01522 315.000
87.03517 317.000
87.05511 286.000
87.07506 296.000
87.09501 335.000
87.11495 302.000
87.13490 277.000
87.15485 304.000
87.17480 338.000
87.19474 336.000
87.21469 328.000
87.23464 329.000
87.25458 323.000
87.27453 287.000
87.29448 315.000
87.31442 300.000
87.33437 300.000
87.35432 301.000
87.37426 332.000
87.39421 312.000
87.41416 293.000
87.43411 311.000
87.45405 293.000
87.47400 304.000
87.49395 330.000
87.51389 291.000
87.53384 328.000
87.55379 293.000
87.57373 318.000
87.59368 310.000
87.61363 315.000
87.63358 335.000
87.65352 321.000
87.67347 318.000
87.69342 339.000
87.71336 302.000
87.73331 327.000
87.75326 298.000
87.77320 319.000
87.79315 299.000
87.81310 298.000
87.83304 314.000
87.85299 348.000
87.87294 296.000
87.89289 338.000
87.91283 302.000
87.93278 275.000
87.95273 289.000
87.97267 318.000
87.99262 305.000
88.01257 321.000
88.03251 298.000
88.05246 281.000
88.07241 288.000
88.09236 313.000
88.11230 319.000
88.13225 316.000
88.15220 336.000
88.17214 293.000
88.19209 318.000
88.21204 291.000
88.23198 302.000
88.25193 307.000
88.27188 322.000
88.29183 319.000
88.31177 304.000
88.33172 274.000
88.35167 312.000
88.37161 304.000
88.39156 313.000
88.41151 303.000
88.43145 336.000
88.45140 294.000
88.47135 304.000
88.49129 308.000
88.51124 319.000
88.53119 288.000
88.55114 304.000
88.57108 284.000
88.59103 302.000
88.61098 290.000
88.63092 327.000
88.65087 299.000
88.67082 306.000
88.69076 325.000
88.71071 311.000
88.73066 296.000
88.75061 299.000
88.77055 321.000
88.79050 326.000
88.81045 321.000
88.83039 324.000
88.85034 302.000
88.87029 323.000
88.89023 302.000
88.91018 314.000
88.93013 316.000
88.95007 289.000
88.97002 300.000
88.98997 297.000
89.00992 266.000
89.02986 285.000
89.04981 278.000
89.06976 320.000
89.08970 326.000
89.10965 283.000
89.12960 299.000
89.14954 308.000
89.16949 303.000
89.18944 285.000
89.20939 298.000
89.22933 285.000
89.24928 292.000
89.26923 324.000
89.28917 280.000
89.30912 322.000
89.32907 304.000
89.34901 314.000
89.36896 347.000
89.38891 312.000
89.40885 321.000
89.42880 299.000
89.44875 313.000
89.46870 308.000
89.48864 305.000
89.50859 342.000
89.52854 291.000
89.54848 307.000
89.56843 322.000
89.58838 313.000
89.60832 315.000
89.62827 329.000
89.64822 301.000
89.66817 276.000
89.68811 304.000
89.70806 317.000
89.72801 302.000
89.74795 326.000
89.76790 313.000
89.78785 284.000
89.80779 310.000
89.82774 346.000
89.84769 310.000
89.86764 340.000
89.88758 307.000
89.90753 279.000
89.92748 322.000
89.94742 294.000
89.96737 296.000
89.98732 291.000
90.00726 291.000
