10.00000 386.000
10.01995 397.000
10.03989 394.000
10.05984 396.000
10.07979 420.000
10.09973 372.000
10.11968 412.000
10.13963 410.000
10.15958 419.000
10.17952 403.000
10.19947 395.000
10.21942 429.000
10.23936 384.000
10.25931 423.000
10.27926 399.000
10.29920 394.000
10.31915 388.000
10.33910 429.000
10.35905 377.000
10.37899 407.000
10.39894 407.000
10.41889 384.000
10.43883 423.000
10.45878 414.000
10.47873 418.000
10.49867 414.000
10.51862 430.000
10.53857 407.000
10.55851 406.000
10.57846 380.000
10.59841 375.000
10.61836 374.000
10.63830 429.000
10.65825 417.000
10.67820 407.000
10.69814 409.000
10.71809 405.000
10.73804 443.000
10.75798 447.000
10.77793 409.000
10.79788 408.000
10.81783 423.000
10.83777 429.000
10.85772 429.000
10.87767 380.000
10.89761 407.000
10.91756 441.000
10.93751 394.000
10.95745 457.000
10.97740 453.000
10.99735 390.000
11.01730 442.000
11.03724 420.000
11.05719 442.000
11.07714 411.000
11.09708 409.000
11.11703 444.000
11.13698 400.000
11.15692 412.000
11.17687 395.000
11.19682 433.000
11.21676 409.000
11.23671 387.000
11.25666 394.000
11.27661 382.000
11.29655 399.000
11.31650 385.000
11.33645 408.000
11.35639 422.000
11.37634 438.000
11.39629 425.000
11.41623 424.000
11.43618 409.000
11.45613 412.000
11.47608 415.000
11.49602 395.000
11.51597 405.000
11.53592 397.000
11.55586 427.000
11.57581 453.000
11.59576 391.000
11.61570 383.000
11.63565 417.000
11.65560 395.000
11.67554 432.000
11.69549 397.000
11.71544 392.000
11.73539 440.000
11.75533 433.000
11.77528 405.000
11.79523 411.000
11.81517 395.000
11.83512 403.000
11.85507 394.000
11.87501 436.000
11.89496 463.000
11.91491 415.000
11.93486 400.000
11.95480 415.000
11.97475 448.000
11.99470 413.000
12.01464 415.000
12.03459 426.000
12.05454 401.000
12.07448 433.000
12.09443 420.000
12.11438 428.000
12.13432 394.000
12.15427 417.000
12.17422 432.000
12.19417 433.000
12.21411 430.000
12.23406 370.000
12.25401 403.000
12.27395 400.000
12.29390 406.000
12.31385 411.000
12.33379 423.000
12.35374 409.000
12.37369 411.000
12.39364 381.000
12.41358 440.000
12.43353 381.000
12.45348 397.000
12.47342 424.000
12.49337 428.000
12.51332 417.000
12.53326 425.000
12.55321 381.000
12.57316 406.000
12.59311 427.000
12.61305 439.000
12.63300 420.000
12.65295 447.000
12.67289 411.000
12.69284 419.000
12.71279 432.000
12.73273 428.000
12.75268 407.000
12.77263 371.000
12.79257 403.000
12.81252 374.000
12.83247 406.000
12.85242 393.000
12.87236 397.000
12.89231 409.000
12.91226 422.000
12.93220 422.000
12.95215 412.000
12.97210 398.000
12.99204 407.000
13.01199 394.000
13.03194 411.000
13.05189 407.000
13.07183 394.000
13.09178 406.000
13.11173 397.000
13.13167 426.000
13.15162 429.000
13.17157 418.000
13.19151 416.000
13.21146 468.000
13.23141 449.000
13.25135 423.000
13.27130 434.000
13.29125 394.000
13.31120 423.000
13.33114 436.000
13.35109 405.000
13.37104 413.000
13.39098 425.000
13.41093 414.000
13.43088 434.000
13.45082 461.000
13.47077 422.000
13.49072 407.000
13.51067 437.000
13.53061 440.000
13.55056 416.000
13.57051 389.000
13.59045 415.000
13.61040 433.000
13.63035 389.000
13.65029 417.000
13.67024 428.000
13.69019 403.000
13.71013 417.000
13.73008 398.000
13.75003 420.000
13.76998 376.000
13.78992 414.000
13.80987 406.000
13.82982 434.000
13.84976 406.000
13.86971 455.000
13.88966 409.000
13.90960 405.000
13.92955 433.000
13.94950 366.000
13.96945 428.000
13.98939 419.000
14.00934 419.000
14.02929 402.000
14.04923 421.000
14.06918 406.000
14.08913 425.000
14.10907 424.000
14.12902 459.000
14.14897 398.000
14.16892 388.000
14.18886 407.000
14.20881 437.000
14.22876 427.000
14.24870 431.000
14.26865 421.000
14.28860 403.000
14.30854 422.000
14.32849 422.000
14.34844 399.000
14.36838 379.000
14.38833 398.000
14.40828 428.000
14.42823 398.000
14.44817 410.000
14.46812 396.000
14.48807 414.000
14.50801 455.000
14.52796 420.000
14.54791 416.000
14.56785 412.000
14.58780 434.000
14.60775 412.000
14.62770 455.000
14.64764 436.000
14.66759 441.000
14.68754 469.000
14.70748 402.000
14.72743 420.000
14.74738 402.000
14.76732 419.000
14.78727 468.000
14.80722 418.000
14.82716 452.000
14.84711 447.000
14.86706 393.000
14.88701 399.000
14.90695 457.000
14.92690 398.000
14.94685 417.000
14.96679 394.000
14.98674 414.000
15.00669 425.000
15.02663 466.000
15.04658 441.000
15.06653 432.000
15.08648 442.000
15.10642 433.000
15.12637 442.000
15.14632 475.000
15.16626 472.000
15.18621 478.000
15.20616 438.000
15.22610 455.000
15.24605 430.000
15.26600 423.000
15.28594 467.000
15.30589 423.000
15.32584 431.000
15.34579 464.000
15.36573 461.000
15.38568 495.000
15.40563 496.000
15.42557 480.000
15.44552 461.000
15.46547 458.000
15.48541 492.000
15.50536 530.000
15.52531 534.000
15.54526 525.000
15.56520 521.000
15.58515 477.000
15.60510 512.000
15.62504 514.000
15.64499 511.000
15.66494 541.000
15.68488 628.000
15.70483 697.000
15.72478 811.000
15.74472 989.000
15.76467 1195.000
15.78462 1735.000
15.80457 2535.000
15.82451 3747.000
15.84446 5137.000
15.86441 5452.000
15.88435 5051.000
15.90430 3661.000
15.92425 2393.000
15.94419 1418.000
15.96414 922.000
15.98409 723.000
16.00404 604.000
16.02398 607.000
16.04393 550.000
16.06388 530.000
16.08382 542.000
16.10377 551.000
16.12372 507.000
16.14366 538.000
16.16361 503.000
16.18356 503.000
16.20351 463.000
16.22345 525.000
16.24340 476.000
16.26335 481.000
16.28329 453.000
16.30324 483.000
16.32319 456.000
16.34313 468.000
16.36308 443.000
16.38303 470.000
16.40297 480.000
16.42292 424.000
16.44287 432.000
16.46282 458.000
16.48276 444.000
16.50271 448.000
16.52266 408.000
16.54260 502.000
16.56255 475.000
16.58250 450.000
16.60244 448.000
16.62239 456.000
16.64234 451.000
16.66229 392.000
16.68223 466.000
16.70218 403.000
16.72213 445.000
16.74207 465.000
16.76202 479.000
16.78197 524.000
16.80191 509.000
16.82186 569.000
16.84181 559.000
16.86175 559.000
16.88170 579.000
16.90165 510.000
16.92160 494.000
16.94154 489.000
16.96149 497.000
16.98144 455.000
17.00138 429.000
17.02133 432.000
17.04128 420.000
17.06122 422.000
17.08117 444.000
17.10112 420.000
17.12107 411.000
17.14101 443.000
17.16096 452.000
17.18091 438.000
17.20085 434.000
17.22080 428.000
17.24075 449.000
17.26069 430.000
17.28064 446.000
17.30059 386.000
17.32053 400.000
17.34048 404.000
17.36043 426.000
17.38038 426.000
17.40032 433.000
17.42027 430.000
17.44022 444.000
17.46016 399.000
17.48011 431.000
17.50006 414.000
17.52000 431.000
17.53995 428.000
17.55990 434.000
17.57985 420.000
17.59979 382.000
17.61974 414.000
17.63969 440.000
17.65963 412.000
17.67958 441.000
17.69953 434.000
17.71947 394.000
17.73942 373.000
17.75937 428.000
17.77932 432.000
17.79926 412.000
17.81921 440.000
17.83916 417.000
17.85910 398.000
17.87905 436.000
17.89900 456.000
17.91894 435.000
17.93889 384.000
17.95884 424.000
17.97878 412.000
17.99873 421.000
18.01868 406.000
18.03863 447.000
18.05857 449.000
18.07852 392.000
18.09847 401.000
18.11841 452.000
18.13836 451.000
18.15831 416.000
18.17825 415.000
18.19820 429.000
18.21815 447.000
18.23810 472.000
18.25804 425.000
18.27799 445.000
18.29794 440.000
18.31788 464.000
18.33783 408.000
18.35778 481.000
18.37772 475.000
18.39767 470.000
18.41762 508.000
18.43756 479.000
18.45751 420.000
18.47746 421.000
18.49741 415.000
18.51735 434.000
18.53730 427.000
18.55725 428.000
18.57719 400.000
18.59714 411.000
18.61709 390.000
18.63703 438.000
18.65698 420.000
18.67693 429.000
18.69688 418.000
18.71682 449.000
18.73677 452.000
18.75672 415.000
18.77666 403.000
18.79661 417.000
18.81656 448.000
18.83650 455.000
18.85645 406.000
18.87640 417.000
18.89634 407.000
18.91629 432.000
18.93624 398.000
18.95619 396.000
18.97613 399.000
18.99608 416.000
19.01603 382.000
19.03597 400.000
19.05592 408.000
19.07587 415.000
19.09581 429.000
19.11576 451.000
19.13571 448.000
19.15566 438.000
19.17560 393.000
19.19555 446.000
19.21550 402.000
19.23544 442.000
19.25539 420.000
19.27534 435.000
19.29528 383.000
19.31523 422.000
19.33518 422.000
19.35513 455.000
19.37507 449.000
19.39502 436.000
19.41497 428.000
19.43491 448.000
19.45486 451.000
19.47481 425.000
19.49475 404.000
19.51470 438.000
19.53465 377.000
19.55459 416.000
19.57454 435.000
19.59449 437.000
19.61444 441.000
19.63438 434.000
19.65433 398.000
19.67428 431.000
19.69422 410.000
19.71417 454.000
19.73412 433.000
19.75406 454.000
19.77401 441.000
19.79396 428.000
19.81391 443.000
19.83385 439.000
19.85380 451.000
19.87375 429.000
19.89369 419.000
19.91364 428.000
19.93359 437.000
19.95353 461.000
19.97348 448.000
19.99343 448.000
20.01337 454.000
20.03332 417.000
20.05327 447.000
20.07322 445.000
20.09316 477.000
20.11311 469.000
20.13306 455.000
20.15300 416.000
20.17295 433.000
20.19290 439.000
20.21284 422.000
20.23279 486.000
20.25274 436.000
20.27269 434.000
20.29263 457.000
20.31258 477.000
20.33253 475.000
20.35247 430.000
20.37242 445.000
20.39237 493.000
20.41231 417.000
20.43226 487.000
20.45221 461.000
20.47215 438.000
20.49210 519.000
20.51205 408.000
20.53200 452.000
20.55194 474.000
20.57189 502.000
20.59184 465.000
20.61178 476.000
20.63173 504.000
20.65168 474.000
20.67162 489.000
20.69157 549.000
20.71152 526.000
20.73147 627.000
20.75141 561.000
20.77136 684.000
20.79131 774.000
20.81125 787.000
20.83120 869.000
20.85115 987.000
20.87109 993.000
20.89104 1038.000
20.91099 1017.000
20.93094 1012.000
20.95088 966.000
20.97083 969.000
20.99078 1030.000
21.01072 927.000
21.03067 887.000
21.05062 981.000
21.07056 1011.000
21.09051 1007.000
21.11046 856.000
21.13040 783.000
21.15035 661.000
21.17030 612.000
21.19025 536.000
21.21019 486.000
21.23014 458.000
21.25009 456.000
21.27003 463.000
21.28998 435.000
21.30993 463.000
21.32987 430.000
21.34982 446.000
21.36977 478.000
21.38972 435.000
21.40966 441.000
21.42961 418.000
21.44956 410.000
21.46950 440.000
21.48945 454.000
21.50940 448.000
21.52934 416.000
21.54929 435.000
21.56924 440.000
21.58918 379.000
21.60913 441.000
21.62908 426.000
21.64903 422.000
21.66897 421.000
21.68892 437.000
21.70887 415.000
21.72881 425.000
21.74876 439.000
21.76871 422.000
21.78865 404.000
21.80860 471.000
21.82855 458.000
21.84850 432.000
21.86844 436.000
21.88839 434.000
21.90834 424.000
21.92828 404.000
21.94823 469.000
21.96818 432.000
21.98812 464.000
22.00807 455.000
22.02802 445.000
22.04796 420.000
22.06791 511.000
22.08786 441.000
22.10781 449.000
22.12775 493.000
22.14770 438.000
22.16765 437.000
22.18759 456.000
22.20754 446.000
22.22749 466.000
22.24743 490.000
22.26738 442.000
22.28733 446.000
22.30728 451.000
22.32722 444.000
22.34717 450.000
22.36712 455.000
22.38706 477.000
22.40701 429.000
22.42696 408.000
22.44690 446.000
22.46685 413.000
22.48680 447.000
22.50675 427.000
22.52669 439.000
22.54664 447.000
22.56659 415.000
22.58653 437.000
22.60648 442.000
22.62643 430.000
22.64637 433.000
22.66632 420.000
22.68627 419.000
22.70621 474.000
22.72616 492.000
22.74611 427.000
22.76606 476.000
22.78600 400.000
22.80595 453.000
22.82590 430.000
22.84584 440.000
22.86579 459.000
22.88574 436.000
22.90568 417.000
22.92563 421.000
22.94558 407.000
22.96553 448.000
22.98547 439.000
23.00542 416.000
23.02537 427.000
23.04531 434.000
23.06526 471.000
23.08521 462.000
23.10515 458.000
23.12510 466.000
23.14505 452.000
23.16499 466.000
23.18494 475.000
23.20489 458.000
23.22484 457.000
23.24478 441.000
23.26473 429.000
23.28468 427.000
23.30462 468.000
23.32457 435.000
23.34452 481.000
23.36446 459.000
23.38441 449.000
23.40436 444.000
23.42431 447.000
23.44425 429.000
23.46420 434.000
23.48415 436.000
23.50409 431.000
23.52404 426.000
23.54399 466.000
23.56393 483.000
23.58388 480.000
23.60383 465.000
23.62377 448.000
23.64372 442.000
23.66367 465.000
23.68362 427.000
23.70356 441.000
23.72351 448.000
23.74346 469.000
23.76340 430.000
23.78335 450.000
23.80330 442.000
23.82324 436.000
23.84319 443.000
23.86314 464.000
23.88309 427.000
23.90303 426.000
23.92298 427.000
23.94293 408.000
23.96287 457.000
23.98282 452.000
24.00277 446.000
24.02271 463.000
24.04266 439.000
24.06261 458.000
24.08256 431.000
24.10250 483.000
24.12245 491.000
24.14240 444.000
24.16234 442.000
24.18229 433.000
24.20224 439.000
24.22218 488.000
24.24213 451.000
24.26208 437.000
24.28202 452.000
24.30197 434.000
24.32192 490.000
24.34187 439.000
24.36181 474.000
24.38176 468.000
24.40171 404.000
24.42165 447.000
24.44160 415.000
24.46155 447.000
24.48149 476.000
24.50144 471.000
24.52139 458.000
24.54134 422.000
24.56128 406.000
24.58123 437.000
24.60118 474.000
24.62112 424.000
24.64107 443.000
24.66102 435.000
24.68096 435.000
24.70091 453.000
24.72086 475.000
24.74080 446.000
24.76075 421.000
24.78070 431.000
24.80065 458.000
24.82059 442.000
24.84054 457.000
24.86049 504.000
24.88043 475.000
24.90038 449.000
24.92033 473.000
24.94027 514.000
24.96022 538.000
24.98017 543.000
25.00012 547.000
25.02006 546.000
25.04001 537.000
25.05996 542.000
25.07990 499.000
25.09985 523.000
25.11980 488.000
25.13974 450.000
25.15969 448.000
25.17964 446.000
25.19958 472.000
25.21953 467.000
25.23948 473.000
25.25943 467.000
25.27937 426.000
25.29932 424.000
25.31927 463.000
25.33921 481.000
25.35916 475.000
25.37911 495.000
25.39905 465.000
25.41900 481.000
25.43895 453.000
25.45890 501.000
25.47884 469.000
25.49879 466.000
25.51874 501.000
25.53868 473.000
25.55863 460.000
25.57858 453.000
25.59852 459.000
25.61847 448.000
25.63842 435.000
25.65837 422.000
25.67831 471.000
25.69826 464.000
25.71821 465.000
25.73815 430.000
25.75810 448.000
25.77805 452.000
25.79799 478.000
25.81794 493.000
25.83789 483.000
25.85783 463.000
25.87778 456.000
25.89773 440.000
25.91768 469.000
25.93762 450.000
25.95757 454.000
25.97752 484.000
25.99746 468.000
26.01741 430.000
26.03736 423.000
26.05730 516.000
26.07725 490.000
26.09720 427.000
26.11715 456.000
26.13709 466.000
26.15704 456.000
26.17699 450.000
26.19693 479.000
26.21688 447.000
26.23683 493.000
26.25677 430.000
26.27672 475.000
26.29667 470.000
26.31661 457.000
26.33656 473.000
26.35651 457.000
26.37646 438.000
26.39640 446.000
26.41635 410.000
26.43630 458.000
26.45624 429.000
26.47619 477.000
26.49614 444.000
26.51608 448.000
26.53603 438.000
26.55598 455.000
26.57593 456.000
26.59587 503.000
26.61582 542.000
26.63577 464.000
26.65571 501.000
26.67566 486.000
26.69561 466.000
26.71555 456.000
26.73550 478.000
26.75545 464.000
26.77539 432.000
26.79534 481.000
26.81529 457.000
26.83524 437.000
26.85518 429.000
26.87513 448.000
26.89508 431.000
26.91502 489.000
26.93497 434.000
26.95492 469.000
26.97486 433.000
26.99481 474.000
27.01476 485.000
27.03471 510.000
27.05465 484.000
27.07460 486.000
27.09455 503.000
27.11449 462.000
27.13444 453.000
27.15439 485.000
27.17433 449.000
27.19428 484.000
27.21423 484.000
27.23417 484.000
27.25412 507.000
27.27407 469.000
27.29402 454.000
27.31396 506.000
27.33391 434.000
27.35386 429.000
27.37380 459.000
27.39375 420.000
27.41370 460.000
27.43364 425.000
27.45359 436.000
27.47354 435.000
27.49349 427.000
27.51343 468.000
27.53338 454.000
27.55333 468.000
27.57327 462.000
27.59322 480.000
27.61317 474.000
27.63311 445.000
27.65306 432.000
27.67301 488.000
27.69296 480.000
27.71290 428.000
27.73285 504.000
27.75280 438.000
27.77274 431.000
27.79269 466.000
27.81264 436.000
27.83258 463.000
27.85253 481.000
27.87248 475.000
27.89242 474.000
27.91237 467.000
27.93232 449.000
27.95227 458.000
27.97221 478.000
27.99216 456.000
28.01211 475.000
28.03205 514.000
28.05200 445.000
28.07195 485.000
28.09189 427.000
28.11184 495.000
28.13179 473.000
28.15174 488.000
28.17168 465.000
28.19163 457.000
28.21158 494.000
28.23152 504.000
28.25147 487.000
28.27142 439.000
28.29136 472.000
28.31131 502.000
28.33126 481.000
28.35120 483.000
28.37115 486.000
28.39110 453.000
28.41105 499.000
28.43099 490.000
28.45094 494.000
28.47089 488.000
28.49083 513.000
28.51078 512.000
28.53073 459.000
28.55067 466.000
28.57062 454.000
28.59057 487.000
28.61052 439.000
28.63046 488.000
28.65041 482.000
28.67036 459.000
28.69030 480.000
28.71025 477.000
28.73020 513.000
28.75014 458.000
28.77009 496.000
28.79004 517.000
28.80998 504.000
28.82993 485.000
28.84988 527.000
28.86983 513.000
28.88977 504.000
28.90972 511.000
28.92967 467.000
28.94961 414.000
28.96956 485.000
28.98951 448.000
29.00945 483.000
29.02940 485.000
29.04935 471.000
29.06930 501.000
29.08924 478.000
29.10919 514.000
29.12914 487.000
29.14908 488.000
29.16903 544.000
29.18898 553.000
29.20892 547.000
29.22887 533.000
29.24882 583.000
29.26877 589.000
29.28871 688.000
29.30866 674.000
29.32861 704.000
29.34855 777.000
29.36850 769.000
29.38845 736.000
29.40839 710.000
29.42834 723.000
29.44829 746.000
29.46823 665.000
29.48818 685.000
29.50813 663.000
29.52808 683.000
29.54802 571.000
29.56797 540.000
29.58792 560.000
29.60786 554.000
29.62781 521.000
29.64776 535.000
29.66770 545.000
29.68765 502.000
29.70760 505.000
29.72755 505.000
29.74749 486.000
29.76744 507.000
29.78739 497.000
29.80733 458.000
29.82728 520.000
29.84723 514.000
29.86717 496.000
29.88712 510.000
29.90707 517.000
29.92701 527.000
29.94696 472.000
29.96691 533.000
29.98686 483.000
30.00680 513.000
30.02675 487.000
30.04670 462.000
30.06664 476.000
30.08659 479.000
30.10654 553.000
30.12648 499.000
30.14643 540.000
30.16638 536.000
30.18633 501.000
30.20627 554.000
30.22622 632.000
30.24617 575.000
30.26611 625.000
30.28606 561.000
30.30601 548.000
30.32595 511.000
30.34590 544.000
30.36585 510.000
30.38579 495.000
30.40574 512.000
30.42569 502.000
30.44564 523.000
30.46558 507.000
30.48553 477.000
30.50548 514.000
30.52542 511.000
30.54537 466.000
30.56532 503.000
30.58526 487.000
30.60521 510.000
30.62516 466.000
30.64511 486.000
30.66505 505.000
30.68500 472.000
30.70495 491.000
30.72489 497.000
30.74484 510.000
30.76479 506.000
30.78473 474.000
30.80468 468.000
30.82463 475.000
30.84458 475.000
30.86452 502.000
30.88447 495.000
30.90442 462.000
30.92436 503.000
30.94431 501.000
30.96426 480.000
30.98420 528.000
31.00415 491.000
31.02410 497.000
31.04404 514.000
31.06399 526.000
31.08394 465.000
31.10389 498.000
31.12383 490.000
31.14378 493.000
31.16373 459.000
31.18367 478.000
31.20362 504.000
31.22357 491.000
31.24351 490.000
31.26346 451.000
31.28341 490.000
31.30336 518.000
31.32330 513.000
31.34325 473.000
31.36320 504.000
31.38314 467.000
31.40309 503.000
31.42304 484.000
31.44298 494.000
31.46293 503.000
31.48288 512.000
31.50282 497.000
31.52277 487.000
31.54272 507.000
31.56267 515.000
31.58261 487.000
31.60256 501.000
31.62251 484.000
31.64245 491.000
31.66240 486.000
31.68235 469.000
31.70229 487.000
31.72224 477.000
31.74219 445.000
31.76214 527.000
31.78208 499.000
31.80203 468.000
31.82198 490.000
31.84192 585.000
31.86187 513.000
31.88182 496.000
31.90176 515.000
31.92171 573.000
31.94166 628.000
31.96160 668.000
31.98155 675.000
32.00150 738.000
32.02145 790.000
32.04139 731.000
32.06134 780.000
32.08129 748.000
32.10123 699.000
32.12118 671.000
32.14113 639.000
32.16107 610.000
32.18102 532.000
32.20097 564.000
32.22092 553.000
32.24086 486.000
32.26081 523.000
32.28076 536.000
32.30070 529.000
32.32065 542.000
32.34060 605.000
32.36054 571.000
32.38049 641.000
32.40044 664.000
32.42039 661.000
32.44033 787.000
32.46028 833.000
32.48023 925.000
32.50017 878.000
32.52012 765.000
32.54007 787.000
32.56001 734.000
32.57996 708.000
32.59991 647.000
32.61985 541.000
32.63980 533.000
32.65975 536.000
32.67970 558.000
32.69964 565.000
32.71959 524.000
32.73954 488.000
32.75948 483.000
32.77943 490.000
32.79938 520.000
32.81932 484.000
32.83927 517.000
32.85922 462.000
32.87917 466.000
32.89911 488.000
32.91906 505.000
32.93901 518.000
32.95895 495.000
32.97890 503.000
32.99885 506.000
33.01879 510.000
33.03874 457.000
33.05869 529.000
33.07863 484.000
33.09858 464.000
33.11853 487.000
33.13848 534.000
33.15842 464.000
33.17837 498.000
33.19832 507.000
33.21826 487.000
33.23821 485.000
33.25816 481.000
33.27810 497.000
33.29805 494.000
33.31800 495.000
33.33795 474.000
33.35789 534.000
33.37784 494.000
33.39779 508.000
33.41773 521.000
33.43768 506.000
33.45763 496.000
33.47757 478.000
33.49752 464.000
33.51747 496.000
33.53741 525.000
33.55736 495.000
33.57731 524.000
33.59726 519.000
33.61720 528.000
33.63715 552.000
33.65710 504.000
33.67704 507.000
33.69699 497.000
33.71694 533.000
33.73688 540.000
33.75683 499.000
33.77678 507.000
33.79673 545.000
33.81667 570.000
33.83662 529.000
33.85657 510.000
33.87651 509.000
33.89646 571.000
33.91641 553.000
33.93635 542.000
33.95630 573.000
33.97625 593.000
33.99620 549.000
34.01614 582.000
34.03609 588.000
34.05604 567.000
34.07598 583.000
34.09593 594.000
34.11588 641.000
34.13582 661.000
34.15577 678.000
34.17572 695.000
34.19566 680.000
34.21561 769.000
34.23556 777.000
34.25551 769.000
34.27545 767.000
34.29540 840.000
34.31535 911.000
34.33529 919.000
34.35524 931.000
34.37519 953.000
34.39513 1071.000
34.41508 1109.000
34.43503 1051.000
34.45498 1050.000
34.47492 1029.000
34.49487 1010.000
34.51482 1054.000
34.53476 936.000
34.55471 965.000
34.57466 931.000
34.59460 948.000
34.61455 928.000
34.63450 938.000
34.65444 924.000
34.67439 863.000
34.69434 978.000
34.71429 1016.000
34.73423 1025.000
34.75418 963.000
34.77413 905.000
34.79407 910.000
34.81402 858.000
34.83397 878.000
34.85391 843.000
34.87386 888.000
34.89381 804.000
34.91376 789.000
34.93370 749.000
34.95365 686.000
34.97360 680.000
34.99354 687.000
35.01349 698.000
35.03344 711.000
35.05338 683.000
35.07333 668.000
35.09328 655.000
35.11322 693.000
35.13317 711.000
35.15312 767.000
35.17307 726.000
35.19301 766.000
35.21296 854.000
35.23291 866.000
35.25285 885.000
35.27280 935.000
35.29275 1013.000
35.31269 1200.000
35.33264 1261.000
35.35259 1518.000
35.37254 1788.000
35.39248 2190.000
35.41243 2782.000
35.43238 3046.000
35.45232 3200.000
35.47227 3252.000
35.49222 3953.000
35.51216 4804.000
35.53211 4814.000
35.55206 4334.000
35.57201 3795.000
35.59195 3513.000
35.61190 3462.000
35.63185 3004.000
35.65179 2636.000
35.67174 2046.000
35.69169 1768.000
35.71163 1539.000
35.73158 1407.000
35.75153 1284.000
35.77147 1054.000
35.79142 1039.000
35.81137 950.000
35.83132 885.000
35.85126 838.000
35.87121 794.000
35.89116 734.000
35.91110 697.000
35.93105 676.000
35.95100 709.000
35.97094 607.000
35.99089 662.000
36.01084 655.000
36.03079 684.000
36.05073 639.000
36.07068 629.000
36.09063 659.000
36.11057 640.000
36.13052 586.000
36.15047 610.000
36.17041 571.000
36.19036 583.000
36.21031 611.000
36.23025 594.000
36.25020 574.000
36.27015 570.000
36.29010 597.000
36.31004 562.000
36.32999 566.000
36.34994 552.000
36.36988 587.000
36.38983 549.000
36.40978 563.000
36.42972 539.000
36.44967 571.000
36.46962 543.000
36.48957 563.000
36.50951 548.000
36.52946 524.000
36.54941 518.000
36.56935 550.000
36.58930 537.000
36.60925 521.000
36.62919 546.000
36.64914 524.000
36.66909 526.000
36.68903 590.000
36.70898 548.000
36.72893 535.000
36.74888 554.000
36.76882 546.000
36.78877 541.000
36.80872 539.000
36.82866 496.000
36.84861 564.000
36.86856 548.000
36.88850 543.000
36.90845 539.000
36.92840 571.000
36.94835 614.000
36.96829 622.000
36.98824 675.000
37.00819 693.000
37.02813 677.000
37.04808 748.000
37.06803 786.000
37.08797 839.000
37.10792 854.000
37.12787 959.000
37.14781 936.000
37.16776 933.000
37.18771 946.000
37.20766 838.000
37.22760 865.000
37.24755 805.000
37.26750 806.000
37.28744 752.000
37.30739 675.000
37.32734 649.000
37.34728 626.000
37.36723 590.000
37.38718 626.000
37.40713 595.000
37.42707 537.000
37.44702 561.000
37.46697 579.000
37.48691 535.000
37.50686 523.000
37.52681 579.000
37.54675 566.000
37.56670 586.000
37.58665 543.000
37.60660 535.000
37.62654 516.000
37.64649 560.000
37.66644 556.000
37.68638 551.000
37.70633 515.000
37.72628 536.000
37.74622 581.000
37.76617 575.000
37.78612 559.000
37.80606 528.000
37.82601 540.000
37.84596 579.000
37.86591 567.000
37.88585 579.000
37.90580 581.000
37.92575 589.000
37.94569 552.000
37.96564 615.000
37.98559 613.000
38.00553 581.000
38.02548 604.000
38.04543 613.000
38.06538 562.000
38.08532 609.000
38.10527 622.000
38.12522 637.000
38.14516 592.000
38.16511 677.000
38.18506 646.000
38.20500 682.000
38.22495 714.000
38.24490 703.000
38.26484 751.000
38.28479 745.000
38.30474 821.000
38.32469 785.000
38.34463 847.000
38.36458 875.000
38.38453 875.000
38.40447 949.000
38.42442 1040.000
38.44437 1050.000
38.46431 1176.000
38.48426 1277.000
38.50421 1339.000
38.52416 1489.000
38.54410 1614.000
38.56405 1905.000
38.58400 2306.000
38.60394 2791.000
38.62389 3357.000
38.64384 3840.000
38.66378 3992.000
38.68373 3832.000
38.70368 3620.000
38.72362 3505.000
38.74357 3132.000
38.76352 2910.000
38.78347 2670.000
38.80341 2332.000
38.82336 1848.000
38.84331 1762.000
38.86325 1566.000
38.88320 1435.000
38.90315 1333.000
38.92309 1401.000
38.94304 1391.000
38.96299 1467.000
38.98294 1506.000
39.00288 1519.000
39.02283 1481.000
39.04278 1484.000
39.06272 1326.000
39.08267 1329.000
39.10262 1210.000
39.12256 1183.000
39.14251 1167.000
39.16246 1092.000
39.18241 1084.000
39.20235 1096.000
39.22230 1031.000
39.24225 1059.000
39.26219 955.000
39.28214 952.000
39.30209 923.000
39.32203 960.000
39.34198 950.000
39.36193 902.000
39.38187 887.000
39.40182 819.000
39.42177 812.000
39.44172 756.000
39.46166 739.000
39.48161 614.000
39.50156 650.000
39.52150 575.000
39.54145 567.000
39.56140 567.000
39.58134 570.000
39.60129 611.000
39.62124 564.000
39.64119 551.000
39.66113 522.000
39.68108 545.000
39.70103 551.000
39.72097 520.000
39.74092 517.000
39.76087 541.000
39.78081 487.000
39.80076 542.000
39.82071 530.000
39.84065 514.000
39.86060 505.000
39.88055 492.000
39.90050 512.000
39.92044 524.000
39.94039 533.000
39.96034 484.000
39.98028 496.000
40.00023 497.000
40.02018 473.000
40.04012 471.000
40.06007 522.000
40.08002 461.000
40.09997 524.000
40.11991 502.000
40.13986 503.000
40.15981 489.000
40.17975 490.000
40.19970 500.000
40.21965 486.000
40.23959 457.000
40.25954 495.000
40.27949 502.000
40.29943 496.000
40.31938 519.000
40.33933 477.000
40.35928 487.000
40.37922 479.000
40.39917 486.000
40.41912 450.000
40.43906 474.000
40.45901 463.000
40.47896 518.000
40.49890 503.000
40.51885 518.000
40.53880 495.000
40.55875 472.000
40.57869 509.000
40.59864 463.000
40.61859 493.000
40.63853 511.000
40.65848 471.000
40.67843 471.000
40.69837 486.000
40.71832 508.000
40.73827 455.000
40.75822 457.000
40.77816 457.000
40.79811 489.000
40.81806 504.000
40.83800 519.000
40.85795 509.000
40.87790 492.000
40.89784 485.000
40.91779 510.000
40.93774 475.000
40.95768 485.000
40.97763 505.000
40.99758 454.000
41.01753 480.000
41.03747 505.000
41.05742 506.000
41.07737 470.000
41.09731 492.000
41.11726 494.000
41.13721 464.000
41.15715 505.000
41.17710 495.000
41.19705 470.000
41.21700 498.000
41.23694 489.000
41.25689 471.000
41.27684 487.000
41.29678 467.000
41.31673 507.000
41.33668 503.000
41.35662 457.000
41.37657 450.000
41.39652 480.000
41.41646 488.000
41.43641 485.000
41.45636 476.000
41.47631 480.000
41.49625 510.000
41.51620 470.000
41.53615 471.000
41.55609 457.000
41.57604 483.000
41.59599 514.000
41.61593 439.000
41.63588 489.000
41.65583 496.000
41.67578 484.000
41.69572 522.000
41.71567 453.000
41.73562 475.000
41.75556 470.000
41.77551 480.000
41.79546 503.000
41.81540 497.000
41.83535 516.000
41.85530 491.000
41.87524 463.000
41.89519 479.000
41.91514 500.000
41.93509 460.000
41.95503 480.000
41.97498 511.000
41.99493 482.000
42.01487 428.000
42.03482 496.000
42.05477 479.000
42.07471 485.000
42.09466 494.000
42.11461 485.000
42.13456 482.000
42.15450 460.000
42.17445 514.000
42.19440 502.000
42.21434 533.000
42.23429 496.000
42.25424 461.000
42.27418 468.000
42.29413 498.000
42.31408 508.000
42.33403 479.000
42.35397 450.000
42.37392 500.000
42.39387 508.000
42.41381 499.000
42.43376 475.000
42.45371 524.000
42.47365 489.000
42.49360 477.000
42.51355 526.000
42.53349 519.000
42.55344 507.000
42.57339 537.000
42.59334 569.000
42.61328 566.000
42.63323 524.000
42.65318 513.000
42.67312 518.000
42.69307 517.000
42.71302 514.000
42.73296 538.000
42.75291 533.000
42.77286 517.000
42.79281 544.000
42.81275 518.000
42.83270 541.000
42.85265 571.000
42.87259 612.000
42.89254 566.000
42.91249 640.000
42.93243 603.000
42.95238 644.000
42.97233 673.000
42.99227 698.000
43.01222 667.000
43.03217 745.000
43.05212 770.000
43.07206 793.000
43.09201 842.000
43.11196 857.000
43.13190 838.000
43.15185 837.000
43.17180 840.000
43.19174 882.000
43.21169 842.000
43.23164 933.000
43.25159 956.000
43.27153 893.000
43.29148 889.000
43.31143 915.000
43.33137 862.000
43.35132 855.000
43.37127 816.000
43.39121 757.000
43.41116 788.000
43.43111 797.000
43.45105 707.000
43.47100 670.000
43.49095 685.000
43.51090 667.000
43.53084 651.000
43.55079 593.000
43.57074 586.000
43.59068 584.000
43.61063 582.000
43.63058 568.000
43.65052 552.000
43.67047 529.000
43.69042 494.000
43.71037 529.000
43.73031 509.000
43.75026 517.000
43.77021 500.000
43.79015 507.000
43.81010 511.000
43.83005 469.000
43.84999 501.000
43.86994 508.000
43.88989 469.000
43.90984 496.000
43.92978 528.000
43.94973 480.000
43.96968 491.000
43.98962 457.000
44.00957 456.000
44.02952 500.000
44.04946 479.000
44.06941 494.000
44.08936 467.000
44.10930 477.000
44.12925 481.000
44.14920 507.000
44.16915 472.000
44.18909 475.000
44.20904 485.000
44.22899 516.000
44.24893 498.000
44.26888 481.000
44.28883 494.000
44.30877 487.000
44.32872 504.000
44.34867 490.000
44.36862 484.000
44.38856 499.000
44.40851 480.000
44.42846 482.000
44.44840 475.000
44.46835 514.000
44.48830 477.000
44.50824 484.000
44.52819 487.000
44.54814 460.000
44.56808 487.000
44.58803 471.000
44.60798 509.000
44.62793 475.000
44.64787 468.000
44.66782 548.000
44.68777 458.000
44.70771 479.000
44.72766 474.000
44.74761 481.000
44.76755 473.000
44.78750 465.000
44.80745 505.000
44.82740 481.000
44.84734 503.000
44.86729 505.000
44.88724 488.000
44.90718 484.000
44.92713 514.000
44.94708 508.000
44.96702 523.000
44.98697 509.000
45.00692 446.000
45.02686 491.000
45.04681 478.000
45.06676 497.000
45.08671 476.000
45.10665 455.000
45.12660 505.000
45.14655 526.000
45.16649 472.000
45.18644 512.000
45.20639 500.000
45.22633 454.000
45.24628 501.000
45.26623 462.000
45.28618 513.000
45.30612 484.000
45.32607 459.000
45.34602 482.000
45.36596 500.000
45.38591 508.000
45.40586 496.000
45.42580 470.000
45.44575 485.000
45.46570 491.000
45.48565 507.000
45.50559 502.000
45.52554 474.000
45.54549 495.000
45.56543 492.000
45.58538 470.000
45.60533 482.000
45.62527 474.000
45.64522 478.000
45.66517 493.000
45.68511 482.000
45.70506 522.000
45.72501 468.000
45.74496 485.000
45.76490 484.000
45.78485 501.000
45.80480 441.000
45.82474 480.000
45.84469 498.000
45.86464 463.000
45.88458 493.000
45.90453 480.000
45.92448 489.000
45.94443 477.000
45.96437 455.000
45.98432 487.000
46.00427 477.000
46.02421 484.000
46.04416 473.000
46.06411 481.000
46.08405 493.000
46.10400 489.000
46.12395 489.000
46.14389 471.000
46.16384 467.000
46.18379 502.000
46.20374 471.000
46.22368 516.000
46.24363 499.000
46.26358 532.000
46.28352 550.000
46.30347 558.000
46.32342 567.000
46.34336 538.000
46.36331 511.000
46.38326 510.000
46.40321 569.000
46.42315 474.000
46.44310 477.000
46.46305 487.000
46.48299 512.000
46.50294 457.000
46.52289 477.000
46.54283 497.000
46.56278 474.000
46.58273 486.000
46.60267 459.000
46.62262 459.000
46.64257 472.000
46.66252 468.000
46.68246 480.000
46.70241 457.000
46.72236 433.000
46.74230 478.000
46.76225 447.000
46.78220 480.000
46.80214 452.000
46.82209 483.000
46.84204 468.000
46.86199 470.000
46.88193 513.000
46.90188 456.000
46.92183 444.000
46.94177 484.000
46.96172 476.000
46.98167 427.000
47.00161 488.000
47.02156 468.000
47.04151 481.000
47.06146 493.000
47.08140 486.000
47.10135 506.000
47.12130 476.000
47.14124 514.000
47.16119 436.000
47.18114 500.000
47.20108 495.000
47.22103 442.000
47.24098 497.000
47.26092 487.000
47.28087 486.000
47.30082 505.000
47.32077 502.000
47.34071 484.000
47.36066 488.000
47.38061 509.000
47.40055 500.000
47.42050 458.000
47.44045 474.000
47.46039 531.000
47.48034 465.000
47.50029 475.000
47.52024 471.000
47.54018 495.000
47.56013 469.000
47.58008 503.000
47.60002 489.000
47.61997 513.000
47.63992 446.000
47.65986 496.000
47.67981 494.000
47.69976 489.000
47.71970 473.000
47.73965 475.000
47.75960 484.000
47.77955 472.000
47.79949 514.000
47.81944 533.000
47.83939 496.000
47.85933 526.000
47.87928 499.000
47.89923 499.000
47.91917 570.000
47.93912 530.000
47.95907 521.000
47.97902 489.000
47.99896 560.000
48.01891 541.000
48.03886 543.000
48.05880 583.000
48.07875 573.000
48.09870 581.000
48.11864 569.000
48.13859 569.000
48.15854 557.000
48.17848 562.000
48.19843 564.000
48.21838 600.000
48.23833 564.000
48.25827 569.000
48.27822 559.000
48.29817 511.000
48.31811 543.000
48.33806 558.000
48.35801 565.000
48.37795 562.000
48.39790 549.000
48.41785 588.000
48.43780 572.000
48.45774 609.000
48.47769 629.000
48.49764 650.000
48.51758 595.000
48.53753 675.000
48.55748 713.000
48.57742 749.000
48.59737 797.000
48.61732 886.000
48.63726 912.000
48.65721 998.000
48.67716 1018.000
48.69711 1051.000
48.71705 1107.000
48.73700 1126.000
48.75695 1241.000
48.77689 1310.000
48.79684 1405.000
48.81679 1492.000
48.83673 1548.000
48.85668 1581.000
48.87663 1626.000
48.89658 1438.000
48.91652 1433.000
48.93647 1381.000
48.95642 1192.000
48.97636 1224.000
48.99631 1212.000
49.01626 1078.000
49.03620 982.000
49.05615 906.000
49.07610 825.000
49.09605 811.000
49.11599 765.000
49.13594 664.000
49.15589 580.000
49.17583 631.000
49.19578 634.000
49.21573 536.000
49.23567 606.000
49.25562 625.000
49.27557 561.000
49.29551 586.000
49.31546 597.000
49.33541 554.000
49.35536 575.000
49.37530 561.000
49.39525 548.000
49.41520 605.000
49.43514 590.000
49.45509 578.000
49.47504 600.000
49.49498 603.000
49.51493 573.000
49.53488 550.000
49.55483 519.000
49.57477 582.000
49.59472 552.000
49.61467 574.000
49.63461 563.000
49.65456 568.000
49.67451 568.000
49.69445 574.000
49.71440 570.000
49.73435 536.000
49.75429 554.000
49.77424 546.000
49.79419 604.000
49.81414 506.000
49.83408 546.000
49.85403 531.000
49.87398 511.000
49.89392 505.000
49.91387 482.000
49.93382 517.000
49.95376 544.000
49.97371 490.000
49.99366 538.000
50.01361 494.000
50.03355 516.000
50.05350 493.000
50.07345 467.000
50.09339 513.000
50.11334 536.000
50.13329 479.000
50.15323 510.000
50.17318 505.000
50.19313 472.000
50.21307 498.000
50.23302 520.000
50.25297 479.000
50.27292 489.000
50.29286 534.000
50.31281 519.000
50.33276 550.000
50.35270 495.000
50.37265 472.000
50.39260 489.000
50.41254 516.000
50.43249 473.000
50.45244 517.000
50.47239 479.000
50.49233 489.000
50.51228 539.000
50.53223 450.000
50.55217 500.000
50.57212 509.000
50.59207 498.000
50.61201 472.000
50.63196 499.000
50.65191 497.000
50.67186 472.000
50.69180 485.000
50.71175 495.000
50.73170 495.000
50.75164 468.000
50.77159 466.000
50.79154 519.000
50.81148 516.000
50.83143 453.000
50.85138 469.000
50.87132 502.000
50.89127 478.000
50.91122 495.000
50.93117 496.000
50.95111 500.000
50.97106 506.000
50.99101 465.000
51.01095 482.000
51.03090 463.000
51.05085 499.000
51.07079 512.000
51.09074 523.000
51.11069 489.000
51.13064 489.000
51.15058 508.000
51.17053 474.000
51.19048 507.000
51.21042 495.000
51.23037 511.000
51.25032 480.000
51.27026 527.000
51.29021 541.000
51.31016 519.000
51.33010 509.000
51.35005 488.000
51.37000 542.000
51.38995 509.000
51.40989 482.000
51.42984 555.000
51.44979 520.000
51.46973 495.000
51.48968 468.000
51.50963 505.000
51.52957 499.000
51.54952 503.000
51.56947 476.000
51.58942 473.000
51.60936 456.000
51.62931 469.000
51.64926 466.000
51.66920 509.000
51.68915 496.000
51.70910 519.000
51.72904 483.000
51.74899 451.000
51.76894 500.000
51.78888 491.000
51.80883 476.000
51.82878 471.000
51.84873 467.000
51.86867 455.000
51.88862 514.000
51.90857 517.000
51.92851 499.000
51.94846 488.000
51.96841 466.000
51.98835 531.000
52.00830 579.000
52.02825 541.000
52.04820 572.000
52.06814 559.000
52.08809 501.000
52.10804 510.000
52.12798 511.000
52.14793 549.000
52.16788 508.000
52.18782 546.000
52.20777 546.000
52.22772 513.000
52.24767 526.000
52.26761 542.000
52.28756 538.000
52.30751 529.000
52.32745 492.000
52.34740 518.000
52.36735 475.000
52.38729 529.000
52.40724 513.000
52.42719 519.000
52.44713 493.000
52.46708 476.000
52.48703 476.000
52.50698 541.000
52.52692 491.000
52.54687 485.000
52.56682 482.000
52.58676 486.000
52.60671 463.000
52.62666 472.000
52.64660 492.000
52.66655 522.000
52.68650 542.000
52.70645 517.000
52.72639 517.000
52.74634 522.000
52.76629 465.000
52.78623 494.000
52.80618 500.000
52.82613 508.000
52.84607 531.000
52.86602 484.000
52.88597 546.000
52.90591 508.000
52.92586 498.000
52.94581 519.000
52.96576 512.000
52.98570 567.000
53.00565 523.000
53.02560 529.000
53.04554 533.000
53.06549 536.000
53.08544 580.000
53.10538 561.000
53.12533 557.000
53.14528 569.000
53.16523 592.000
53.18517 626.000
53.20512 588.000
53.22507 625.000
53.24501 699.000
53.26496 682.000
53.28491 664.000
53.30485 743.000
53.32480 700.000
53.34475 721.000
53.36469 670.000
53.38464 732.000
53.40459 713.000
53.42454 691.000
53.44448 641.000
53.46443 655.000
53.48438 667.000
53.50432 624.000
53.52427 627.000
53.54422 636.000
53.56416 609.000
53.58411 602.000
53.60406 570.000
53.62401 542.000
53.64395 594.000
53.66390 528.000
53.68385 579.000
53.70379 530.000
53.72374 509.000
53.74369 518.000
53.76363 542.000
53.78358 478.000
53.80353 526.000
53.82348 538.000
53.84342 515.000
53.86337 490.000
53.88332 521.000
53.90326 540.000
53.92321 505.000
53.94316 528.000
53.96310 523.000
53.98305 530.000
54.00300 491.000
54.02294 503.000
54.04289 462.000
54.06284 499.000
54.08279 445.000
54.10273 481.000
54.12268 536.000
54.14263 508.000
54.16257 546.000
54.18252 498.000
54.20247 512.000
54.22241 495.000
54.24236 534.000
54.26231 499.000
54.28226 512.000
54.30220 555.000
54.32215 466.000
54.34210 486.000
54.36204 518.000
54.38199 475.000
54.40194 526.000
54.42188 489.000
54.44183 536.000
54.46178 478.000
54.48172 479.000
54.50167 444.000
54.52162 504.000
54.54157 495.000
54.56151 502.000
54.58146 516.000
54.60141 483.000
54.62135 478.000
54.64130 499.000
54.66125 487.000
54.68119 449.000
54.70114 508.000
54.72109 516.000
54.74104 495.000
54.76098 475.000
54.78093 482.000
54.80088 471.000
54.82082 469.000
54.84077 457.000
54.86072 533.000
54.88066 455.000
54.90061 481.000
54.92056 468.000
54.94050 491.000
54.96045 467.000
54.98040 468.000
55.00035 496.000
55.02029 486.000
55.04024 471.000
55.06019 512.000
55.08013 458.000
55.10008 541.000
55.12003 489.000
55.13997 494.000
55.15992 445.000
55.17987 508.000
55.19982 516.000
55.21976 492.000
55.23971 459.000
55.25966 466.000
55.27960 450.000
55.29955 443.000
55.31950 501.000
55.33944 486.000
55.35939 485.000
55.37934 452.000
55.39929 474.000
55.41923 490.000
55.43918 484.000
55.45913 460.000
55.47907 495.000
55.49902 480.000
55.51897 474.000
55.53891 460.000
55.55886 470.000
55.57881 489.000
55.59875 452.000
55.61870 539.000
55.63865 486.000
55.65860 470.000
55.67854 482.000
55.69849 503.000
55.71844 478.000
55.73838 476.000
55.75833 515.000
55.77828 456.000
55.79822 482.000
55.81817 485.000
55.83812 474.000
55.85807 526.000
55.87801 464.000
55.89796 499.000
55.91791 477.000
55.93785 454.000
55.95780 488.000
55.97775 464.000
55.99769 468.000
56.01764 509.000
56.03759 452.000
56.05753 453.000
56.07748 490.000
56.09743 478.000
56.11738 463.000
56.13732 518.000
56.15727 496.000
56.17722 491.000
56.19716 465.000
56.21711 448.000
56.23706 477.000
56.25700 483.000
56.27695 481.000
56.29690 437.000
56.31685 442.000
56.33679 468.000
56.35674 448.000
56.37669 488.000
56.39663 484.000
56.41658 510.000
56.43653 477.000
56.45647 476.000
56.47642 477.000
56.49637 461.000
56.51631 512.000
56.53626 485.000
56.55621 460.000
56.57616 499.000
56.59610 528.000
56.61605 513.000
56.63600 488.000
56.65594 484.000
56.67589 491.000
56.69584 506.000
56.71578 443.000
56.73573 507.000
56.75568 480.000
56.77563 522.000
56.79557 469.000
56.81552 519.000
56.83547 495.000
56.85541 481.000
56.87536 463.000
56.89531 491.000
56.91525 524.000
56.93520 490.000
56.95515 505.000
56.97510 502.000
56.99504 491.000
57.01499 511.000
57.03494 510.000
57.05488 497.000
57.07483 567.000
57.09478 490.000
57.11472 558.000
57.13467 455.000
57.15462 512.000
57.17456 533.000
57.19451 516.000
57.21446 547.000
57.23441 585.000
57.25435 547.000
57.27430 564.000
57.29425 578.000
57.31419 538.000
57.33414 549.000
57.35409 519.000
57.37403 513.000
57.39398 536.000
57.41393 544.000
57.43388 576.000
57.45382 580.000
57.47377 533.000
57.49372 524.000
57.51366 505.000
57.53361 547.000
57.55356 491.000
57.57350 545.000
57.59345 491.000
57.61340 530.000
57.63334 509.000
57.65329 512.000
57.67324 522.000
57.69319 512.000
57.71313 566.000
57.73308 492.000
57.75303 547.000
57.77297 529.000
57.79292 524.000
57.81287 518.000
57.83281 535.000
57.85276 494.000
57.87271 516.000
57.89266 528.000
57.91260 508.000
57.93255 570.000
57.95250 539.000
57.97244 540.000
57.99239 521.000
58.01234 568.000
58.03228 531.000
58.05223 557.000
58.07218 563.000
58.09212 570.000
58.11207 580.000
58.13202 643.000
58.15197 642.000
58.17191 694.000
58.19186 758.000
58.21181 779.000
58.23175 813.000
58.25170 837.000
58.27165 800.000
58.29159 849.000
58.31154 754.000
58.33149 755.000
58.35144 766.000
58.37138 667.000
58.39133 678.000
58.41128 698.000
58.43122 704.000
58.45117 664.000
58.47112 610.000
58.49106 644.000
58.51101 587.000
58.53096 574.000
58.55090 570.000
58.57085 555.000
58.59080 545.000
58.61075 542.000
58.63069 524.000
58.65064 528.000
58.67059 524.000
58.69053 542.000
58.71048 543.000
58.73043 498.000
58.75037 521.000
58.77032 485.000
58.79027 514.000
58.81022 475.000
58.83016 509.000
58.85011 458.000
58.87006 520.000
58.89000 498.000
58.90995 537.000
58.92990 482.000
58.94984 510.000
58.96979 524.000
58.98974 495.000
59.00969 472.000
59.02963 488.000
59.04958 504.000
59.06953 477.000
59.08947 510.000
59.10942 487.000
59.12937 489.000
59.14931 499.000
59.16926 490.000
59.18921 453.000
59.20915 475.000
59.22910 489.000
59.24905 497.000
59.26900 520.000
59.28894 489.000
59.30889 467.000
59.32884 458.000
59.34878 482.000
59.36873 539.000
59.38868 504.000
59.40862 477.000
59.42857 524.000
59.44852 502.000
59.46847 494.000
59.48841 491.000
59.50836 513.000
59.52831 467.000
59.54825 481.000
59.56820 500.000
59.58815 475.000
59.60809 468.000
59.62804 524.000
59.64799 498.000
59.66793 502.000
59.68788 512.000
59.70783 495.000
59.72778 475.000
59.74772 500.000
59.76767 498.000
59.78762 479.000
59.80756 470.000
59.82751 489.000
59.84746 455.000
59.86740 498.000
59.88735 469.000
59.90730 448.000
59.92725 487.000
59.94719 492.000
59.96714 462.000
59.98709 506.000
60.00703 531.000
60.02698 512.000
60.04693 514.000
60.06687 521.000
60.08682 511.000
60.10677 522.000
60.12671 525.000
60.14666 514.000
60.16661 478.000
60.18656 502.000
60.20650 494.000
60.22645 527.000
60.24640 512.000
60.26634 499.000
60.28629 478.000
60.30624 484.000
60.32618 535.000
60.34613 453.000
60.36608 499.000
60.38603 509.000
60.40597 480.000
60.42592 471.000
60.44587 525.000
60.46581 536.000
60.48576 471.000
60.50571 491.000
60.52565 502.000
60.54560 538.000
60.56555 460.000
60.58550 447.000
60.60544 491.000
60.62539 495.000
60.64534 513.000
60.66528 512.000
60.68523 514.000
60.70518 534.000
60.72512 519.000
60.74507 502.000
60.76502 528.000
60.78496 462.000
60.80491 497.000
60.82486 510.000
60.84481 454.000
60.86475 528.000
60.88470 561.000
60.90465 521.000
60.92459 553.000
60.94454 523.000
60.96449 522.000
60.98443 515.000
61.00438 541.000
61.02433 556.000
61.04428 548.000
61.06422 551.000
61.08417 535.000
61.10412 516.000
61.12406 539.000
61.14401 552.000
61.16396 552.000
61.18390 587.000
61.20385 577.000
61.22380 581.000
61.24374 588.000
61.26369 586.000
61.28364 631.000
61.30359 605.000
61.32353 637.000
61.34348 687.000
61.36343 716.000
61.38337 709.000
61.40332 819.000
61.42327 858.000
61.44321 872.000
61.46316 958.000
61.48311 1021.000
61.50306 1146.000
61.52300 1225.000
61.54295 1313.000
61.56290 1316.000
61.58284 1158.000
61.60279 1093.000
61.62274 1094.000
61.64268 1028.000
61.66263 1034.000
61.68258 1038.000
61.70252 1003.000
61.72247 1070.000
61.74242 993.000
61.76237 849.000
61.78231 794.000
61.80226 820.000
61.82221 750.000
61.84215 735.000
61.86210 743.000
61.88205 727.000
61.90199 780.000
61.92194 747.000
61.94189 765.000
61.96184 768.000
61.98178 732.000
62.00173 814.000
62.02168 704.000
62.04162 717.000
62.06157 744.000
62.08152 639.000
62.10146 689.000
62.12141 692.000
62.14136 705.000
62.16131 659.000
62.18125 690.000
62.20120 655.000
62.22115 619.000
62.24109 641.000
62.26104 622.000
62.28099 636.000
62.30093 592.000
62.32088 606.000
62.34083 594.000
62.36077 599.000
62.38072 634.000
62.40067 572.000
62.42062 637.000
62.44056 631.000
62.46051 613.000
62.48046 614.000
62.50040 668.000
62.52035 648.000
62.54030 637.000
62.56024 625.000
62.58019 660.000
62.60014 708.000
62.62009 583.000
62.64003 665.000
62.65998 696.000
62.67993 710.000
62.69987 679.000
62.71982 660.000
62.73977 727.000
62.75971 655.000
62.77966 693.000
62.79961 736.000
62.81955 704.000
62.83950 719.000
62.85945 740.000
62.87940 748.000
62.89934 683.000
62.91929 699.000
62.93924 626.000
62.95918 674.000
62.97913 660.000
62.99908 641.000
63.01902 650.000
63.03897 604.000
63.05892 606.000
63.07887 636.000
63.09881 580.000
63.11876 607.000
63.13871 548.000
63.15865 560.000
63.17860 520.000
63.19855 547.000
63.21849 562.000
63.23844 519.000
63.25839 560.000
63.27833 546.000
63.29828 512.000
63.31823 545.000
63.33818 518.000
63.35812 532.000
63.37807 487.000
63.39802 513.000
63.41796 507.000
63.43791 482.000
63.45786 506.000
63.47780 493.000
63.49775 510.000
63.51770 471.000
63.53765 487.000
63.55759 523.000
63.57754 471.000
63.59749 523.000
63.61743 500.000
63.63738 520.000
63.65733 507.000
63.67727 522.000
63.69722 540.000
63.71717 511.000
63.73712 538.000
63.75706 543.000
63.77701 500.000
63.79696 520.000
63.81690 506.000
63.83685 504.000
63.85680 564.000
63.87674 565.000
63.89669 555.000
63.91664 533.000
63.93658 566.000
63.95653 512.000
63.97648 545.000
63.99643 524.000
64.01637 541.000
64.03632 529.000
64.05627 559.000
64.07621 550.000
64.09616 572.000
64.11611 529.000
64.13605 551.000
64.15600 535.000
64.17595 574.000
64.19590 551.000
64.21584 595.000
64.23579 495.000
64.25574 597.000
64.27568 546.000
64.29563 563.000
64.31558 558.000
64.33552 541.000
64.35547 584.000
64.37542 536.000
64.39536 581.000
64.41531 545.000
64.43526 579.000
64.45521 520.000
64.47515 523.000
64.49510 531.000
64.51505 478.000
64.53499 508.000
64.55494 505.000
64.57489 548.000
64.59483 495.000
64.61478 476.000
64.63473 491.000
64.65468 486.000
64.67462 491.000
64.69457 507.000
64.71452 487.000
64.73446 503.000
64.75441 526.000
64.77436 484.000
64.79430 500.000
64.81425 515.000
64.83420 536.000
64.85414 525.000
64.87409 501.000
64.89404 478.000
64.91399 521.000
64.93393 521.000
64.95388 495.000
64.97383 520.000
64.99377 548.000
65.01372 543.000
65.03367 547.000
65.05361 523.000
65.07356 508.000
65.09351 541.000
65.11346 540.000
65.13340 558.000
65.15335 530.000
65.17330 555.000
65.19324 521.000
65.21319 499.000
65.23314 563.000
65.25308 554.000
65.27303 537.000
65.29298 569.000
65.31293 579.000
65.33287 546.000
65.35282 612.000
65.37277 553.000
65.39271 608.000
65.41266 605.000
65.43261 617.000
65.45255 614.000
65.47250 631.000
65.49245 629.000
65.51239 675.000
65.53234 751.000
65.55229 699.000
65.57224 776.000
65.59218 813.000
65.61213 852.000
65.63208 821.000
65.65202 840.000
65.67197 856.000
65.69192 786.000
65.71186 834.000
65.73181 851.000
65.75176 800.000
65.77171 850.000
65.79165 790.000
65.81160 800.000
65.83155 860.000
65.85149 756.000
65.87144 763.000
65.89139 743.000
65.91133 757.000
65.93128 695.000
65.95123 662.000
65.97117 693.000
65.99112 668.000
66.01107 706.000
66.03102 663.000
66.05096 693.000
66.07091 668.000
66.09086 675.000
66.11080 630.000
66.13075 675.000
66.15070 660.000
66.17064 653.000
66.19059 684.000
66.21054 692.000
66.23049 759.000
66.25043 795.000
66.27038 846.000
66.29033 856.000
66.31027 924.000
66.33022 905.000
66.35017 944.000
66.37011 996.000
66.39006 940.000
66.41001 950.000
66.42995 891.000
66.44990 808.000
66.46985 848.000
66.48980 837.000
66.50974 893.000
66.52969 817.000
66.54964 819.000
66.56958 772.000
66.58953 763.000
66.60948 793.000
66.62942 691.000
66.64937 689.000
66.66932 679.000
66.68927 627.000
66.70921 594.000
66.72916 595.000
66.74911 619.000
66.76905 604.000
66.78900 611.000
66.80895 609.000
66.82889 638.000
66.84884 569.000
66.86879 584.000
66.88874 558.000
66.90868 544.000
66.92863 597.000
66.94858 586.000
66.96852 539.000
66.98847 556.000
67.00842 577.000
67.02836 597.000
67.04831 518.000
67.06826 540.000
67.08820 515.000
67.10815 572.000
67.12810 564.000
67.14805 568.000
67.16799 543.000
67.18794 544.000
67.20789 549.000
67.22783 544.000
67.24778 537.000
67.26773 508.000
67.28767 498.000
67.30762 529.000
67.32757 501.000
67.34752 552.000
67.36746 532.000
67.38741 520.000
67.40736 598.000
67.42730 545.000
67.44725 553.000
67.46720 541.000
67.48714 516.000
67.50709 553.000
67.52704 558.000
67.54698 617.000
67.56693 604.000
67.58688 587.000
67.60683 596.000
67.62677 630.000
67.64672 642.000
67.66667 614.000
67.68661 696.000
67.70656 688.000
67.72651 704.000
67.74645 739.000
67.76640 797.000
67.78635 794.000
67.80630 753.000
67.82624 773.000
67.84619 824.000
67.86614 808.000
67.88608 868.000
67.90603 880.000
67.92598 855.000
67.94592 900.000
67.96587 950.000
67.98582 932.000
68.00576 944.000
68.02571 919.000
68.04566 867.000
68.06561 898.000
68.08555 815.000
68.10550 808.000
68.12545 806.000
68.14539 800.000
68.16534 740.000
68.18529 724.000
68.20523 701.000
68.22518 751.000
68.24513 661.000
68.26508 655.000
68.28502 672.000
68.30497 610.000
68.32492 610.000
68.34486 580.000
68.36481 607.000
68.38476 566.000
68.40470 525.000
68.42465 563.000
68.44460 481.000
68.46455 519.000
68.48449 537.000
68.50444 524.000
68.52439 505.000
68.54433 540.000
68.56428 514.000
68.58423 545.000
68.60417 511.000
68.62412 503.000
68.64407 516.000
68.66401 501.000
68.68396 467.000
68.70391 494.000
68.72386 522.000
68.74380 466.000
68.76375 506.000
68.78370 494.000
68.80364 527.000
68.82359 495.000
68.84354 497.000
68.86348 470.000
68.88343 500.000
68.90338 484.000
68.92333 520.000
68.94327 513.000
68.96322 477.000
68.98317 479.000
69.00311 475.000
69.02306 476.000
69.04301 542.000
69.06295 467.000
69.08290 467.000
69.10285 497.000
69.12279 509.000
69.14274 463.000
69.16269 522.000
69.18264 469.000
69.20258 471.000
69.22253 506.000
69.24248 500.000
69.26242 511.000
69.28237 479.000
69.30232 501.000
69.32226 482.000
69.34221 491.000
69.36216 496.000
69.38211 470.000
69.40205 478.000
69.42200 472.000
69.44195 499.000
69.46189 443.000
69.48184 478.000
69.50179 476.000
69.52173 471.000
69.54168 478.000
69.56163 459.000
69.58157 486.000
69.60152 441.000
69.62147 494.000
69.64142 494.000
69.66136 478.000
69.68131 470.000
69.70126 468.000
69.72120 496.000
69.74115 461.000
69.76110 478.000
69.78104 479.000
69.80099 492.000
69.82094 485.000
69.84089 473.000
69.86083 486.000
69.88078 452.000
69.90073 491.000
69.92067 485.000
69.94062 514.000
69.96057 472.000
69.98051 465.000
70.00046 489.000
70.02041 488.000
70.04035 500.000
70.06030 469.000
70.08025 464.000
70.10020 494.000
70.12014 437.000
70.14009 442.000
70.16004 474.000
70.17998 459.000
70.19993 458.000
70.21988 463.000
70.23982 458.000
70.25977 490.000
70.27972 496.000
70.29967 485.000
70.31961 459.000
70.33956 441.000
70.35951 455.000
70.37945 478.000
70.39940 485.000
70.41935 496.000
70.43929 457.000
70.45924 490.000
70.47919 449.000
70.49914 475.000
70.51908 480.000
70.53903 502.000
70.55898 518.000
70.57892 476.000
70.59887 507.000
70.61882 479.000
70.63876 452.000
70.65871 476.000
70.67866 444.000
70.69860 457.000
70.71855 473.000
70.73850 480.000
70.75845 473.000
70.77839 466.000
70.79834 480.000
70.81829 470.000
70.83823 495.000
70.85818 490.000
70.87813 478.000
70.89807 445.000
70.91802 481.000
70.93797 498.000
70.95792 489.000
70.97786 466.000
70.99781 472.000
71.01776 500.000
71.03770 439.000
71.05765 466.000
71.07760 501.000
71.09754 476.000
71.11749 484.000
71.13744 481.000
71.15738 490.000
71.17733 463.000
71.19728 445.000
71.21723 477.000
71.23717 537.000
71.25712 505.000
71.27707 436.000
71.29701 490.000
71.31696 475.000
71.33691 475.000
71.35685 469.000
71.37680 489.000
71.39675 517.000
71.41670 487.000
71.43664 486.000
71.45659 468.000
71.47654 474.000
71.49648 483.000
71.51643 487.000
71.53638 510.000
71.55632 477.000
71.57627 480.000
71.59622 487.000
71.61616 527.000
71.63611 484.000
71.65606 474.000
71.67601 467.000
71.69595 464.000
71.71590 456.000
71.73585 511.000
71.75579 505.000
71.77574 492.000
71.79569 473.000
71.81563 530.000
71.83558 487.000
71.85553 474.000
71.87548 526.000
71.89542 538.000
71.91537 517.000
71.93532 510.000
71.95526 508.000
71.97521 510.000
71.99516 497.000
72.01510 532.000
72.03505 513.000
72.05500 532.000
72.07495 525.000
72.09489 518.000
72.11484 510.000
72.13479 506.000
72.15473 557.000
72.17468 514.000
72.19463 544.000
72.21457 543.000
72.23452 585.000
72.25447 525.000
72.27441 529.000
72.29436 582.000
72.31431 572.000
72.33426 635.000
72.35420 620.000
72.37415 651.000
72.39410 650.000
72.41404 652.000
72.43399 611.000
72.45394 714.000
72.47388 643.000
72.49383 585.000
72.51378 658.000
72.53373 611.000
72.55367 617.000
72.57362 556.000
72.59357 570.000
72.61351 584.000
72.63346 598.000
72.65341 582.000
72.67335 558.000
72.69330 574.000
72.71325 513.000
72.73319 532.000
72.75314 591.000
72.77309 532.000
72.79304 497.000
72.81298 522.000
72.83293 527.000
72.85288 501.000
72.87282 507.000
72.89277 509.000
72.91272 518.000
72.93266 493.000
72.95261 487.000
72.97256 549.000
72.99251 515.000
73.01245 525.000
73.03240 475.000
73.05235 519.000
73.07229 509.000
73.09224 505.000
73.11219 443.000
73.13213 504.000
73.15208 564.000
73.17203 504.000
73.19197 492.000
73.21192 517.000
73.23187 533.000
73.25182 477.000
73.27176 517.000
73.29171 520.000
73.31166 503.000
73.33160 534.000
73.35155 508.000
73.37150 532.000
73.39144 525.000
73.41139 521.000
73.43134 496.000
73.45129 475.000
73.47123 509.000
73.49118 526.000
73.51113 500.000
73.53107 512.000
73.55102 504.000
73.57097 499.000
73.59091 533.000
73.61086 512.000
73.63081 516.000
73.65076 503.000
73.67070 482.000
73.69065 517.000
73.71060 476.000
73.73054 498.000
73.75049 545.000
73.77044 480.000
73.79038 511.000
73.81033 498.000
73.83028 517.000
73.85022 491.000
73.87017 512.000
73.89012 509.000
73.91007 470.000
73.93001 471.000
73.94996 535.000
73.96991 479.000
73.98985 534.000
74.00980 422.000
74.02975 494.000
74.04969 453.000
74.06964 459.000
74.08959 471.000
74.10954 479.000
74.12948 507.000
74.14943 469.000
74.16938 461.000
74.18932 500.000
74.20927 497.000
74.22922 471.000
74.24916 448.000
74.26911 513.000
74.28906 487.000
74.30900 517.000
74.32895 512.000
74.34890 484.000
74.36885 548.000
74.38879 529.000
74.40874 517.000
74.42869 524.000
74.44863 546.000
74.46858 474.000
74.48853 511.000
74.50847 543.000
74.52842 500.000
74.54837 533.000
74.56832 514.000
74.58826 494.000
74.60821 565.000
74.62816 519.000
74.64810 520.000
74.66805 557.000
74.68800 546.000
74.70794 548.000
74.72789 526.000
74.74784 516.000
74.76778 530.000
74.78773 554.000
74.80768 557.000
74.82763 579.000
74.84757 573.000
74.86752 648.000
74.88747 670.000
74.90741 701.000
74.92736 703.000
74.94731 716.000
74.96725 739.000
74.98720 679.000
75.00715 715.000
75.02710 682.000
75.04704 651.000
75.06699 679.000
75.08694 651.000
75.10688 680.000
75.12683 728.000
75.14678 739.000
75.16672 752.000
75.18667 704.000
75.20662 719.000
75.22657 705.000
75.24651 642.000
75.26646 686.000
75.28641 659.000
75.30635 646.000
75.32630 644.000
75.34625 652.000
75.36619 642.000
75.38614 616.000
75.40609 647.000
75.42603 610.000
75.44598 568.000
75.46593 565.000
75.48588 570.000
75.50582 545.000
75.52577 551.000
75.54572 527.000
75.56566 501.000
75.58561 501.000
75.60556 557.000
75.62550 523.000
75.64545 518.000
75.66540 496.000
75.68535 541.000
75.70529 500.000
75.72524 504.000
75.74519 518.000
75.76513 485.000
75.78508 484.000
75.80503 491.000
75.82497 462.000
75.84492 493.000
75.86487 488.000
75.88481 522.000
75.90476 510.000
75.92471 519.000
75.94466 515.000
75.96460 489.000
75.98455 476.000
76.00450 477.000
76.02444 519.000
76.04439 496.000
76.06434 522.000
76.08428 502.000
76.10423 468.000
76.12418 483.000
76.14413 485.000
76.16407 522.000
76.18402 524.000
76.20397 490.000
76.22391 476.000
76.24386 504.000
76.26381 481.000
76.28375 521.000
76.30370 490.000
76.32365 503.000
76.34359 481.000
76.36354 460.000
76.38349 551.000
76.40344 474.000
76.42338 479.000
76.44333 461.000
76.46328 509.000
76.48322 461.000
76.50317 483.000
76.52312 500.000
76.54306 505.000
76.56301 450.000
76.58296 490.000
76.60291 482.000
76.62285 466.000
76.64280 425.000
76.66275 469.000
76.68269 531.000
76.70264 503.000
76.72259 461.000
76.74253 487.000
76.76248 464.000
76.78243 477.000
76.80238 487.000
76.82232 489.000
76.84227 480.000
76.86222 470.000
76.88216 464.000
76.90211 496.000
76.92206 481.000
76.94200 429.000
76.96195 433.000
76.98190 478.000
77.00184 461.000
77.02179 463.000
77.04174 480.000
77.06169 463.000
77.08163 511.000
77.10158 474.000
77.12153 500.000
77.14147 481.000
77.16142 489.000
77.18137 503.000
77.20131 437.000
77.22126 491.000
77.24121 514.000
77.26116 460.000
77.28110 504.000
77.30105 448.000
77.32100 463.000
77.34094 472.000
77.36089 496.000
77.38084 505.000
77.40078 440.000
77.42073 490.000
77.44068 483.000
77.46062 494.000
77.48057 516.000
77.50052 513.000
77.52047 460.000
77.54041 512.000
77.56036 478.000
77.58031 524.000
77.60025 491.000
77.62020 514.000
77.64015 520.000
77.66009 492.000
77.68004 509.000
77.69999 500.000
77.71994 454.000
77.73988 459.000
77.75983 502.000
77.77978 503.000
77.79972 468.000
77.81967 513.000
77.83962 477.000
77.85956 492.000
77.87951 465.000
77.89946 483.000
77.91940 462.000
77.93935 471.000
77.95930 490.000
77.97925 507.000
77.99919 523.000
78.01914 501.000
78.03909 477.000
78.05903 532.000
78.07898 495.000
78.09893 518.000
78.11887 489.000
78.13882 496.000
78.15877 544.000
78.17872 513.000
78.19866 504.000
78.21861 512.000
78.23856 494.000
78.25850 556.000
78.27845 556.000
78.29840 540.000
78.31834 532.000
78.33829 487.000
78.35824 504.000
78.37819 494.000
78.39813 534.000
78.41808 490.000
78.43803 521.000
78.45797 494.000
78.47792 476.000
78.49787 543.000
78.51781 508.000
78.53776 484.000
78.55771 501.000
78.57765 489.000
78.59760 483.000
78.61755 517.000
78.63750 535.000
78.65744 483.000
78.67739 490.000
78.69734 502.000
78.71728 476.000
78.73723 500.000
78.75718 484.000
78.77712 499.000
78.79707 493.000
78.81702 527.000
78.83697 479.000
78.85691 494.000
78.87686 502.000
78.89681 510.000
78.91675 482.000
78.93670 483.000
78.95665 547.000
78.97659 456.000
78.99654 473.000
79.01649 478.000
79.03643 516.000
79.05638 515.000
79.07633 465.000
79.09628 542.000
79.11622 514.000
79.13617 508.000
79.15612 528.000
79.17606 507.000
79.19601 510.000
79.21596 542.000
79.23590 509.000
79.25585 541.000
79.27580 489.000
79.29575 477.000
79.31569 481.000
79.33564 499.000
79.35559 497.000
79.37553 480.000
79.39548 494.000
79.41543 532.000
79.43537 531.000
79.45532 521.000
79.47527 521.000
79.49521 514.000
79.51516 523.000
79.53511 512.000
79.55506 496.000
79.57500 466.000
79.59495 473.000
79.61490 509.000
79.63484 480.000
79.65479 495.000
79.67474 500.000
79.69468 487.000
79.71463 479.000
79.73458 500.000
79.75453 474.000
79.77447 452.000
79.79442 467.000
79.81437 484.000
79.83431 491.000
79.85426 486.000
79.87421 467.000
79.89415 448.000
79.91410 505.000
79.93405 499.000
79.95399 492.000
79.97394 459.000
79.99389 497.000
80.01384 446.000
80.03378 496.000
80.05373 469.000
80.07368 461.000
80.09362 476.000
80.11357 487.000
80.13352 505.000
80.15346 473.000
80.17341 527.000
80.19336 530.000
80.21331 506.000
80.23325 548.000
80.25320 522.000
80.27315 516.000
80.29309 562.000
80.31304 525.000
80.33299 502.000
80.35293 570.000
80.37288 542.000
80.39283 496.000
80.41278 504.000
80.43272 503.000
80.45267 530.000
80.47262 514.000
80.49256 498.000
80.51251 512.000
80.53246 504.000
80.55240 522.000
80.57235 536.000
80.59230 516.000
80.61224 524.000
80.63219 509.000
80.65214 517.000
80.67209 513.000
80.69203 494.000
80.71198 461.000
80.73193 479.000
80.75187 492.000
80.77182 480.000
80.79177 483.000
80.81171 479.000
80.83166 490.000
80.85161 505.000
80.87156 492.000
80.89150 453.000
80.91145 497.000
80.93140 467.000
80.95134 497.000
80.97129 507.000
80.99124 506.000
81.01118 469.000
81.03113 471.000
81.05108 437.000
81.07102 484.000
81.09097 499.000
81.11092 464.000
81.13087 447.000
81.15081 509.000
81.17076 490.000
81.19071 423.000
81.21065 460.000
81.23060 494.000
81.25055 456.000
81.27049 490.000
81.29044 507.000
81.31039 490.000
81.33034 467.000
81.35028 459.000
81.37023 511.000
81.39018 472.000
81.41012 481.000
81.43007 461.000
81.45002 441.000
81.46996 489.000
81.48991 477.000
81.50986 472.000
81.52980 483.000
81.54975 506.000
81.56970 463.000
81.58965 478.000
81.60959 481.000
81.62954 470.000
81.64949 456.000
81.66943 446.000
81.68938 463.000
81.70933 430.000
81.72927 505.000
81.74922 473.000
81.76917 474.000
81.78912 495.000
81.80906 494.000
81.82901 486.000
81.84896 482.000
81.86890 500.000
81.88885 507.000
81.90880 489.000
81.92874 511.000
81.94869 465.000
81.96864 480.000
81.98859 450.000
82.00853 549.000
82.02848 453.000
82.04843 480.000
82.06837 498.000
82.08832 532.000
82.10827 502.000
82.12821 437.000
82.14816 471.000
82.16811 486.000
82.18805 493.000
82.20800 539.000
82.22795 450.000
82.24790 505.000
82.26784 509.000
82.28779 508.000
82.30774 473.000
82.32768 464.000
82.34763 573.000
82.36758 549.000
82.38752 554.000
82.40747 530.000
82.42742 569.000
82.44737 542.000
82.46731 532.000
82.48726 586.000
82.50721 628.000
82.52715 631.000
82.54710 610.000
82.56705 590.000
82.58699 571.000
82.60694 596.000
82.62689 597.000
82.64683 588.000
82.66678 586.000
82.68673 554.000
82.70668 564.000
82.72662 591.000
82.74657 622.000
82.76652 627.000
82.78646 591.000
82.80641 617.000
82.82636 610.000
82.84630 588.000
82.86625 596.000
82.88620 586.000
82.90615 595.000
82.92609 595.000
82.94604 640.000
82.96599 586.000
82.98593 549.000
83.00588 578.000
83.02583 537.000
83.04577 553.000
83.06572 608.000
83.08567 550.000
83.10561 531.000
83.12556 566.000
83.14551 536.000
83.16546 550.000
83.18540 545.000
83.20535 538.000
83.22530 508.000
83.24524 569.000
83.26519 559.000
83.28514 510.000
83.30508 516.000
83.32503 555.000
83.34498 539.000
83.36493 522.000
83.38487 521.000
83.40482 519.000
83.42477 575.000
83.44471 529.000
83.46466 554.000
83.48461 517.000
83.50455 536.000
83.52450 462.000
83.54445 484.000
83.56440 541.000
83.58434 517.000
83.60429 545.000
83.62424 519.000
83.64418 529.000
83.66413 579.000
83.68408 563.000
83.70402 530.000
83.72397 577.000
83.74392 614.000
83.76386 576.000
83.78381 572.000
83.80376 573.000
83.82371 557.000
83.84365 582.000
83.86360 510.000
83.88355 590.000
83.90349 550.000
83.92344 554.000
83.94339 550.000
83.96333 551.000
83.98328 521.000
84.00323 500.000
84.02318 557.000
84.04312 519.000
84.06307 509.000
84.08302 538.000
84.10296 508.000
84.12291 545.000
84.14286 549.000
84.16280 519.000
84.18275 519.000
84.20270 537.000
84.22264 526.000
84.24259 476.000
84.26254 490.000
84.28249 505.000
84.30243 519.000
84.32238 577.000
84.34233 545.000
84.36227 518.000
84.38222 536.000
84.40217 510.000
84.42211 559.000
84.44206 538.000
84.46201 467.000
84.48196 532.000
84.50190 476.000
84.52185 519.000
84.54180 536.000
84.56174 496.000
84.58169 484.000
84.60164 471.000
84.62158 497.000
84.64153 484.000
84.66148 529.000
84.68142 524.000
84.70137 521.000
84.72132 514.000
84.74127 480.000
84.76121 490.000
84.78116 532.000
84.80111 502.000
84.82105 473.000
84.84100 531.000
84.86095 472.000
84.88089 493.000
84.90084 476.000
84.92079 498.000
84.94074 476.000
84.96068 530.000
84.98063 506.000
85.00058 494.000
85.02052 501.000
85.04047 494.000
85.06042 502.000
85.08036 449.000
85.10031 477.000
85.12026 486.000
85.14021 451.000
85.16015 436.000
85.18010 455.000
85.20005 467.000
85.21999 442.000
85.23994 480.000
85.25989 487.000
85.27983 489.000
85.29978 495.000
85.31973 491.000
85.33967 440.000
85.35962 491.000
85.37957 462.000
85.39952 460.000
85.41946 467.000
85.43941 479.000
85.45936 463.000
85.47930 468.000
85.49925 467.000
85.51920 453.000
85.53914 474.000
85.55909 473.000
85.57904 451.000
85.59899 499.000
85.61893 487.000
85.63888 477.000
85.65883 510.000
85.67877 442.000
85.69872 468.000
85.71867 481.000
85.73861 490.000
85.75856 441.000
85.77851 474.000
85.79845 466.000
85.81840 478.000
85.83835 455.000
85.85830 455.000
85.87824 511.000
85.89819 484.000
85.91814 447.000
85.93808 492.000
85.95803 434.000
85.97798 489.000
85.99792 466.000
86.01787 503.000
86.03782 478.000
86.05777 459.000
86.07771 467.000
86.09766 458.000
86.11761 454.000
86.13755 462.000
86.15750 489.000
86.17745 475.000
86.19739 513.000
86.21734 475.000
86.23729 444.000
86.25723 454.000
86.27718 497.000
86.29713 477.000
86.31708 476.000
86.33702 453.000
86.35697 493.000
86.37692 467.000
86.39686 466.000
86.41681 507.000
86.43676 454.000
86.45670 485.000
86.47665 511.000
86.49660 455.000
86.51655 481.000
86.53649 508.000
86.55644 477.000
86.57639 491.000
86.59633 510.000
86.61628 494.000
86.63623 486.000
86.65617 476.000
86.67612 514.000
86.69607 510.000
86.71602 501.000
86.73596 498.000
86.75591 484.000
86.77586 537.000
86.79580 506.000
86.81575 511.000
86.83570 561.000
86.85564 531.000
86.87559 521.000
86.89554 461.000
86.91548 506.000
86.93543 559.000
86.95538 500.000
86.97533 510.000
86.99527 509.000
87.01522 484.000
87.03517 486.000
87.05511 483.000
87.07506 515.000
87.09501 493.000
87.11495 512.000
87.13490 513.000
87.15485 541.000
87.17480 536.000
87.19474 497.000
87.21469 484.000
87.23464 499.000
87.25458 514.000
87.27453 524.000
87.29448 492.000
87.31442 501.000
87.33437 466.000
87.35432 522.000
87.37426 500.000
87.39421 479.000
87.41416 470.000
87.43411 490.000
87.45405 483.000
87.47400 501.000
87.49395 435.000
87.51389 513.000
87.53384 486.000
87.55379 490.000
87.57373 466.000
87.59368 472.000
87.61363 499.000
87.63358 479.000
87.65352 507.000
87.67347 468.000
87.69342 496.000
87.71336 495.000
87.73331 452.000
87.75326 511.000
87.77320 472.000
87.79315 479.000
87.81310 480.000
87.83304 496.000
87.85299 491.000
87.87294 495.000
87.89289 509.000
87.91283 496.000
87.93278 511.000
87.95273 475.000
87.97267 486.000
87.99262 481.000
88.01257 501.000
88.03251 453.000
88.05246 458.000
88.07241 538.000
88.09236 477.000
88.11230 504.000
88.13225 502.000
88.15220 454.000
88.17214 487.000
88.19209 490.000
88.21204 475.000
88.23198 510.000
88.25193 477.000
88.27188 472.000
88.29183 497.000
88.31177 496.000
88.33172 473.000
88.35167 460.000
88.37161 528.000
88.39156 503.000
88.41151 479.000
88.43145 502.000
88.45140 484.000
88.47135 487.000
88.49129 492.000
88.51124 466.000
88.53119 476.000
88.55114 483.000
88.57108 510.000
88.59103 507.000
88.61098 443.000
88.63092 494.000
88.65087 505.000
88.67082 492.000
88.69076 473.000
88.71071 491.000
88.73066 487.000
88.75061 480.000
88.77055 477.000
88.79050 463.000
88.81045 462.000
88.83039 509.000
88.85034 485.000
88.87029 452.000
88.89023 494.000
88.91018 454.000
88.93013 539.000
88.95007 493.000
88.97002 542.000
88.98997 493.000
89.00992 488.000
89.02986 490.000
89.04981 490.000
89.06976 526.000
89.08970 515.000
89.10965 457.000
89.12960 493.000
89.14954 563.000
89.16949 501.000
89.18944 549.000
89.20939 535.000
89.22933 503.000
89.24928 494.000
89.26923 523.000
89.28917 565.000
89.30912 498.000
89.32907 522.000
89.34901 527.000
89.36896 557.000
89.38891 590.000
89.40885 561.000
89.42880 549.000
89.44875 579.000
89.46870 550.000
89.48864 595.000
89.50859 539.000
89.52854 554.000
89.54848 533.000
89.56843 555.000
89.58838 534.000
89.60832 531.000
89.62827 534.000
89.64822 535.000
89.66817 520.000
89.68811 575.000
89.70806 564.000
89.72801 586.000
89.74795 560.000
89.76790 512.000
89.78785 573.000
89.80779 548.000
89.82774 515.000
89.84769 547.000
89.86764 560.000
89.88758 549.000
89.90753 558.000
89.92748 472.000
89.94742 493.000
89.96737 498.000
89.98732 497.000
90.00726 508.000
