10.00000 188.000
10.01995 185.000
10.03989 175.000
10.05984 195.000
10.07979 193.000
10.09973 190.000
10.11968 192.000
10.13963 196.000
10.15958 185.000
10.17952 187.000
10.19947 182.000
10.21942 183.000
10.23936 172.000
10.25931 207.000
10.27926 201.000
10.29920 196.000
10.31915 183.000
10.33910 167.000
10.35905 212.000
10.37899 218.000
10.39894 176.000
10.41889 210.000
10.43883 230.000
10.45878 174.000
10.47873 206.000
10.49867 193.000
10.51862 205.000
10.53857 187.000
10.55851 169.000
10.57846 186.000
10.59841 173.000
10.61836 183.000
10.63830 192.000
10.65825 187.000
10.67820 204.000
10.69814 175.000
10.71809 163.000
10.73804 185.000
10.75798 208.000
10.77793 186.000
10.79788 191.000
10.81783 233.000
10.83777 210.000
10.85772 206.000
10.87767 190.000
10.89761 209.000
10.91756 186.000
10.93751 175.000
10.95745 208.000
10.97740 196.000
10.99735 196.000
11.01730 196.000
11.03724 212.000
11.05719 182.000
11.07714 185.000
11.09708 206.000
11.11703 197.000
11.13698 190.000
11.15692 181.000
11.17687 176.000
11.19682 215.000
11.21676 195.000
11.23671 194.000
11.25666 188.000
11.27661 170.000
11.29655 180.000
11.31650 204.000
11.33645 191.000
11.35639 202.000
11.37634 178.000
11.39629 165.000
11.41623 190.000
11.43618 195.000
11.45613 190.000
11.47608 176.000
11.49602 203.000
11.51597 177.000
11.53592 203.000
11.55586 177.000
11.57581 199.000
11.59576 173.000
11.61570 192.000
11.63565 196.000
11.65560 209.000
11.67554 208.000
11.69549 179.000
11.71544 191.000
11.73539 187.000
11.75533 179.000
11.77528 166.000
11.79523 199.000
11.81517 175.000
11.83512 197.000
11.85507 187.000
11.87501 198.000
11.89496 198.000
11.91491 186.000
11.93486 178.000
11.95480 198.000
11.97475 212.000
11.99470 203.000
12.01464 215.000
12.03459 200.000
12.05454 188.000
12.07448 217.000
12.09443 172.000
12.11438 192.000
12.13432 209.000
12.15427 187.000
12.17422 204.000
12.19417 200.000
12.21411 200.000
12.23406 204.000
12.25401 205.000
12.27395 182.000
12.29390 200.000
12.31385 200.000
12.33379 202.000
12.35374 180.000
12.37369 186.000
12.39364 201.000
12.41358 211.000
12.43353 206.000
12.45348 209.000
12.47342 174.000
12.49337 205.000
12.51332 211.000
12.53326 202.000
12.55321 206.000
12.57316 176.000
12.59311 212.000
12.61305 189.000
12.63300 200.000
12.65295 198.000
12.67289 217.000
12.69284 174.000
12.71279 198.000
12.73273 204.000
12.75268 214.000
12.77263 196.000
12.79257 193.000
12.81252 198.000
12.83247 200.000
12.85242 198.000
12.87236 177.000
12.89231 181.000
12.91226 212.000
12.93220 205.000
12.95215 175.000
12.97210 180.000
12.99204 189.000
13.01199 222.000
13.03194 200.000
13.05189 200.000
13.07183 212.000
13.09178 166.000
13.11173 196.000
13.13167 186.000
13.15162 193.000
13.17157 195.000
13.19151 193.000
13.21146 198.000
13.23141 170.000
13.25135 182.000
13.27130 196.000
13.29125 191.000
13.31120 189.000
13.33114 206.000
13.35109 171.000
13.37104 201.000
13.39098 212.000
13.41093 229.000
13.43088 183.000
13.45082 187.000
13.47077 189.000
13.49072 169.000
13.51067 197.000
13.53061 185.000
13.55056 180.000
13.57051 192.000
13.59045 192.000
13.61040 186.000
13.63035 207.000
13.65029 188.000
13.67024 203.000
13.69019 186.000
13.71013 217.000
13.73008 188.000
13.75003 191.000
13.76998 201.000
13.78992 196.000
13.80987 198.000
13.82982 205.000
13.84976 205.000
13.86971 193.000
13.88966 197.000
13.90960 173.000
13.92955 191.000
13.94950 191.000
13.96945 190.000
13.98939 206.000
14.00934 182.000
14.02929 186.000
14.04923 204.000
14.06918 208.000
14.08913 195.000
14.10907 195.000
14.12902 202.000
14.14897 210.000
14.16892 210.000
14.18886 180.000
14.20881 212.000
14.22876 203.000
14.24870 208.000
14.26865 208.000
14.28860 180.000
14.30854 231.000
14.32849 164.000
14.34844 200.000
14.36838 196.000
14.38833 180.000
14.40828 200.000
14.42823 191.000
14.44817 174.000
14.46812 199.000
14.48807 223.000
14.50801 218.000
14.52796 180.000
14.54791 206.000
14.56785 224.000
14.58780 208.000
14.60775 207.000
14.62770 203.000
14.64764 195.000
14.66759 186.000
14.68754 180.000
14.70748 226.000
14.72743 208.000
14.74738 200.000
14.76732 205.000
14.78727 210.000
14.80722 218.000
14.82716 239.000
14.84711 197.000
14.86706 225.000
14.88701 216.000
14.90695 213.000
14.92690 242.000
14.94685 217.000
14.96679 228.000
14.98674 196.000
15.00669 207.000
15.02663 267.000
15.04658 234.000
15.06653 201.000
15.08648 274.000
15.10642 228.000
15.12637 237.000
15.14632 219.000
15.16626 221.000
15.18621 239.000
15.20616 224.000
15.22610 233.000
15.24605 218.000
15.26600 229.000
15.28594 259.000
15.30589 236.000
15.32584 261.000
15.34579 239.000
15.36573 235.000
15.38568 244.000
15.40563 282.000
15.42557 285.000
15.44552 308.000
15.46547 360.000
15.48541 333.000
15.50536 376.000
15.52531 401.000
15.54526 481.000
15.56520 578.000
15.58515 770.000
15.60510 919.000
15.62504 1390.000
15.64499 1956.000
15.66494 2940.000
15.68488 3964.000
15.70483 4704.000
15.72478 5068.000
15.74472 4662.000
15.76467 3768.000
15.78462 2788.000
15.80457 1819.000
15.82451 1079.000
15.84446 682.000
15.86441 494.000
15.88435 408.000
15.90430 355.000
15.92425 336.000
15.94419 298.000
15.96414 305.000
15.98409 277.000
16.00404 272.000
16.02398 260.000
16.04393 241.000
16.06388 254.000
16.08382 249.000
16.10377 265.000
16.12372 222.000
16.14366 257.000
16.16361 251.000
16.18356 225.000
16.20351 224.000
16.22345 216.000
16.24340 233.000
16.26335 239.000
16.28329 197.000
16.30324 233.000
16.32319 187.000
16.34313 210.000
16.36308 228.000
16.38303 232.000
16.40297 211.000
16.42292 220.000
16.44287 253.000
16.46282 214.000
16.48276 207.000
16.50271 224.000
16.52266 208.000
16.54260 221.000
16.56255 198.000
16.58250 173.000
16.60244 223.000
16.62239 226.000
16.64234 193.000
16.66229 221.000
16.68223 210.000
16.70218 179.000
16.72213 214.000
16.74207 186.000
16.76202 190.000
16.78197 200.000
16.80191 186.000
16.82186 184.000
16.84181 206.000
16.86175 189.000
16.88170 196.000
16.90165 211.000
16.92160 197.000
16.94154 204.000
16.96149 172.000
16.98144 206.000
17.00138 188.000
17.02133 206.000
17.04128 212.000
17.06122 208.000
17.08117 194.000
17.10112 179.000
17.12107 228.000
17.14101 214.000
17.16096 225.000
17.18091 224.000
17.20085 210.000
17.22080 183.000
17.24075 208.000
17.26069 201.000
17.28064 189.000
17.30059 214.000
17.32053 219.000
17.34048 224.000
17.36043 204.000
17.38038 200.000
17.40032 207.000
17.42027 222.000
17.44022 210.000
17.46016 210.000
17.48011 201.000
17.50006 209.000
17.52000 207.000
17.53995 201.000
17.55990 205.000
17.57985 191.000
17.59979 213.000
17.61974 206.000
17.63969 207.000
17.65963 182.000
17.67958 198.000
17.69953 196.000
17.71947 185.000
17.73942 206.000
17.75937 176.000
17.77932 220.000
17.79926 189.000
17.81921 194.000
17.83916 222.000
17.85910 201.000
17.87905 185.000
17.89900 203.000
17.91894 213.000
17.93889 195.000
17.95884 201.000
17.97878 210.000
17.99873 188.000
18.01868 205.000
18.03863 192.000
18.05857 222.000
18.07852 191.000
18.09847 215.000
18.11841 230.000
18.13836 175.000
18.15831 224.000
18.17825 221.000
18.19820 206.000
18.21815 232.000
18.23810 266.000
18.25804 281.000
18.27799 308.000
18.29794 382.000
18.31788 473.000
18.33783 574.000
18.35778 654.000
18.37772 626.000
18.39767 590.000
18.41762 492.000
18.43756 434.000
18.45751 330.000
18.47746 299.000
18.49741 243.000
18.51735 226.000
18.53730 203.000
18.55725 211.000
18.57719 213.000
18.59714 186.000
18.61709 211.000
18.63703 204.000
18.65698 187.000
18.67693 187.000
18.69688 198.000
18.71682 177.000
18.73677 200.000
18.75672 218.000
18.77666 189.000
18.79661 231.000
18.81656 194.000
18.83650 214.000
18.85645 183.000
18.87640 192.000
18.89634 223.000
18.91629 196.000
18.93624 220.000
18.95619 220.000
18.97613 196.000
18.99608 235.000
19.01603 185.000
19.03597 207.000
19.05592 188.000
19.07587 203.000
19.09581 222.000
19.11576 201.000
19.13571 215.000
19.15566 200.000
19.17560 204.000
19.19555 197.000
19.21550 207.000
19.23544 194.000
19.25539 181.000
19.27534 201.000
19.29528 201.000
19.31523 193.000
19.33518 212.000
19.35513 209.000
19.37507 201.000
19.39502 222.000
19.41497 199.000
19.43491 203.000
19.45486 188.000
19.47481 186.000
19.49475 184.000
19.51470 198.000
19.53465 196.000
19.55459 212.000
19.57454 205.000
19.59449 219.000
19.61444 185.000
19.63438 206.000
19.65433 198.000
19.67428 188.000
19.69422 214.000
19.71417 206.000
19.73412 208.000
19.75406 190.000
19.77401 195.000
19.79396 209.000
19.81391 208.000
19.83385 182.000
19.85380 183.000
19.87375 169.000
19.89369 194.000
19.91364 215.000
19.93359 196.000
19.95353 218.000
19.97348 206.000
19.99343 180.000
20.01337 197.000
20.03332 194.000
20.05327 202.000
20.07322 202.000
20.09316 197.000
20.11311 192.000
20.13306 191.000
20.15300 189.000
20.17295 196.000
20.19290 195.000
20.21284 183.000
20.23279 210.000
20.25274 155.000
20.27269 200.000
20.29263 210.000
20.31258 186.000
20.33253 196.000
20.35247 219.000
20.37242 195.000
20.39237 214.000
20.41231 210.000
20.43226 202.000
20.45221 204.000
20.47215 194.000
20.49210 204.000
20.51205 215.000
20.53200 225.000
20.55194 206.000
20.57189 198.000
20.59184 202.000
20.61178 216.000
20.63173 215.000
20.65168 201.000
20.67162 221.000
20.69157 213.000
20.71152 200.000
20.73147 211.000
20.75141 178.000
20.77136 202.000
20.79131 166.000
20.81125 229.000
20.83120 189.000
20.85115 204.000
20.87109 197.000
20.89104 197.000
20.91099 223.000
20.93094 222.000
20.95088 221.000
20.97083 187.000
20.99078 170.000
21.01072 208.000
21.03067 218.000
21.05062 230.000
21.07056 204.000
21.09051 225.000
21.11046 230.000
21.13040 208.000
21.15035 224.000
21.17030 199.000
21.19025 222.000
21.21019 191.000
21.23014 216.000
21.25009 217.000
21.27003 190.000
21.28998 210.000
21.30993 184.000
21.32987 192.000
21.34982 224.000
21.36977 180.000
21.38972 214.000
21.40966 179.000
21.42961 215.000
21.44956 199.000
21.46950 228.000
21.48945 195.000
21.50940 198.000
21.52934 203.000
21.54929 188.000
21.56924 212.000
21.58918 199.000
21.60913 223.000
21.62908 196.000
21.64903 197.000
21.66897 218.000
21.68892 206.000
21.70887 210.000
21.72881 192.000
21.74876 204.000
21.76871 197.000
21.78865 210.000
21.80860 186.000
21.82855 232.000
21.84850 225.000
21.86844 218.000
21.88839 185.000
21.90834 194.000
21.92828 192.000
21.94823 184.000
21.96818 201.000
21.98812 229.000
22.00807 216.000
22.02802 235.000
22.04796 214.000
22.06791 215.000
22.08786 226.000
22.10781 204.000
22.12775 236.000
22.14770 197.000
22.16765 224.000
22.18759 218.000
22.20754 187.000
22.22749 199.000
22.24743 211.000
22.26738 212.000
22.28733 194.000
22.30728 187.000
22.32722 197.000
22.34717 193.000
22.36712 193.000
22.38706 248.000
22.40701 196.000
22.42696 209.000
22.44690 217.000
22.46685 188.000
22.48680 192.000
22.50675 204.000
22.52669 202.000
22.54664 176.000
22.56659 201.000
22.58653 197.000
22.60648 198.000
22.62643 190.000
22.64637 196.000
22.66632 196.000
22.68627 214.000
22.70621 209.000
22.72616 214.000
22.74611 221.000
22.76606 211.000
22.78600 217.000
22.80595 184.000
22.82590 189.000
22.84584 205.000
22.86579 212.000
22.88574 195.000
22.90568 198.000
22.92563 199.000
22.94558 208.000
22.96553 219.000
22.98547 218.000
23.00542 220.000
23.02537 190.000
23.04531 192.000
23.06526 212.000
23.08521 214.000
23.10515 182.000
23.12510 226.000
23.14505 208.000
23.16499 224.000
23.18494 214.000
23.20489 227.000
23.22484 212.000
23.24478 230.000
23.26473 203.000
23.28468 218.000
23.30462 205.000
23.32457 209.000
23.34452 221.000
23.36446 208.000
23.38441 206.000
23.40436 192.000
23.42431 198.000
23.44425 222.000
23.46420 211.000
23.48415 214.000
23.50409 201.000
23.52404 208.000
23.54399 210.000
23.56393 203.000
23.58388 202.000
23.60383 233.000
23.62377 206.000
23.64372 206.000
23.66367 213.000
23.68362 206.000
23.70356 240.000
23.72351 200.000
23.74346 238.000
23.76340 223.000
23.78335 194.000
23.80330 194.000
23.82324 200.000
23.84319 195.000
23.86314 219.000
23.88309 219.000
23.90303 208.000
23.92298 228.000
23.94293 196.000
23.96287 208.000
23.98282 208.000
24.00277 219.000
24.02271 198.000
24.04266 195.000
24.06261 188.000
24.08256 206.000
24.10250 220.000
24.12245 210.000
24.14240 188.000
24.16234 185.000
24.18229 215.000
24.20224 211.000
24.22218 214.000
24.24213 200.000
24.26208 231.000
24.28202 215.000
24.30197 207.000
24.32192 221.000
24.34187 214.000
24.36181 206.000
24.38176 206.000
24.40171 204.000
24.42165 215.000
24.44160 232.000
24.46155 222.000
24.48149 194.000
24.50144 236.000
24.52139 220.000
24.54134 218.000
24.56128 239.000
24.58123 192.000
24.60118 211.000
24.62112 203.000
24.64107 214.000
24.66102 204.000
24.68096 224.000
24.70091 248.000
24.72086 213.000
24.74080 200.000
24.76075 212.000
24.78070 233.000
24.80065 208.000
24.82059 233.000
24.84054 203.000
24.86049 204.000
24.88043 232.000
24.90038 228.000
24.92033 231.000
24.94027 229.000
24.96022 182.000
24.98017 212.000
25.00012 216.000
25.02006 218.000
25.04001 219.000
25.05996 213.000
25.07990 197.000
25.09985 216.000
25.11980 230.000
25.13974 232.000
25.15969 204.000
25.17964 208.000
25.19958 221.000
25.21953 226.000
25.23948 202.000
25.25943 239.000
25.27937 218.000
25.29932 197.000
25.31927 190.000
25.33921 201.000
25.35916 230.000
25.37911 198.000
25.39905 188.000
25.41900 229.000
25.43895 239.000
25.45890 197.000
25.47884 231.000
25.49879 217.000
25.51874 243.000
25.53868 235.000
25.55863 198.000
25.57858 244.000
25.59852 220.000
25.61847 242.000
25.63842 223.000
25.65837 209.000
25.67831 207.000
25.69826 188.000
25.71821 233.000
25.73815 228.000
25.75810 206.000
25.77805 213.000
25.79799 200.000
25.81794 227.000
25.83789 185.000
25.85783 246.000
25.87778 215.000
25.89773 223.000
25.91768 213.000
25.93762 205.000
25.95757 206.000
25.97752 218.000
25.99746 224.000
26.01741 234.000
26.03736 207.000
26.05730 235.000
26.07725 211.000
26.09720 216.000
26.11715 194.000
26.13709 190.000
26.15704 214.000
26.17699 226.000
26.19693 205.000
26.21688 223.000
26.23683 241.000
26.25677 233.000
26.27672 241.000
26.29667 245.000
26.31661 254.000
26.33656 219.000
26.35651 217.000
26.37646 216.000
26.39640 234.000
26.41635 222.000
26.43630 215.000
26.45624 237.000
26.47619 198.000
26.49614 215.000
26.51608 219.000
26.53603 228.000
26.55598 222.000
26.57593 204.000
26.59587 227.000
26.61582 240.000
26.63577 222.000
26.65571 245.000
26.67566 240.000
26.69561 213.000
26.71555 242.000
26.73550 208.000
26.75545 217.000
26.77539 200.000
26.79534 234.000
26.81529 221.000
26.83524 226.000
26.85518 217.000
26.87513 219.000
26.89508 233.000
26.91502 223.000
26.93497 212.000
26.95492 202.000
26.97486 233.000
26.99481 208.000
27.01476 214.000
27.03471 200.000
27.05465 212.000
27.07460 210.000
27.09455 254.000
27.11449 226.000
27.13444 198.000
27.15439 232.000
27.17433 198.000
27.19428 209.000
27.21423 225.000
27.23417 211.000
27.25412 238.000
27.27407 224.000
27.29402 213.000
27.31396 237.000
27.33391 232.000
27.35386 224.000
27.37380 230.000
27.39375 212.000
27.41370 216.000
27.43364 247.000
27.45359 218.000
27.47354 246.000
27.49349 248.000
27.51343 202.000
27.53338 206.000
27.55333 230.000
27.57327 246.000
27.59322 227.000
27.61317 230.000
27.63311 247.000
27.65306 210.000
27.67301 235.000
27.69296 223.000
27.71290 198.000
27.73285 219.000
27.75280 249.000
27.77274 215.000
27.79269 218.000
27.81264 218.000
27.83258 221.000
27.85253 225.000
27.87248 201.000
27.89242 224.000
27.91237 221.000
27.93232 210.000
27.95227 225.000
27.97221 232.000
27.99216 249.000
28.01211 241.000
28.03205 213.000
28.05200 238.000
28.07195 219.000
28.09189 245.000
28.11184 208.000
28.13179 230.000
28.15174 231.000
28.17168 223.000
28.19163 225.000
28.21158 222.000
28.23152 229.000
28.25147 228.000
28.27142 222.000
28.29136 219.000
28.31131 214.000
28.33126 243.000
28.35120 230.000
28.37115 215.000
28.39110 220.000
28.41105 224.000
28.43099 231.000
28.45094 230.000
28.47089 251.000
28.49083 233.000
28.51078 224.000
28.53073 211.000
28.55067 223.000
28.57062 210.000
28.59057 201.000
28.61052 241.000
28.63046 250.000
28.65041 243.000
28.67036 217.000
28.69030 205.000
28.71025 223.000
28.73020 240.000
28.75014 230.000
28.77009 216.000
28.79004 221.000
28.80998 238.000
28.82993 234.000
28.84988 242.000
28.86983 252.000
28.88977 239.000
28.90972 226.000
28.92967 213.000
28.94961 198.000
28.96956 224.000
28.98951 232.000
29.00945 216.000
29.02940 219.000
29.04935 212.000
29.06930 221.000
29.08924 242.000
29.10919 249.000
29.12914 254.000
29.14908 239.000
29.16903 252.000
29.18898 242.000
29.20892 232.000
29.22887 218.000
29.24882 214.000
29.26877 228.000
29.28871 228.000
29.30866 240.000
29.32861 218.000
29.34855 218.000
29.36850 224.000
29.38845 218.000
29.40839 219.000
29.42834 234.000
29.44829 233.000
29.46823 247.000
29.48818 256.000
29.50813 238.000
29.52808 265.000
29.54802 238.000
29.56797 223.000
29.58792 222.000
29.60786 218.000
29.62781 229.000
29.64776 216.000
29.66770 223.000
29.68765 224.000
29.70760 256.000
29.72755 229.000
29.74749 236.000
29.76744 225.000
29.78739 246.000
29.80733 239.000
29.82728 237.000
29.84723 244.000
29.86717 233.000
29.88712 255.000
29.90707 236.000
29.92701 257.000
29.94696 280.000
29.96691 240.000
29.98686 256.000
30.00680 256.000
30.02675 243.000
30.04670 283.000
30.06664 245.000
30.08659 310.000
30.10654 352.000
30.12648 383.000
30.14643 448.000
30.16638 547.000
30.18633 695.000
30.20627 796.000
30.22622 823.000
30.24617 829.000
30.26611 742.000
30.28606 740.000
30.30601 637.000
30.32595 614.000
30.34590 487.000
30.36585 372.000
30.38579 369.000
30.40574 319.000
30.42569 299.000
30.44564 287.000
30.46558 263.000
30.48553 270.000
30.50548 248.000
30.52542 244.000
30.54537 227.000
30.56532 276.000
30.58526 235.000
30.60521 206.000
30.62516 252.000
30.64511 231.000
30.66505 234.000
30.68500 238.000
30.70495 248.000
30.72489 209.000
30.74484 239.000
30.76479 219.000
30.78473 233.000
30.80468 225.000
30.82463 209.000
30.84458 239.000
30.86452 217.000
30.88447 235.000
30.90442 240.000
30.92436 231.000
30.94431 226.000
30.96426 220.000
30.98420 229.000
31.00415 222.000
31.02410 223.000
31.04404 247.000
31.06399 259.000
31.08394 217.000
31.10389 223.000
31.12383 247.000
31.14378 226.000
31.16373 234.000
31.18367 254.000
31.20362 261.000
31.22357 246.000
31.24351 238.000
31.26346 227.000
31.28341 242.000
31.30336 243.000
31.32330 231.000
31.34325 239.000
31.36320 272.000
31.38314 214.000
31.40309 267.000
31.42304 257.000
31.44298 254.000
31.46293 234.000
31.48288 273.000
31.50282 253.000
31.52277 232.000
31.54272 259.000
31.56267 255.000
31.58261 279.000
31.60256 289.000
31.62251 333.000
31.64245 318.000
31.66240 294.000
31.68235 356.000
31.70229 422.000
31.72224 452.000
31.74219 508.000
31.76214 564.000
31.78208 607.000
31.80203 604.000
31.82198 572.000
31.84192 561.000
31.86187 509.000
31.88182 477.000
31.90176 382.000
31.92171 363.000
31.94166 344.000
31.96160 285.000
31.98155 319.000
32.00150 248.000
32.02145 255.000
32.04139 293.000
32.06134 241.000
32.08129 238.000
32.10123 272.000
32.12118 249.000
32.14113 238.000
32.16107 225.000
32.18102 231.000
32.20097 231.000
32.22092 248.000
32.24086 260.000
32.26081 245.000
32.28076 245.000
32.30070 248.000
32.32065 260.000
32.34060 258.000
32.36054 230.000
32.38049 275.000
32.40044 295.000
32.42039 306.000
32.44033 327.000
32.46028 329.000
32.48023 328.000
32.50017 328.000
32.52012 334.000
32.54007 329.000
32.56001 279.000
32.57996 278.000
32.59991 266.000
32.61985 293.000
32.63980 259.000
32.65975 240.000
32.67970 235.000
32.69964 242.000
32.71959 233.000
32.73954 258.000
32.75948 235.000
32.77943 254.000
32.79938 240.000
32.81932 243.000
32.83927 242.000
32.85922 217.000
32.87917 245.000
32.89911 219.000
32.91906 231.000
32.93901 194.000
32.95895 231.000
32.97890 218.000
32.99885 200.000
33.01879 242.000
33.03874 216.000
33.05869 246.000
33.07863 216.000
33.09858 253.000
33.11853 247.000
33.13848 233.000
33.15842 232.000
33.17837 215.000
33.19832 243.000
33.21826 221.000
33.23821 213.000
33.25816 212.000
33.27810 238.000
33.29805 244.000
33.31800 205.000
33.33795 215.000
33.35789 279.000
33.37784 228.000
33.39779 240.000
33.41773 239.000
33.43768 227.000
33.45763 242.000
33.47757 241.000
33.49752 220.000
33.51747 237.000
33.53741 251.000
33.55736 221.000
33.57731 239.000
33.59726 252.000
33.61720 238.000
33.63715 244.000
33.65710 247.000
33.67704 248.000
33.69699 241.000
33.71694 217.000
33.73688 228.000
33.75683 235.000
33.77678 231.000
33.79673 231.000
33.81667 230.000
33.83662 258.000
33.85657 251.000
33.87651 245.000
33.89646 224.000
33.91641 213.000
33.93635 238.000
33.95630 246.000
33.97625 229.000
33.99620 228.000
34.01614 243.000
34.03609 218.000
34.05604 248.000
34.07598 243.000
34.09593 237.000
34.11588 236.000
34.13582 252.000
34.15577 217.000
34.17572 230.000
34.19566 246.000
34.21561 217.000
34.23556 230.000
34.25551 216.000
34.27545 255.000
34.29540 221.000
34.31535 208.000
34.33529 238.000
34.35524 241.000
34.37519 273.000
34.39513 257.000
34.41508 254.000
34.43503 237.000
34.45498 246.000
34.47492 243.000
34.49487 253.000
34.51482 230.000
34.53476 234.000
34.55471 250.000
34.57466 236.000
34.59460 218.000
34.61455 255.000
34.63450 271.000
34.65444 262.000
34.67439 265.000
34.69434 284.000
34.71429 266.000
34.73423 271.000
34.75418 286.000
34.77413 255.000
34.79407 268.000
34.81402 230.000
34.83397 272.000
34.85391 299.000
34.87386 279.000
34.89381 251.000
34.91376 268.000
34.93370 242.000
34.95365 269.000
34.97360 252.000
34.99354 275.000
35.01349 290.000
35.03344 258.000
35.05338 303.000
35.07333 288.000
35.09328 300.000
35.11322 284.000
35.13317 320.000
35.15312 317.000
35.17307 347.000
35.19301 331.000
35.21296 342.000
35.23291 361.000
35.25285 327.000
35.27280 375.000
35.29275 470.000
35.31269 476.000
35.33264 536.000
35.35259 678.000
35.37254 833.000
35.39248 941.000
35.41243 954.000
35.43238 1029.000
35.45232 1222.000
35.47227 1412.000
35.49222 1717.000
35.51216 1742.000
35.53211 1988.000
35.55206 2157.000
35.57201 2378.000
35.59195 2490.000
35.61190 2560.000
35.63185 2574.000
35.65179 2301.000
35.67174 2137.000
35.69169 1890.000
35.71163 1678.000
35.73158 1398.000
35.75153 1289.000
35.77147 1072.000
35.79142 1062.000
35.81137 1038.000
35.83132 1032.000
35.85126 920.000
35.87121 841.000
35.89116 807.000
35.91110 707.000
35.93105 626.000
35.95100 618.000
35.97094 482.000
35.99089 441.000
36.01084 338.000
36.03079 353.000
36.05073 298.000
36.07068 292.000
36.09063 305.000
36.11057 259.000
36.13052 244.000
36.15047 261.000
36.17041 263.000
36.19036 277.000
36.21031 273.000
36.23025 233.000
36.25020 261.000
36.27015 254.000
36.29010 264.000
36.31004 253.000
36.32999 266.000
36.34994 258.000
36.36988 280.000
36.38983 230.000
36.40978 248.000
36.42972 223.000
36.44967 272.000
36.46962 245.000
36.48957 238.000
36.50951 231.000
36.52946 261.000
36.54941 274.000
36.56935 250.000
36.58930 225.000
36.60925 248.000
36.62919 247.000
36.64914 248.000
36.66909 253.000
36.68903 226.000
36.70898 299.000
36.72893 279.000
36.74888 281.000
36.76882 267.000
36.78877 299.000
36.80872 279.000
36.82866 275.000
36.84861 273.000
36.86856 261.000
36.88850 265.000
36.90845 260.000
36.92840 247.000
36.94835 233.000
36.96829 228.000
36.98824 262.000
37.00819 264.000
37.02813 267.000
37.04808 264.000
37.06803 240.000
37.08797 278.000
37.10792 273.000
37.12787 263.000
37.14781 241.000
37.16776 311.000
37.18771 317.000
37.20766 365.000
37.22760 337.000
37.24755 422.000
37.26750 388.000
37.28744 355.000
37.30739 415.000
37.32734 365.000
37.34728 356.000
37.36723 363.000
37.38718 345.000
37.40713 312.000
37.42707 295.000
37.44702 308.000
37.46697 320.000
37.48691 300.000
37.50686 240.000
37.52681 279.000
37.54675 226.000
37.56670 268.000
37.58665 249.000
37.60660 257.000
37.62654 267.000
37.64649 252.000
37.66644 250.000
37.68638 259.000
37.70633 240.000
37.72628 254.000
37.74622 241.000
37.76617 260.000
37.78612 250.000
37.80606 246.000
37.82601 255.000
37.84596 262.000
37.86591 276.000
37.88585 226.000
37.90580 242.000
37.92575 242.000
37.94569 256.000
37.96564 235.000
37.98559 256.000
38.00553 252.000
38.02548 269.000
38.04543 272.000
38.06538 296.000
38.08532 259.000
38.10527 275.000
38.12522 272.000
38.14516 243.000
38.16511 290.000
38.18506 264.000
38.20500 283.000
38.22495 288.000
38.24490 273.000
38.26484 272.000
38.28479 281.000
38.30474 290.000
38.32469 310.000
38.34463 297.000
38.36458 303.000
38.38453 305.000
38.40447 313.000
38.42442 326.000
38.44437 338.000
38.46431 388.000
38.48426 424.000
38.50421 439.000
38.52416 474.000
38.54410 558.000
38.56405 590.000
38.58400 789.000
38.60394 971.000
38.62389 1137.000
38.64384 1169.000
38.66378 1228.000
38.68373 1234.000
38.70368 1202.000
38.72362 1113.000
38.74357 1033.000
38.76352 871.000
38.78347 826.000
38.80341 740.000
38.82336 669.000
38.84331 606.000
38.86325 592.000
38.88320 553.000
38.90315 574.000
38.92309 513.000
38.94304 519.000
38.96299 497.000
38.98294 465.000
39.00288 419.000
39.02283 410.000
39.04278 426.000
39.06272 407.000
39.08267 356.000
39.10262 351.000
39.12256 393.000
39.14251 349.000
39.16246 336.000
39.18241 319.000
39.20235 358.000
39.22230 388.000
39.24225 427.000
39.26219 487.000
39.28214 616.000
39.30209 725.000
39.32203 878.000
39.34198 1114.000
39.36193 1155.000
39.38187 1141.000
39.40182 1062.000
39.42177 1012.000
39.44172 943.000
39.46166 934.000
39.48161 787.000
39.50156 654.000
39.52150 624.000
39.54145 498.000
39.56140 401.000
39.58134 358.000
39.60129 337.000
39.62124 292.000
39.64119 269.000
39.66113 282.000
39.68108 256.000
39.70103 268.000
39.72097 244.000
39.74092 269.000
39.76087 240.000
39.78081 234.000
39.80076 252.000
39.82071 249.000
39.84065 260.000
39.86060 255.000
39.88055 238.000
39.90050 239.000
39.92044 231.000
39.94039 261.000
39.96034 210.000
39.98028 232.000
40.00023 247.000
40.02018 256.000
40.04012 236.000
40.06007 223.000
40.08002 266.000
40.09997 192.000
40.11991 232.000
40.13986 254.000
40.15981 233.000
40.17975 235.000
40.19970 260.000
40.21965 261.000
40.23959 234.000
40.25954 229.000
40.27949 238.000
40.29943 229.000
40.31938 234.000
40.33933 213.000
40.35928 226.000
40.37922 206.000
40.39917 232.000
40.41912 224.000
40.43906 227.000
40.45901 241.000
40.47896 231.000
40.49890 218.000
40.51885 215.000
40.53880 231.000
40.55875 245.000
40.57869 204.000
40.59864 214.000
40.61859 235.000
40.63853 248.000
40.65848 210.000
40.67843 235.000
40.69837 222.000
40.71832 208.000
40.73827 227.000
40.75822 227.000
40.77816 229.000
40.79811 251.000
40.81806 254.000
40.83800 215.000
40.85795 212.000
40.87790 233.000
40.89784 227.000
40.91779 217.000
40.93774 231.000
40.95768 241.000
40.97763 251.000
40.99758 230.000
41.01753 246.000
41.03747 220.000
41.05742 215.000
41.07737 229.000
41.09731 231.000
41.11726 234.000
41.13721 212.000
41.15715 237.000
41.17710 215.000
41.19705 197.000
41.21700 199.000
41.23694 218.000
41.25689 225.000
41.27684 205.000
41.29678 218.000
41.31673 208.000
41.33668 199.000
41.35662 233.000
41.37657 244.000
41.39652 217.000
41.41646 206.000
41.43641 224.000
41.45636 215.000
41.47631 214.000
41.49625 219.000
41.51620 235.000
41.53615 223.000
41.55609 243.000
41.57604 238.000
41.59599 205.000
41.61593 219.000
41.63588 228.000
41.65583 248.000
41.67578 194.000
41.69572 189.000
41.71567 226.000
41.73562 234.000
41.75556 230.000
41.77551 209.000
41.79546 219.000
41.81540 236.000
41.83535 209.000
41.85530 215.000
41.87524 230.000
41.89519 221.000
41.91514 229.000
41.93509 220.000
41.95503 220.000
41.97498 216.000
41.99493 210.000
42.01487 250.000
42.03482 220.000
42.05477 231.000
42.07471 224.000
42.09466 204.000
42.11461 212.000
42.13456 212.000
42.15450 242.000
42.17445 222.000
42.19440 210.000
42.21434 209.000
42.23429 198.000
42.25424 225.000
42.27418 231.000
42.29413 230.000
42.31408 226.000
42.33403 218.000
42.35397 216.000
42.37392 190.000
42.39387 208.000
42.41381 221.000
42.43376 219.000
42.45371 217.000
42.47365 243.000
42.49360 217.000
42.51355 228.000
42.53349 212.000
42.55344 256.000
42.57339 213.000
42.59334 222.000
42.61328 219.000
42.63323 238.000
42.65318 226.000
42.67312 246.000
42.69307 229.000
42.71302 221.000
42.73296 240.000
42.75291 238.000
42.77286 251.000
42.79281 211.000
42.81275 212.000
42.83270 211.000
42.85265 243.000
42.87259 214.000
42.89254 246.000
42.91249 245.000
42.93243 249.000
42.95238 228.000
42.97233 254.000
42.99227 212.000
43.01222 268.000
43.03217 274.000
43.05212 240.000
43.07206 276.000
43.09201 304.000
43.11196 308.000
43.13190 298.000
43.15185 321.000
43.17180 336.000
43.19174 397.000
43.21169 436.000
43.23164 467.000
43.25159 652.000
43.27153 742.000
43.29148 739.000
43.31143 712.000
43.33137 707.000
43.35132 690.000
43.37127 813.000
43.39121 817.000
43.41116 815.000
43.43111 791.000
43.45105 809.000
43.47100 658.000
43.49095 677.000
43.51090 555.000
43.53084 584.000
43.55079 499.000
43.57074 443.000
43.59068 416.000
43.61063 343.000
43.63058 342.000
43.65052 313.000
43.67047 278.000
43.69042 279.000
43.71037 271.000
43.73031 290.000
43.75026 247.000
43.77021 256.000
43.79015 218.000
43.81010 252.000
43.83005 253.000
43.84999 233.000
43.86994 215.000
43.88989 246.000
43.90984 229.000
43.92978 216.000
43.94973 210.000
43.96968 216.000
43.98962 234.000
44.00957 230.000
44.02952 229.000
44.04946 236.000
44.06941 245.000
44.08936 231.000
44.10930 235.000
44.12925 207.000
44.14920 206.000
44.16915 225.000
44.18909 235.000
44.20904 231.000
44.22899 226.000
44.24893 247.000
44.26888 195.000
44.28883 223.000
44.30877 217.000
44.32872 231.000
44.34867 201.000
44.36862 241.000
44.38856 219.000
44.40851 200.000
44.42846 198.000
44.44840 232.000
44.46835 220.000
44.48830 222.000
44.50824 210.000
44.52819 202.000
44.54814 216.000
44.56808 192.000
44.58803 234.000
44.60798 222.000
44.62793 230.000
44.64787 216.000
44.66782 228.000
44.68777 226.000
44.70771 236.000
44.72766 218.000
44.74761 241.000
44.76755 216.000
44.78750 206.000
44.80745 203.000
44.82740 216.000
44.84734 210.000
44.86729 198.000
44.88724 222.000
44.90718 231.000
44.92713 209.000
44.94708 228.000
44.96702 274.000
44.98697 232.000
45.00692 249.000
45.02686 256.000
45.04681 246.000
45.06676 229.000
45.08671 238.000
45.10665 260.000
45.12660 256.000
45.14655 257.000
45.16649 239.000
45.18644 238.000
45.20639 205.000
45.22633 209.000
45.24628 237.000
45.26623 237.000
45.28618 241.000
45.30612 239.000
45.32607 228.000
45.34602 200.000
45.36596 229.000
45.38591 224.000
45.40586 221.000
45.42580 211.000
45.44575 234.000
45.46570 212.000
45.48565 218.000
45.50559 214.000
45.52554 243.000
45.54549 226.000
45.56543 218.000
45.58538 196.000
45.60533 245.000
45.62527 230.000
45.64522 224.000
45.66517 195.000
45.68511 241.000
45.70506 218.000
45.72501 244.000
45.74496 226.000
45.76490 240.000
45.78485 218.000
45.80480 223.000
45.82474 221.000
45.84469 237.000
45.86464 233.000
45.88458 218.000
45.90453 218.000
45.92448 242.000
45.94443 218.000
45.96437 220.000
45.98432 216.000
46.00427 219.000
46.02421 216.000
46.04416 226.000
46.06411 241.000
46.08405 222.000
46.10400 222.000
46.12395 182.000
46.14389 221.000
46.16384 244.000
46.18379 226.000
46.20374 244.000
46.22368 250.000
46.24363 253.000
46.26358 241.000
46.28352 257.000
46.30347 225.000
46.32342 263.000
46.34336 235.000
46.36331 247.000
46.38326 252.000
46.40321 222.000
46.42315 231.000
46.44310 231.000
46.46305 211.000
46.48299 212.000
46.50294 196.000
46.52289 229.000
46.54283 229.000
46.56278 242.000
46.58273 233.000
46.60267 188.000
46.62262 231.000
46.64257 226.000
46.66252 233.000
46.68246 208.000
46.70241 207.000
46.72236 232.000
46.74230 232.000
46.76225 212.000
46.78220 249.000
46.80214 204.000
46.82209 235.000
46.84204 219.000
46.86199 228.000
46.88193 218.000
46.90188 209.000
46.92183 229.000
46.94177 218.000
46.96172 227.000
46.98167 223.000
47.00161 198.000
47.02156 239.000
47.04151 219.000
47.06146 214.000
47.08140 228.000
47.10135 206.000
47.12130 215.000
47.14124 216.000
47.16119 214.000
47.18114 234.000
47.20108 195.000
47.22103 215.000
47.24098 198.000
47.26092 231.000
47.28087 231.000
47.30082 238.000
47.32077 226.000
47.34071 236.000
47.36066 232.000
47.38061 225.000
47.40055 208.000
47.42050 221.000
47.44045 229.000
47.46039 235.000
47.48034 228.000
47.50029 270.000
47.52024 234.000
47.54018 230.000
47.56013 254.000
47.58008 231.000
47.60002 238.000
47.61997 239.000
47.63992 225.000
47.65986 212.000
47.67981 252.000
47.69976 236.000
47.71970 226.000
47.73965 253.000
47.75960 233.000
47.77955 241.000
47.79949 229.000
47.81944 229.000
47.83939 233.000
47.85933 231.000
47.87928 235.000
47.89923 265.000
47.91917 220.000
47.93912 242.000
47.95907 220.000
47.97902 247.000
47.99896 227.000
48.01891 244.000
48.03886 229.000
48.05880 232.000
48.07875 244.000
48.09870 242.000
48.11864 244.000
48.13859 264.000
48.15854 255.000
48.17848 241.000
48.19843 252.000
48.21838 254.000
48.23833 277.000
48.25827 224.000
48.27822 273.000
48.29817 266.000
48.31811 271.000
48.33806 270.000
48.35801 271.000
48.37795 328.000
48.39790 289.000
48.41785 329.000
48.43780 338.000
48.45774 373.000
48.47769 392.000
48.49764 396.000
48.51758 436.000
48.53753 493.000
48.55748 536.000
48.57742 614.000
48.59737 740.000
48.61732 889.000
48.63726 952.000
48.65721 1090.000
48.67716 1072.000
48.69711 1062.000
48.71705 1061.000
48.73700 1065.000
48.75695 1050.000
48.77689 982.000
48.79684 911.000
48.81679 888.000
48.83673 827.000
48.85668 744.000
48.87663 653.000
48.89658 550.000
48.91652 506.000
48.93647 478.000
48.95642 379.000
48.97636 354.000
48.99631 327.000
49.01626 319.000
49.03620 274.000
49.05615 270.000
49.07610 261.000
49.09605 275.000
49.11599 255.000
49.13594 257.000
49.15589 262.000
49.17583 256.000
49.19578 252.000
49.21573 264.000
49.23567 272.000
49.25562 259.000
49.27557 268.000
49.29551 227.000
49.31546 250.000
49.33541 247.000
49.35536 253.000
49.37530 210.000
49.39525 245.000
49.41520 242.000
49.43514 236.000
49.45509 230.000
49.47504 229.000
49.49498 247.000
49.51493 228.000
49.53488 210.000
49.55483 238.000
49.57477 240.000
49.59472 227.000
49.61467 239.000
49.63461 232.000
49.65456 267.000
49.67451 216.000
49.69445 236.000
49.71440 198.000
49.73435 219.000
49.75429 213.000
49.77424 243.000
49.79419 225.000
49.81414 235.000
49.83408 220.000
49.85403 238.000
49.87398 211.000
49.89392 206.000
49.91387 211.000
49.93382 197.000
49.95376 210.000
49.97371 205.000
49.99366 224.000
50.01361 217.000
50.03355 223.000
50.05350 238.000
50.07345 214.000
50.09339 210.000
50.11334 223.000
50.13329 234.000
50.15323 203.000
50.17318 205.000
50.19313 213.000
50.21307 239.000
50.23302 212.000
50.25297 231.000
50.27292 203.000
50.29286 224.000
50.31281 214.000
50.33276 223.000
50.35270 220.000
50.37265 224.000
50.39260 234.000
50.41254 230.000
50.43249 225.000
50.45244 224.000
50.47239 223.000
50.49233 220.000
50.51228 252.000
50.53223 195.000
50.55217 218.000
50.57212 228.000
50.59207 204.000
50.61201 205.000
50.63196 218.000
50.65191 215.000
50.67186 236.000
50.69180 245.000
50.71175 232.000
50.73170 216.000
50.75164 237.000
50.77159 248.000
50.79154 208.000
50.81148 198.000
50.83143 199.000
50.85138 193.000
50.87132 211.000
50.89127 230.000
50.91122 211.000
50.93117 199.000
50.95111 253.000
50.97106 209.000
50.99101 233.000
51.01095 219.000
51.03090 214.000
51.05085 223.000
51.07079 215.000
51.09074 216.000
51.11069 232.000
51.13064 190.000
51.15058 226.000
51.17053 215.000
51.19048 226.000
51.21042 214.000
51.23037 212.000
51.25032 233.000
51.27026 219.000
51.29021 245.000
51.31016 234.000
51.33010 221.000
51.35005 237.000
51.37000 212.000
51.38995 203.000
51.40989 211.000
51.42984 221.000
51.44979 243.000
51.46973 233.000
51.48968 223.000
51.50963 236.000
51.52957 218.000
51.54952 212.000
51.56947 212.000
51.58942 226.000
51.60936 218.000
51.62931 228.000
51.64926 203.000
51.66920 211.000
51.68915 189.000
51.70910 221.000
51.72904 261.000
51.74899 242.000
51.76894 212.000
51.78888 205.000
51.80883 254.000
51.82878 227.000
51.84873 204.000
51.86867 222.000
51.88862 224.000
51.90857 217.000
51.92851 218.000
51.94846 211.000
51.96841 213.000
51.98835 197.000
52.00830 230.000
52.02825 204.000
52.04820 238.000
52.06814 190.000
52.08809 246.000
52.10804 231.000
52.12798 233.000
52.14793 214.000
52.16788 220.000
52.18782 222.000
52.20777 215.000
52.22772 205.000
52.24767 230.000
52.26761 225.000
52.28756 218.000
52.30751 235.000
52.32745 201.000
52.34740 203.000
52.36735 210.000
52.38729 215.000
52.40724 230.000
52.42719 211.000
52.44713 223.000
52.46708 214.000
52.48703 206.000
52.50698 219.000
52.52692 233.000
52.54687 232.000
52.56682 225.000
52.58676 202.000
52.60671 223.000
52.62666 219.000
52.64660 246.000
52.66655 215.000
52.68650 231.000
52.70645 226.000
52.72639 246.000
52.74634 214.000
52.76629 226.000
52.78623 240.000
52.80618 215.000
52.82613 223.000
52.84607 257.000
52.86602 211.000
52.88597 238.000
52.90591 195.000
52.92586 224.000
52.94581 219.000
52.96576 227.000
52.98570 211.000
53.00565 215.000
53.02560 231.000
53.04554 234.000
53.06549 213.000
53.08544 220.000
53.10538 234.000
53.12533 271.000
53.14528 218.000
53.16523 208.000
53.18517 232.000
53.20512 236.000
53.22507 257.000
53.24501 228.000
53.26496 256.000
53.28491 249.000
53.30485 258.000
53.32480 286.000
53.34475 273.000
53.36469 256.000
53.38464 306.000
53.40459 267.000
53.42454 288.000
53.44448 294.000
53.46443 278.000
53.48438 303.000
53.50432 274.000
53.52427 268.000
53.54422 265.000
53.56416 273.000
53.58411 297.000
53.60406 319.000
53.62401 313.000
53.64395 293.000
53.66390 316.000
53.68385 334.000
53.70379 345.000
53.72374 352.000
53.74369 377.000
53.76363 343.000
53.78358 320.000
53.80353 357.000
53.82348 348.000
53.84342 301.000
53.86337 295.000
53.88332 282.000
53.90326 310.000
53.92321 269.000
53.94316 262.000
53.96310 261.000
53.98305 230.000
54.00300 220.000
54.02294 228.000
54.04289 206.000
54.06284 217.000
54.08279 220.000
54.10273 212.000
54.12268 250.000
54.14263 209.000
54.16257 217.000
54.18252 218.000
54.20247 226.000
54.22241 238.000
54.24236 239.000
54.26231 205.000
54.28226 245.000
54.30220 217.000
54.32215 212.000
54.34210 202.000
54.36204 230.000
54.38199 224.000
54.40194 253.000
54.42188 204.000
54.44183 227.000
54.46178 204.000
54.48172 221.000
54.50167 212.000
54.52162 220.000
54.54157 239.000
54.56151 214.000
54.58146 236.000
54.60141 230.000
54.62135 232.000
54.64130 208.000
54.66125 221.000
54.68119 211.000
54.70114 241.000
54.72109 235.000
54.74104 204.000
54.76098 198.000
54.78093 241.000
54.80088 199.000
54.82082 224.000
54.84077 223.000
54.86072 209.000
54.88066 211.000
54.90061 216.000
54.92056 216.000
54.94050 200.000
54.96045 214.000
54.98040 215.000
55.00035 211.000
55.02029 248.000
55.04024 224.000
55.06019 227.000
55.08013 231.000
55.10008 213.000
55.12003 232.000
55.13997 218.000
55.15992 216.000
55.17987 208.000
55.19982 203.000
55.21976 229.000
55.23971 217.000
55.25966 217.000
55.27960 188.000
55.29955 241.000
55.31950 214.000
55.33944 237.000
55.35939 207.000
55.37934 224.000
55.39929 233.000
55.41923 219.000
55.43918 227.000
55.45913 212.000
55.47907 235.000
55.49902 237.000
55.51897 223.000
55.53891 213.000
55.55886 217.000
55.57881 227.000
55.59875 227.000
55.61870 226.000
55.63865 210.000
55.65860 215.000
55.67854 234.000
55.69849 221.000
55.71844 210.000
55.73838 209.000
55.75833 205.000
55.77828 234.000
55.79822 238.000
55.81817 221.000
55.83812 205.000
55.85807 190.000
55.87801 227.000
55.89796 209.000
55.91791 210.000
55.93785 226.000
55.95780 222.000
55.97775 210.000
55.99769 239.000
56.01764 236.000
56.03759 243.000
56.05753 207.000
56.07748 243.000
56.09743 226.000
56.11738 220.000
56.13732 222.000
56.15727 212.000
56.17722 201.000
56.19716 219.000
56.21711 215.000
56.23706 233.000
56.25700 227.000
56.27695 211.000
56.29690 209.000
56.31685 246.000
56.33679 231.000
56.35674 228.000
56.37669 222.000
56.39663 214.000
56.41658 247.000
56.43653 244.000
56.45647 232.000
56.47642 211.000
56.49637 216.000
56.51631 234.000
56.53626 201.000
56.55621 233.000
56.57616 221.000
56.59610 256.000
56.61605 254.000
56.63600 231.000
56.65594 241.000
56.67589 229.000
56.69584 234.000
56.71578 254.000
56.73573 230.000
56.75568 249.000
56.77563 248.000
56.79557 215.000
56.81552 213.000
56.83547 218.000
56.85541 228.000
56.87536 231.000
56.89531 263.000
56.91525 268.000
56.93520 254.000
56.95515 230.000
56.97510 248.000
56.99504 259.000
57.01499 271.000
57.03494 253.000
57.05488 264.000
57.07483 284.000
57.09478 284.000
57.11472 323.000
57.13467 346.000
57.15462 380.000
57.17456 405.000
57.19451 471.000
57.21446 523.000
57.23441 578.000
57.25435 626.000
57.27430 621.000
57.29425 667.000
57.31419 636.000
57.33414 577.000
57.35409 594.000
57.37403 583.000
57.39398 571.000
57.41393 562.000
57.43388 569.000
57.45382 486.000
57.47377 458.000
57.49372 396.000
57.51366 389.000
57.53361 380.000
57.55356 347.000
57.57350 326.000
57.59345 293.000
57.61340 259.000
57.63334 318.000
57.65329 265.000
57.67324 252.000
57.69319 254.000
57.71313 267.000
57.73308 243.000
57.75303 247.000
57.77297 266.000
57.79292 245.000
57.81287 223.000
57.83281 244.000
57.85276 259.000
57.87271 235.000
57.89266 278.000
57.91260 283.000
57.93255 239.000
57.95250 260.000
57.97244 226.000
57.99239 238.000
58.01234 222.000
58.03228 239.000
58.05223 247.000
58.07218 274.000
58.09212 255.000
58.11207 256.000
58.13202 302.000
58.15197 321.000
58.17191 279.000
58.19186 310.000
58.21181 367.000
58.23175 375.000
58.25170 331.000
58.27165 327.000
58.29159 319.000
58.31154 343.000
58.33149 283.000
58.35144 312.000
58.37138 314.000
58.39133 290.000
58.41128 309.000
58.43122 271.000
58.45117 264.000
58.47112 259.000
58.49106 280.000
58.51101 228.000
58.53096 251.000
58.55090 237.000
58.57085 223.000
58.59080 224.000
58.61075 234.000
58.63069 227.000
58.65064 224.000
58.67059 235.000
58.69053 224.000
58.71048 238.000
58.73043 221.000
58.75037 210.000
58.77032 233.000
58.79027 232.000
58.81022 197.000
58.83016 230.000
58.85011 219.000
58.87006 208.000
58.89000 247.000
58.90995 248.000
58.92990 214.000
58.94984 235.000
58.96979 222.000
58.98974 215.000
59.00969 211.000
59.02963 233.000
59.04958 235.000
59.06953 247.000
59.08947 216.000
59.10942 211.000
59.12937 203.000
59.14931 232.000
59.16926 205.000
59.18921 217.000
59.20915 224.000
59.22910 236.000
59.24905 229.000
59.26900 225.000
59.28894 213.000
59.30889 237.000
59.32884 221.000
59.34878 232.000
59.36873 221.000
59.38868 227.000
59.40862 225.000
59.42857 227.000
59.44852 220.000
59.46847 208.000
59.48841 211.000
59.50836 230.000
59.52831 215.000
59.54825 248.000
59.56820 241.000
59.58815 223.000
59.60809 213.000
59.62804 221.000
59.64799 221.000
59.66793 232.000
59.68788 214.000
59.70783 242.000
59.72778 243.000
59.74772 216.000
59.76767 226.000
59.78762 215.000
59.80756 220.000
59.82751 222.000
59.84746 218.000
59.86740 238.000
59.88735 218.000
59.90730 209.000
59.92725 245.000
59.94719 216.000
59.96714 232.000
59.98709 207.000
60.00703 225.000
60.02698 230.000
60.04693 208.000
60.06687 246.000
60.08682 243.000
60.10677 215.000
60.12671 239.000
60.14666 231.000
60.16661 209.000
60.18656 250.000
60.20650 242.000
60.22645 242.000
60.24640 224.000
60.26634 226.000
60.28629 223.000
60.30624 219.000
60.32618 242.000
60.34613 216.000
60.36608 215.000
60.38603 245.000
60.40597 227.000
60.42592 209.000
60.44587 214.000
60.46581 243.000
60.48576 246.000
60.50571 245.000
60.52565 234.000
60.54560 213.000
60.56555 222.000
60.58550 255.000
60.60544 218.000
60.62539 235.000
60.64534 227.000
60.66528 224.000
60.68523 229.000
60.70518 214.000
60.72512 208.000
60.74507 232.000
60.76502 245.000
60.78496 265.000
60.80491 215.000
60.82486 233.000
60.84481 226.000
60.86475 218.000
60.88470 228.000
60.90465 267.000
60.92459 211.000
60.94454 233.000
60.96449 203.000
60.98443 217.000
61.00438 226.000
61.02433 222.000
61.04428 247.000
61.06422 206.000
61.08417 206.000
61.10412 255.000
61.12406 235.000
61.14401 218.000
61.16396 241.000
61.18390 248.000
61.20385 239.000
61.22380 261.000
61.24374 259.000
61.26369 258.000
61.28364 255.000
61.30359 265.000
61.32353 252.000
61.34348 286.000
61.36343 279.000
61.38337 321.000
61.40332 297.000
61.42327 327.000
61.44321 371.000
61.46316 373.000
61.48311 424.000
61.50306 462.000
61.52300 494.000
61.54295 475.000
61.56290 409.000
61.58284 438.000
61.60279 428.000
61.62274 393.000
61.64268 415.000
61.66263 449.000
61.68258 488.000
61.70252 523.000
61.72247 497.000
61.74242 528.000
61.76237 521.000
61.78231 527.000
61.80226 517.000
61.82221 537.000
61.84215 515.000
61.86210 489.000
61.88205 477.000
61.90199 484.000
61.92194 442.000
61.94189 431.000
61.96184 394.000
61.98178 388.000
62.00173 398.000
62.02168 355.000
62.04162 346.000
62.06157 297.000
62.08152 294.000
62.10146 321.000
62.12141 285.000
62.14136 283.000
62.16131 269.000
62.18125 287.000
62.20120 259.000
62.22115 242.000
62.24109 287.000
62.26104 273.000
62.28099 247.000
62.30093 273.000
62.32088 273.000
62.34083 255.000
62.36077 230.000
62.38072 263.000
62.40067 255.000
62.42062 268.000
62.44056 269.000
62.46051 253.000
62.48046 265.000
62.50040 270.000
62.52035 266.000
62.54030 270.000
62.56024 266.000
62.58019 292.000
62.60014 266.000
62.62009 284.000
62.64003 253.000
62.65998 293.000
62.67993 301.000
62.69987 309.000
62.71982 347.000
62.73977 332.000
62.75971 370.000
62.77966 417.000
62.79961 418.000
62.81955 464.000
62.83950 580.000
62.85945 607.000
62.87940 649.000
62.89934 712.000
62.91929 678.000
62.93924 683.000
62.95918 702.000
62.97913 634.000
62.99908 633.000
63.01902 630.000
63.03897 565.000
63.05892 623.000
63.07887 563.000
63.09881 519.000
63.11876 452.000
63.13871 478.000
63.15865 456.000
63.17860 391.000
63.19855 401.000
63.21849 372.000
63.23844 328.000
63.25839 321.000
63.27833 329.000
63.29828 310.000
63.31823 259.000
63.33818 274.000
63.35812 267.000
63.37807 262.000
63.39802 252.000
63.41796 239.000
63.43791 215.000
63.45786 260.000
63.47780 255.000
63.49775 252.000
63.51770 237.000
63.53765 215.000
63.55759 225.000
63.57754 261.000
63.59749 243.000
63.61743 241.000
63.63738 227.000
63.65733 240.000
63.67727 208.000
63.69722 222.000
63.71717 239.000
63.73712 255.000
63.75706 231.000
63.77701 202.000
63.79696 238.000
63.81690 212.000
63.83685 214.000
63.85680 237.000
63.87674 245.000
63.89669 224.000
63.91664 231.000
63.93658 247.000
63.95653 214.000
63.97648 215.000
63.99643 244.000
64.01637 225.000
64.03632 249.000
64.05627 206.000
64.07621 234.000
64.09616 246.000
64.11611 225.000
64.13605 272.000
64.15600 255.000
64.17595 264.000
64.19590 269.000
64.21584 268.000
64.23579 273.000
64.25574 264.000
64.27568 259.000
64.29563 321.000
64.31558 291.000
64.33552 341.000
64.35547 369.000
64.37542 365.000
64.39536 434.000
64.41531 454.000
64.43526 454.000
64.45521 459.000
64.47515 466.000
64.49510 429.000
64.51505 398.000
64.53499 353.000
64.55494 392.000
64.57489 377.000
64.59483 386.000
64.61478 387.000
64.63473 398.000
64.65468 334.000
64.67462 318.000
64.69457 303.000
64.71452 280.000
64.73446 278.000
64.75441 302.000
64.77436 275.000
64.79430 294.000
64.81425 254.000
64.83420 242.000
64.85414 286.000
64.87409 228.000
64.89404 210.000
64.91399 227.000
64.93393 220.000
64.95388 257.000
64.97383 204.000
64.99377 232.000
65.01372 283.000
65.03367 257.000
65.05361 234.000
65.07356 236.000
65.09351 216.000
65.11346 235.000
65.13340 235.000
65.15335 234.000
65.17330 223.000
65.19324 216.000
65.21319 220.000
65.23314 241.000
65.25308 216.000
65.27303 236.000
65.29298 223.000
65.31293 245.000
65.33287 210.000
65.35282 261.000
65.37277 229.000
65.39271 255.000
65.41266 266.000
65.43261 226.000
65.45255 254.000
65.47250 244.000
65.49245 234.000
65.51239 265.000
65.53234 259.000
65.55229 276.000
65.57224 272.000
65.59218 275.000
65.61213 298.000
65.63208 280.000
65.65202 298.000
65.67197 287.000
65.69192 299.000
65.71186 322.000
65.73181 322.000
65.75176 315.000
65.77171 299.000
65.79165 306.000
65.81160 325.000
65.83155 310.000
65.85149 307.000
65.87144 301.000
65.89139 268.000
65.91133 280.000
65.93128 269.000
65.95123 295.000
65.97117 311.000
65.99112 313.000
66.01107 263.000
66.03102 291.000
66.05096 289.000
66.07091 270.000
66.09086 293.000
66.11080 344.000
66.13075 293.000
66.15070 343.000
66.17064 356.000
66.19059 376.000
66.21054 396.000
66.23049 373.000
66.25043 412.000
66.27038 415.000
66.29033 376.000
66.31027 380.000
66.33022 370.000
66.35017 374.000
66.37011 350.000
66.39006 373.000
66.41001 368.000
66.42995 346.000
66.44990 358.000
66.46985 322.000
66.48980 377.000
66.50974 301.000
66.52969 291.000
66.54964 286.000
66.56958 288.000
66.58953 297.000
66.60948 315.000
66.62942 298.000
66.64937 309.000
66.66932 305.000
66.68927 295.000
66.70921 327.000
66.72916 354.000
66.74911 335.000
66.76905 411.000
66.78900 396.000
66.80895 423.000
66.82889 388.000
66.84884 356.000
66.86879 373.000
66.88874 387.000
66.90868 344.000
66.92863 341.000
66.94858 346.000
66.96852 321.000
66.98847 326.000
67.00842 321.000
67.02836 332.000
67.04831 346.000
67.06826 300.000
67.08820 285.000
67.10815 270.000
67.12810 246.000
67.14805 235.000
67.16799 270.000
67.18794 278.000
67.20789 251.000
67.22783 226.000
67.24778 248.000
67.26773 239.000
67.28767 263.000
67.30762 228.000
67.32757 239.000
67.34752 244.000
67.36746 246.000
67.38741 240.000
67.40736 222.000
67.42730 235.000
67.44725 258.000
67.46720 235.000
67.48714 234.000
67.50709 257.000
67.52704 241.000
67.54698 222.000
67.56693 218.000
67.58688 239.000
67.60683 241.000
67.62677 256.000
67.64672 246.000
67.66667 245.000
67.68661 257.000
67.70656 229.000
67.72651 277.000
67.74645 260.000
67.76640 273.000
67.78635 322.000
67.80630 300.000
67.82624 293.000
67.84619 310.000
67.86614 314.000
67.88608 315.000
67.90603 328.000
67.92598 300.000
67.94592 308.000
67.96587 328.000
67.98582 339.000
68.00576 371.000
68.02571 344.000
68.04566 352.000
68.06561 352.000
68.08555 333.000
68.10550 291.000
68.12545 344.000
68.14539 324.000
68.16534 331.000
68.18529 305.000
68.20523 301.000
68.22518 322.000
68.24513 304.000
68.26508 274.000
68.28502 268.000
68.30497 263.000
68.32492 271.000
68.34486 276.000
68.36481 252.000
68.38476 262.000
68.40470 230.000
68.42465 217.000
68.44460 273.000
68.46455 235.000
68.48449 225.000
68.50444 224.000
68.52439 216.000
68.54433 214.000
68.56428 208.000
68.58423 246.000
68.60417 254.000
68.62412 228.000
68.64407 229.000
68.66401 249.000
68.68396 220.000
68.70391 225.000
68.72386 209.000
68.74380 211.000
68.76375 205.000
68.78370 255.000
68.80364 228.000
68.82359 222.000
68.84354 229.000
68.86348 203.000
68.88343 225.000
68.90338 214.000
68.92333 211.000
68.94327 214.000
68.96322 235.000
68.98317 212.000
69.00311 219.000
69.02306 189.000
69.04301 221.000
69.06295 231.000
69.08290 246.000
69.10285 192.000
69.12279 232.000
69.14274 217.000
69.16269 187.000
69.18264 219.000
69.20258 203.000
69.22253 209.000
69.24248 226.000
69.26242 228.000
69.28237 205.000
69.30232 221.000
69.32226 205.000
69.34221 254.000
69.36216 217.000
69.38211 225.000
69.40205 241.000
69.42200 233.000
69.44195 222.000
69.46189 238.000
69.48184 202.000
69.50179 208.000
69.52173 224.000
69.54168 236.000
69.56163 208.000
69.58157 223.000
69.60152 225.000
69.62147 222.000
69.64142 214.000
69.66136 215.000
69.68131 205.000
69.70126 206.000
69.72120 233.000
69.74115 181.000
69.76110 206.000
69.78104 237.000
69.80099 248.000
69.82094 242.000
69.84089 215.000
69.86083 211.000
69.88078 216.000
69.90073 210.000
69.92067 242.000
69.94062 240.000
69.96057 207.000
69.98051 224.000
70.00046 204.000
70.02041 192.000
70.04035 239.000
70.06030 223.000
70.08025 231.000
70.10020 228.000
70.12014 215.000
70.14009 222.000
70.16004 214.000
70.17998 198.000
70.19993 231.000
70.21988 237.000
70.23982 203.000
70.25977 219.000
70.27972 203.000
70.29967 244.000
70.31961 209.000
70.33956 229.000
70.35951 191.000
70.37945 210.000
70.39940 215.000
70.41935 247.000
70.43929 204.000
70.45924 204.000
70.47919 226.000
70.49914 193.000
70.51908 227.000
70.53903 236.000
70.55898 200.000
70.57892 224.000
70.59887 189.000
70.61882 210.000
70.63876 215.000
70.65871 232.000
70.67866 237.000
70.69860 216.000
70.71855 189.000
70.73850 190.000
70.75845 217.000
70.77839 219.000
70.79834 210.000
70.81829 222.000
70.83823 226.000
70.85818 223.000
70.87813 220.000
70.89807 248.000
70.91802 215.000
70.93797 217.000
70.95792 230.000
70.97786 212.000
70.99781 192.000
71.01776 186.000
71.03770 229.000
71.05765 187.000
71.07760 221.000
71.09754 219.000
71.11749 210.000
71.13744 225.000
71.15738 234.000
71.17733 210.000
71.19728 218.000
71.21723 238.000
71.23717 203.000
71.25712 261.000
71.27707 231.000
71.29701 224.000
71.31696 212.000
71.33691 232.000
71.35685 230.000
71.37680 249.000
71.39675 263.000
71.41670 227.000
71.43664 247.000
71.45659 234.000
71.47654 221.000
71.49648 262.000
71.51643 237.000
71.53638 258.000
71.55632 251.000
71.57627 241.000
71.59622 225.000
71.61616 234.000
71.63611 236.000
71.65606 228.000
71.67601 223.000
71.69595 204.000
71.71590 229.000
71.73585 267.000
71.75579 273.000
71.77574 228.000
71.79569 241.000
71.81563 220.000
71.83558 234.000
71.85553 248.000
71.87548 224.000
71.89542 250.000
71.91537 236.000
71.93532 210.000
71.95526 217.000
71.97521 220.000
71.99516 228.000
72.01510 222.000
72.03505 242.000
72.05500 239.000
72.07495 219.000
72.09489 226.000
72.11484 208.000
72.13479 210.000
72.15473 194.000
72.17468 198.000
72.19463 230.000
72.21457 202.000
72.23452 249.000
72.25447 274.000
72.27441 250.000
72.29436 265.000
72.31431 292.000
72.33426 269.000
72.35420 286.000
72.37415 289.000
72.39410 254.000
72.41404 271.000
72.43399 245.000
72.45394 237.000
72.47388 274.000
72.49383 255.000
72.51378 246.000
72.53373 268.000
72.55367 251.000
72.57362 222.000
72.59357 251.000
72.61351 231.000
72.63346 229.000
72.65341 242.000
72.67335 250.000
72.69330 258.000
72.71325 247.000
72.73319 234.000
72.75314 231.000
72.77309 233.000
72.79304 241.000
72.81298 215.000
72.83293 253.000
72.85288 218.000
72.87282 240.000
72.89277 217.000
72.91272 225.000
72.93266 196.000
72.95261 222.000
72.97256 235.000
72.99251 246.000
73.01245 239.000
73.03240 232.000
73.05235 219.000
73.07229 213.000
73.09224 227.000
73.11219 206.000
73.13213 220.000
73.15208 210.000
73.17203 204.000
73.19197 240.000
73.21192 211.000
73.23187 227.000
73.25182 216.000
73.27176 221.000
73.29171 242.000
73.31166 240.000
73.33160 232.000
73.35155 223.000
73.37150 232.000
73.39144 216.000
73.41139 227.000
73.43134 237.000
73.45129 254.000
73.47123 280.000
73.49118 204.000
73.51113 252.000
73.53107 218.000
73.55102 268.000
73.57097 262.000
73.59091 246.000
73.61086 276.000
73.63081 281.000
73.65076 276.000
73.67070 308.000
73.69065 292.000
73.71060 272.000
73.73054 294.000
73.75049 284.000
73.77044 257.000
73.79038 267.000
73.81033 281.000
73.83028 278.000
73.85022 244.000
73.87017 250.000
73.89012 236.000
73.91007 267.000
73.93001 262.000
73.94996 262.000
73.96991 242.000
73.98985 239.000
74.00980 228.000
74.02975 250.000
74.04969 276.000
74.06964 234.000
74.08959 238.000
74.10954 240.000
74.12948 218.000
74.14943 237.000
74.16938 237.000
74.18932 221.000
74.20927 223.000
74.22922 247.000
74.24916 252.000
74.26911 242.000
74.28906 254.000
74.30900 265.000
74.32895 273.000
74.34890 252.000
74.36885 281.000
74.38879 287.000
74.40874 300.000
74.42869 338.000
74.44863 314.000
74.46858 299.000
74.48853 320.000
74.50847 315.000
74.52842 275.000
74.54837 263.000
74.56832 313.000
74.58826 299.000
74.60821 263.000
74.62816 280.000
74.64810 332.000
74.66805 324.000
74.68800 240.000
74.70794 250.000
74.72789 251.000
74.74784 262.000
74.76778 282.000
74.78773 255.000
74.80768 268.000
74.82763 289.000
74.84757 265.000
74.86752 288.000
74.88747 286.000
74.90741 283.000
74.92736 260.000
74.94731 301.000
74.96725 282.000
74.98720 259.000
75.00715 251.000
75.02710 287.000
75.04704 249.000
75.06699 262.000
75.08694 270.000
75.10688 273.000
75.12683 281.000
75.14678 292.000
75.16672 266.000
75.18667 264.000
75.20662 310.000
75.22657 295.000
75.24651 270.000
75.26646 279.000
75.28641 263.000
75.30635 265.000
75.32630 304.000
75.34625 304.000
75.36619 266.000
75.38614 281.000
75.40609 296.000
75.42603 285.000
75.44598 264.000
75.46593 318.000
75.48588 261.000
75.50582 302.000
75.52577 286.000
75.54572 313.000
75.56566 275.000
75.58561 276.000
75.60556 280.000
75.62550 262.000
75.64545 228.000
75.66540 235.000
75.68535 266.000
75.70529 245.000
75.72524 250.000
75.74519 218.000
75.76513 248.000
75.78508 229.000
75.80503 242.000
75.82497 237.000
75.84492 249.000
75.86487 223.000
75.88481 278.000
75.90476 232.000
75.92471 280.000
75.94466 256.000
75.96460 255.000
75.98455 244.000
76.00450 220.000
76.02444 243.000
76.04439 269.000
76.06434 233.000
76.08428 258.000
76.10423 234.000
76.12418 251.000
76.14413 232.000
76.16407 248.000
76.18402 258.000
76.20397 256.000
76.22391 238.000
76.24386 240.000
76.26381 240.000
76.28375 254.000
76.30370 234.000
76.32365 226.000
76.34359 248.000
76.36354 219.000
76.38349 234.000
76.40344 237.000
76.42338 219.000
76.44333 232.000
76.46328 212.000
76.48322 223.000
76.50317 212.000
76.52312 229.000
76.54306 219.000
76.56301 219.000
76.58296 232.000
76.60291 224.000
76.62285 231.000
76.64280 192.000
76.66275 222.000
76.68269 215.000
76.70264 212.000
76.72259 232.000
76.74253 231.000
76.76248 226.000
76.78243 212.000
76.80238 255.000
76.82232 193.000
76.84227 238.000
76.86222 210.000
76.88216 195.000
76.90211 229.000
76.92206 238.000
76.94200 216.000
76.96195 217.000
76.98190 232.000
77.00184 196.000
77.02179 193.000
77.04174 213.000
77.06169 218.000
77.08163 242.000
77.10158 238.000
77.12153 236.000
77.14147 220.000
77.16142 235.000
77.18137 240.000
77.20131 206.000
77.22126 249.000
77.24121 195.000
77.26116 203.000
77.28110 228.000
77.30105 191.000
77.32100 212.000
77.34094 211.000
77.36089 210.000
77.38084 225.000
77.40078 234.000
77.42073 228.000
77.44068 214.000
77.46062 229.000
77.48057 221.000
77.50052 231.000
77.52047 216.000
77.54041 212.000
77.56036 199.000
77.58031 252.000
77.60025 238.000
77.62020 221.000
77.64015 274.000
77.66009 239.000
77.68004 214.000
77.69999 241.000
77.71994 268.000
77.73988 284.000
77.75983 292.000
77.77978 281.000
77.79972 269.000
77.81967 309.000
77.83962 273.000
77.85956 265.000
77.87951 277.000
77.89946 310.000
77.91940 281.000
77.93935 284.000
77.95930 301.000
77.97925 288.000
77.99919 273.000
78.01914 289.000
78.03909 311.000
78.05903 295.000
78.07898 296.000
78.09893 317.000
78.11887 331.000
78.13882 319.000
78.15877 299.000
78.17872 302.000
78.19866 312.000
78.21861 341.000
78.23856 308.000
78.25850 287.000
78.27845 288.000
78.29840 275.000
78.31834 302.000
78.33829 294.000
78.35824 303.000
78.37819 250.000
78.39813 267.000
78.41808 245.000
78.43803 307.000
78.45797 283.000
78.47792 250.000
78.49787 241.000
78.51781 247.000
78.53776 271.000
78.55771 254.000
78.57765 231.000
78.59760 248.000
78.61755 206.000
78.63750 234.000
78.65744 208.000
78.67739 233.000
78.69734 225.000
78.71728 197.000
78.73723 216.000
78.75718 253.000
78.77712 217.000
78.79707 216.000
78.81702 226.000
78.83697 216.000
78.85691 213.000
78.87686 218.000
78.89681 221.000
78.91675 220.000
78.93670 223.000
78.95665 223.000
78.97659 224.000
78.99654 218.000
79.01649 219.000
79.03643 231.000
79.05638 203.000
79.07633 227.000
79.09628 196.000
79.11622 219.000
79.13617 240.000
79.15612 221.000
79.17606 245.000
79.19601 231.000
79.21596 239.000
79.23590 222.000
79.25585 235.000
79.27580 232.000
79.29575 243.000
79.31569 233.000
79.33564 238.000
79.35559 218.000
79.37553 225.000
79.39548 220.000
79.41543 234.000
79.43537 280.000
79.45532 248.000
79.47527 239.000
79.49521 239.000
79.51516 230.000
79.53511 257.000
79.55506 234.000
79.57500 233.000
79.59495 266.000
79.61490 243.000
79.63484 250.000
79.65479 248.000
79.67474 225.000
79.69468 232.000
79.71463 235.000
79.73458 246.000
79.75453 268.000
79.77447 231.000
79.79442 201.000
79.81437 221.000
79.83431 245.000
79.85426 228.000
79.87421 250.000
79.89415 234.000
79.91410 222.000
79.93405 202.000
79.95399 224.000
79.97394 201.000
79.99389 222.000
80.01384 203.000
80.03378 214.000
80.05373 213.000
80.07368 227.000
80.09362 220.000
80.11357 220.000
80.13352 228.000
80.15346 271.000
80.17341 242.000
80.19336 235.000
80.21331 228.000
80.23325 235.000
80.25320 245.000
80.27315 226.000
80.29309 217.000
80.31304 227.000
80.33299 214.000
80.35293 227.000
80.37288 210.000
80.39283 232.000
80.41278 209.000
80.43272 241.000
80.45267 247.000
80.47262 213.000
80.49256 245.000
80.51251 259.000
80.53246 210.000
80.55240 206.000
80.57235 198.000
80.59230 214.000
80.61224 209.000
80.63219 209.000
80.65214 209.000
80.67209 240.000
80.69203 212.000
80.71198 195.000
80.73193 227.000
80.75187 220.000
80.77182 209.000
80.79177 235.000
80.81171 192.000
80.83166 211.000
80.85161 215.000
80.87156 239.000
80.89150 233.000
80.91145 231.000
80.93140 210.000
80.95134 236.000
80.97129 237.000
80.99124 250.000
81.01118 236.000
81.03113 231.000
81.05108 246.000
81.07102 254.000
81.09097 217.000
81.11092 217.000
81.13087 228.000
81.15081 223.000
81.17076 239.000
81.19071 239.000
81.21065 205.000
81.23060 225.000
81.25055 206.000
81.27049 253.000
81.29044 192.000
81.31039 219.000
81.33034 222.000
81.35028 199.000
81.37023 216.000
81.39018 193.000
81.41012 238.000
81.43007 237.000
81.45002 238.000
81.46996 228.000
81.48991 194.000
81.50986 213.000
81.52980 202.000
81.54975 224.000
81.56970 212.000
81.58965 210.000
81.60959 201.000
81.62954 246.000
81.64949 233.000
81.66943 224.000
81.68938 220.000
81.70933 208.000
81.72927 245.000
81.74922 230.000
81.76917 210.000
81.78912 207.000
81.80906 200.000
81.82901 224.000
81.84896 224.000
81.86890 198.000
81.88885 209.000
81.90880 252.000
81.92874 227.000
81.94869 218.000
81.96864 205.000
81.98859 226.000
82.00853 223.000
82.02848 214.000
82.04843 220.000
82.06837 213.000
82.08832 231.000
82.10827 205.000
82.12821 239.000
82.14816 219.000
82.16811 230.000
82.18805 217.000
82.20800 219.000
82.22795 244.000
82.24790 243.000
82.26784 227.000
82.28779 253.000
82.30774 237.000
82.32768 249.000
82.34763 215.000
82.36758 265.000
82.38752 277.000
82.40747 258.000
82.42742 281.000
82.44737 247.000
82.46731 237.000
82.48726 241.000
82.50721 268.000
82.52715 238.000
82.54710 242.000
82.56705 237.000
82.58699 243.000
82.60694 237.000
82.62689 262.000
82.64683 229.000
82.66678 245.000
82.68673 243.000
82.70668 248.000
82.72662 223.000
82.74657 229.000
82.76652 214.000
82.78646 257.000
82.80641 231.000
82.82636 223.000
82.84630 252.000
82.86625 226.000
82.88620 229.000
82.90615 259.000
82.92609 257.000
82.94604 239.000
82.96599 256.000
82.98593 236.000
83.00588 235.000
83.02583 235.000
83.04577 262.000
83.06572 235.000
83.08567 230.000
83.10561 246.000
83.12556 252.000
83.14551 229.000
83.16546 235.000
83.18540 237.000
83.20535 238.000
83.22530 236.000
83.24524 253.000
83.26519 234.000
83.28514 213.000
83.30508 234.000
83.32503 243.000
83.34498 235.000
83.36493 212.000
83.38487 225.000
83.40482 229.000
83.42477 230.000
83.44471 234.000
83.46466 249.000
83.48461 239.000
83.50455 242.000
83.52450 254.000
83.54445 259.000
83.56440 254.000
83.58434 230.000
83.60429 266.000
83.62424 228.000
83.64418 226.000
83.66413 241.000
83.68408 242.000
83.70402 241.000
83.72397 208.000
83.74392 232.000
83.76386 256.000
83.78381 216.000
83.80376 271.000
83.82371 228.000
83.84365 230.000
83.86360 203.000
83.88355 244.000
83.90349 225.000
83.92344 231.000
83.94339 249.000
83.96333 219.000
83.98328 245.000
84.00323 220.000
84.02318 206.000
84.04312 216.000
84.06307 221.000
84.08302 228.000
84.10296 224.000
84.12291 204.000
84.14286 236.000
84.16280 196.000
84.18275 229.000
84.20270 230.000
84.22264 216.000
84.24259 200.000
84.26254 215.000
84.28249 234.000
84.30243 197.000
84.32238 241.000
84.34233 228.000
84.36227 232.000
84.38222 219.000
84.40217 223.000
84.42211 216.000
84.44206 204.000
84.46201 246.000
84.48196 211.000
84.50190 227.000
84.52185 242.000
84.54180 240.000
84.56174 216.000
84.58169 270.000
84.60164 237.000
84.62158 243.000
84.64153 290.000
84.66148 287.000
84.68142 283.000
84.70137 283.000
84.72132 284.000
84.74127 278.000
84.76121 289.000
84.78116 309.000
84.80111 315.000
84.82105 297.000
84.84100 277.000
84.86095 299.000
84.88089 266.000
84.90084 280.000
84.92079 261.000
84.94074 272.000
84.96068 234.000
84.98063 269.000
85.00058 268.000
85.02052 258.000
85.04047 231.000
85.06042 239.000
85.08036 244.000
85.10031 249.000
85.12026 233.000
85.14021 248.000
85.16015 222.000
85.18010 241.000
85.20005 239.000
85.21999 229.000
85.23994 223.000
85.25989 248.000
85.27983 224.000
85.29978 228.000
85.31973 208.000
85.33967 231.000
85.35962 224.000
85.37957 225.000
85.39952 214.000
85.41946 226.000
85.43941 218.000
85.45936 228.000
85.47930 228.000
85.49925 216.000
85.51920 243.000
85.53914 195.000
85.55909 245.000
85.57904 212.000
85.59899 222.000
85.61893 246.000
85.63888 208.000
85.65883 243.000
85.67877 220.000
85.69872 193.000
85.71867 222.000
85.73861 212.000
85.75856 217.000
85.77851 240.000
85.79845 208.000
85.81840 225.000
85.83835 248.000
85.85830 224.000
85.87824 213.000
85.89819 229.000
85.91814 207.000
85.93808 225.000
85.95803 224.000
85.97798 233.000
85.99792 228.000
86.01787 204.000
86.03782 237.000
86.05777 224.000
86.07771 232.000
86.09766 236.000
86.11761 217.000
86.13755 212.000
86.15750 247.000
86.17745 213.000
86.19739 219.000
86.21734 215.000
86.23729 220.000
86.25723 235.000
86.27718 240.000
86.29713 217.000
86.31708 212.000
86.33702 221.000
86.35697 219.000
86.37692 224.000
86.39686 239.000
86.41681 231.000
86.43676 184.000
86.45670 215.000
86.47665 213.000
86.49660 254.000
86.51655 217.000
86.53649 242.000
86.55644 232.000
86.57639 190.000
86.59633 212.000
86.61628 201.000
86.63623 247.000
86.65617 251.000
86.67612 237.000
86.69607 251.000
86.71602 191.000
86.73596 226.000
86.75591 224.000
86.77586 250.000
86.79580 238.000
86.81575 248.000
86.83570 218.000
86.85564 214.000
86.87559 242.000
86.89554 231.000
86.91548 251.000
86.93543 202.000
86.95538 264.000
86.97533 255.000
86.99527 229.000
87.01522 253.000
87.03517 251.000
87.05511 227.000
87.07506 242.000
87.09501 216.000
87.11495 238.000
87.13490 233.000
87.15485 239.000
87.17480 224.000
87.19474 253.000
87.21469 210.000
87.23464 244.000
87.25458 253.000
87.27453 244.000
87.29448 245.000
87.31442 250.000
87.33437 228.000
87.35432 254.000
87.37426 256.000
87.39421 240.000
87.41416 223.000
87.43411 239.000
87.45405 246.000
87.47400 234.000
87.49395 239.000
87.51389 235.000
87.53384 256.000
87.55379 252.000
87.57373 241.000
87.59368 247.000
87.61363 228.000
87.63358 253.000
87.65352 238.000
87.67347 230.000
87.69342 216.000
87.71336 238.000
87.73331 223.000
87.75326 211.000
87.77320 233.000
87.79315 215.000
87.81310 218.000
87.83304 230.000
87.85299 241.000
87.87294 226.000
87.89289 237.000
87.91283 189.000
87.93278 193.000
87.95273 235.000
87.97267 210.000
87.99262 218.000
88.01257 212.000
88.03251 213.000
88.05246 237.000
88.07241 193.000
88.09236 206.000
88.11230 213.000
88.13225 211.000
88.15220 225.000
88.17214 208.000
88.19209 224.000
88.21204 226.000
88.23198 255.000
88.25193 186.000
88.27188 230.000
88.29183 202.000
88.31177 232.000
88.33172 177.000
88.35167 228.000
88.37161 212.000
88.39156 223.000
88.41151 209.000
88.43145 226.000
88.45140 239.000
88.47135 205.000
88.49129 205.000
88.51124 210.000
88.53119 234.000
88.55114 178.000
88.57108 230.000
88.59103 215.000
88.61098 193.000
88.63092 227.000
88.65087 222.000
88.67082 204.000
88.69076 232.000
88.71071 204.000
88.73066 212.000
88.75061 212.000
88.77055 244.000
88.79050 205.000
88.81045 201.000
88.83039 211.000
88.85034 220.000
88.87029 215.000
88.89023 246.000
88.91018 208.000
88.93013 227.000
88.95007 211.000
88.97002 195.000
88.98997 207.000
89.00992 215.000
89.02986 220.000
89.04981 204.000
89.06976 210.000
89.08970 237.000
89.10965 223.000
89.12960 198.000
89.14954 246.000
89.16949 239.000
89.18944 189.000
89.20939 209.000
89.22933 243.000
89.24928 209.000
89.26923 199.000
89.28917 229.000
89.30912 220.000
89.32907 246.000
89.34901 241.000
89.36896 212.000
89.38891 242.000
89.40885 250.000
89.42880 238.000
89.44875 227.000
89.46870 205.000
89.48864 242.000
89.50859 255.000
89.52854 211.000
89.54848 266.000
89.56843 214.000
89.58838 236.000
89.60832 240.000
89.62827 263.000
89.64822 240.000
89.66817 257.000
89.68811 240.000
89.70806 220.000
89.72801 241.000
89.74795 231.000
89.76790 265.000
89.78785 246.000
89.80779 267.000
89.82774 239.000
89.84769 242.000
89.86764 230.000
89.88758 225.000
89.90753 245.000
89.92748 240.000
89.94742 234.000
89.96737 250.000
89.98732 248.000
90.00726 254.000
