10.00000 101.000
10.01995 84.000
10.03989 70.000
10.05984 111.000
10.07979 98.000
10.09973 102.000
10.11968 90.000
10.13963 106.000
10.15958 89.000
10.17952 84.000
10.19947 89.000
10.21942 98.000
10.23936 77.000
10.25931 95.000
10.27926 86.000
10.29920 108.000
10.31915 69.000
10.33910 85.000
10.35905 86.000
10.37899 94.000
10.39894 86.000
10.41889 73.000
10.43883 92.000
10.45878 91.000
10.47873 98.000
10.49867 88.000
10.51862 87.000
10.53857 110.000
10.55851 94.000
10.57846 83.000
10.59841 85.000
10.61836 79.000
10.63830 97.000
10.65825 97.000
10.67820 100.000
10.69814 85.000
10.71809 93.000
10.73804 98.000
10.75798 75.000
10.77793 97.000
10.79788 95.000
10.81783 76.000
10.83777 93.000
10.85772 88.000
10.87767 109.000
10.89761 87.000
10.91756 77.000
10.93751 82.000
10.95745 106.000
10.97740 90.000
10.99735 109.000
11.01730 87.000
11.03724 80.000
11.05719 91.000
11.07714 81.000
11.09708 98.000
11.11703 84.000
11.13698 109.000
11.15692 88.000
11.17687 95.000
11.19682 85.000
11.21676 89.000
11.23671 76.000
11.25666 80.000
11.27661 82.000
11.29655 101.000
11.31650 75.000
11.33645 82.000
11.35639 86.000
11.37634 85.000
11.39629 85.000
11.41623 102.000
11.43618 103.000
11.45613 82.000
11.47608 95.000
11.49602 89.000
11.51597 81.000
11.53592 84.000
11.55586 95.000
11.57581 70.000
11.59576 104.000
11.61570 81.000
11.63565 99.000
11.65560 85.000
11.67554 80.000
11.69549 90.000
11.71544 80.000
11.73539 96.000
11.75533 83.000
11.77528 89.000
11.79523 84.000
11.81517 76.000
11.83512 78.000
11.85507 77.000
11.87501 85.000
11.89496 94.000
11.91491 95.000
11.93486 90.000
11.95480 90.000
11.97475 95.000
11.99470 90.000
12.01464 95.000
12.03459 85.000
12.05454 80.000
12.07448 91.000
12.09443 89.000
12.11438 83.000
12.13432 96.000
12.15427 92.000
12.17422 96.000
12.19417 91.000
12.21411 90.000
12.23406 97.000
12.25401 89.000
12.27395 70.000
12.29390 86.000
12.31385 79.000
12.33379 81.000
12.35374 88.000
12.37369 83.000
12.39364 104.000
12.41358 85.000
12.43353 91.000
12.45348 88.000
12.47342 90.000
12.49337 103.000
12.51332 97.000
12.53326 91.000
12.55321 86.000
12.57316 94.000
12.59311 78.000
12.61305 77.000
12.63300 78.000
12.65295 83.000
12.67289 74.000
12.69284 94.000
12.71279 70.000
12.73273 70.000
12.75268 95.000
12.77263 80.000
12.79257 96.000
12.81252 113.000
12.83247 99.000
12.85242 89.000
12.87236 97.000
12.89231 88.000
12.91226 106.000
12.93220 99.000
12.95215 104.000
12.97210 80.000
12.99204 76.000
13.01199 109.000
13.03194 75.000
13.05189 92.000
13.07183 103.000
13.09178 102.000
13.11173 110.000
13.13167 97.000
13.15162 101.000
13.17157 92.000
13.19151 82.000
13.21146 88.000
13.23141 93.000
13.25135 85.000
13.27130 82.000
13.29125 92.000
13.31120 107.000
13.33114 83.000
13.35109 102.000
13.37104 106.000
13.39098 102.000
13.41093 108.000
13.43088 92.000
13.45082 98.000
13.47077 95.000
13.49072 95.000
13.51067 79.000
13.53061 94.000
13.55056 94.000
13.57051 109.000
13.59045 97.000
13.61040 84.000
13.63035 98.000
13.65029 107.000
13.67024 106.000
13.69019 97.000
13.71013 102.000
13.73008 94.000
13.75003 97.000
13.76998 101.000
13.78992 100.000
13.80987 100.000
13.82982 103.000
13.84976 100.000
13.86971 97.000
13.88966 100.000
13.90960 92.000
13.92955 99.000
13.94950 112.000
13.96945 85.000
13.98939 98.000
14.00934 101.000
14.02929 95.000
14.04923 100.000
14.06918 88.000
14.08913 113.000
14.10907 99.000
14.12902 113.000
14.14897 101.000
14.16892 123.000
14.18886 119.000
14.20881 95.000
14.22876 89.000
14.24870 95.000
14.26865 97.000
14.28860 101.000
14.30854 102.000
14.32849 92.000
14.34844 95.000
14.36838 116.000
14.38833 103.000
14.40828 88.000
14.42823 90.000
14.44817 86.000
14.46812 118.000
14.48807 106.000
14.50801 96.000
14.52796 91.000
14.54791 106.000
14.56785 98.000
14.58780 119.000
14.60775 105.000
14.62770 105.000
14.64764 82.000
14.66759 108.000
14.68754 96.000
14.70748 104.000
14.72743 96.000
14.74738 91.000
14.76732 89.000
14.78727 111.000
14.80722 111.000
14.82716 112.000
14.84711 87.000
14.86706 92.000
14.88701 95.000
14.90695 92.000
14.92690 93.000
14.94685 86.000
14.96679 101.000
14.98674 112.000
15.00669 90.000
15.02663 101.000
15.04658 90.000
15.06653 105.000
15.08648 92.000
15.10642 103.000
15.12637 107.000
15.14632 95.000
15.16626 93.000
15.18621 105.000
15.20616 104.000
15.22610 86.000
15.24605 89.000
15.26600 81.000
15.28594 105.000
15.30589 97.000
15.32584 108.000
15.34579 107.000
15.36573 125.000
15.38568 99.000
15.40563 123.000
15.42557 100.000
15.44552 107.000
15.46547 94.000
15.48541 110.000
15.50536 111.000
15.52531 105.000
15.54526 121.000
15.56520 134.000
15.58515 137.000
15.60510 101.000
15.62504 122.000
15.64499 140.000
15.66494 127.000
15.68488 132.000
15.70483 169.000
15.72478 134.000
15.74472 177.000
15.76467 189.000
15.78462 230.000
15.80457 172.000
15.82451 175.000
15.84446 161.000
15.86441 152.000
15.88435 163.000
15.90430 196.000
15.92425 224.000
15.94419 224.000
15.96414 243.000
15.98409 279.000
16.00404 280.000
16.02398 325.000
16.04393 380.000
16.06388 406.000
16.08382 467.000
16.10377 482.000
16.12372 519.000
16.14366 525.000
16.16361 594.000
16.18356 581.000
16.20351 658.000
16.22345 715.000
16.24340 708.000
16.26335 742.000
16.28329 751.000
16.30324 705.000
16.32319 684.000
16.34313 583.000
16.36308 516.000
16.38303 462.000
16.40297 317.000
16.42292 222.000
16.44287 220.000
16.46282 189.000
16.48276 169.000
16.50271 145.000
16.52266 142.000
16.54260 145.000
16.56255 137.000
16.58250 144.000
16.60244 132.000
16.62239 164.000
16.64234 136.000
16.66229 147.000
16.68223 140.000
16.70218 125.000
16.72213 105.000
16.74207 128.000
16.76202 116.000
16.78197 122.000
16.80191 108.000
16.82186 102.000
16.84181 99.000
16.86175 128.000
16.88170 124.000
16.90165 144.000
16.92160 107.000
16.94154 122.000
16.96149 127.000
16.98144 126.000
17.00138 117.000
17.02133 121.000
17.04128 132.000
17.06122 90.000
17.08117 123.000
17.10112 128.000
17.12107 110.000
17.14101 109.000
17.16096 100.000
17.18091 76.000
17.20085 113.000
17.22080 112.000
17.24075 104.000
17.26069 92.000
17.28064 114.000
17.30059 112.000
17.32053 113.000
17.34048 99.000
17.36043 119.000
17.38038 107.000
17.40032 108.000
17.42027 102.000
17.44022 101.000
17.46016 112.000
17.48011 109.000
17.50006 105.000
17.52000 108.000
17.53995 97.000
17.55990 112.000
17.57985 97.000
17.59979 98.000
17.61974 105.000
17.63969 93.000
17.65963 95.000
17.67958 94.000
17.69953 96.000
17.71947 101.000
17.73942 92.000
17.75937 91.000
17.77932 114.000
17.79926 94.000
17.81921 113.000
17.83916 78.000
17.85910 96.000
17.87905 81.000
17.89900 88.000
17.91894 111.000
17.93889 113.000
17.95884 113.000
17.97878 101.000
17.99873 95.000
18.01868 120.000
18.03863 104.000
18.05857 105.000
18.07852 106.000
18.09847 132.000
18.11841 127.000
18.13836 166.000
18.15831 165.000
18.17825 208.000
18.19820 251.000
18.21815 289.000
18.23810 319.000
18.25804 363.000
18.27799 396.000
18.29794 448.000
18.31788 445.000
18.33783 468.000
18.35778 404.000
18.37772 372.000
18.39767 280.000
18.41762 228.000
18.43756 148.000
18.45751 158.000
18.47746 124.000
18.49741 127.000
18.51735 111.000
18.53730 105.000
18.55725 119.000
18.57719 115.000
18.59714 106.000
18.61709 101.000
18.63703 121.000
18.65698 117.000
18.67693 98.000
18.69688 89.000
18.71682 92.000
18.73677 79.000
18.75672 104.000
18.77666 92.000
18.79661 109.000
18.81656 94.000
18.83650 97.000
18.85645 88.000
18.87640 97.000
18.89634 90.000
18.91629 89.000
18.93624 94.000
18.95619 99.000
18.97613 102.000
18.99608 101.000
19.01603 89.000
19.03597 105.000
19.05592 99.000
19.07587 67.000
19.09581 91.000
19.11576 83.000
19.13571 98.000
19.15566 84.000
19.17560 97.000
19.19555 123.000
19.21550 100.000
19.23544 83.000
19.25539 100.000
19.27534 84.000
19.29528 90.000
19.31523 84.000
19.33518 86.000
19.35513 83.000
19.37507 84.000
19.39502 75.000
19.41497 109.000
19.43491 114.000
19.45486 105.000
19.47481 93.000
19.49475 85.000
19.51470 94.000
19.53465 86.000
19.55459 91.000
19.57454 101.000
19.59449 86.000
19.61444 95.000
19.63438 103.000
19.65433 96.000
19.67428 81.000
19.69422 89.000
19.71417 85.000
19.73412 81.000
19.75406 79.000
19.77401 99.000
19.79396 106.000
19.81391 67.000
19.83385 89.000
19.85380 79.000
19.87375 75.000
19.89369 97.000
19.91364 84.000
19.93359 79.000
19.95353 92.000
19.97348 88.000
19.99343 104.000
20.01337 116.000
20.03332 82.000
20.05327 101.000
20.07322 90.000
20.09316 98.000
20.11311 85.000
20.13306 88.000
20.15300 79.000
20.17295 95.000
20.19290 90.000
20.21284 104.000
20.23279 89.000
20.25274 88.000
20.27269 95.000
20.29263 100.000
20.31258 81.000
20.33253 89.000
20.35247 98.000
20.37242 108.000
20.39237 96.000
20.41231 115.000
20.43226 116.000
20.45221 116.000
20.47215 149.000
20.49210 138.000
20.51205 155.000
20.53200 137.000
20.55194 154.000
20.57189 159.000
20.59184 175.000
20.61178 155.000
20.63173 169.000
20.65168 159.000
20.67162 151.000
20.69157 167.000
20.71152 163.000
20.73147 167.000
20.75141 145.000
20.77136 143.000
20.79131 152.000
20.81125 157.000
20.83120 144.000
20.85115 137.000
20.87109 152.000
20.89104 148.000
20.91099 141.000
20.93094 142.000
20.95088 129.000
20.97083 114.000
20.99078 105.000
21.01072 108.000
21.03067 95.000
21.05062 123.000
21.07056 109.000
21.09051 78.000
21.11046 96.000
21.13040 90.000
21.15035 88.000
21.17030 89.000
21.19025 95.000
21.21019 106.000
21.23014 87.000
21.25009 90.000
21.27003 89.000
21.28998 83.000
21.30993 84.000
21.32987 79.000
21.34982 101.000
21.36977 89.000
21.38972 84.000
21.40966 105.000
21.42961 69.000
21.44956 119.000
21.46950 102.000
21.48945 85.000
21.50940 106.000
21.52934 107.000
21.54929 90.000
21.56924 90.000
21.58918 91.000
21.60913 97.000
21.62908 90.000
21.64903 99.000
21.66897 86.000
21.68892 107.000
21.70887 102.000
21.72881 108.000
21.74876 110.000
21.76871 89.000
21.78865 93.000
21.80860 89.000
21.82855 83.000
21.84850 88.000
21.86844 83.000
21.88839 91.000
21.90834 88.000
21.92828 97.000
21.94823 92.000
21.96818 91.000
21.98812 88.000
22.00807 100.000
22.02802 102.000
22.04796 107.000
22.06791 86.000
22.08786 78.000
22.10781 93.000
22.12775 104.000
22.14770 76.000
22.16765 82.000
22.18759 102.000
22.20754 78.000
22.22749 107.000
22.24743 90.000
22.26738 92.000
22.28733 100.000
22.30728 84.000
22.32722 99.000
22.34717 94.000
22.36712 94.000
22.38706 95.000
22.40701 90.000
22.42696 99.000
22.44690 84.000
22.46685 78.000
22.48680 85.000
22.50675 84.000
22.52669 85.000
22.54664 79.000
22.56659 99.000
22.58653 93.000
22.60648 95.000
22.62643 87.000
22.64637 82.000
22.66632 78.000
22.68627 99.000
22.70621 73.000
22.72616 85.000
22.74611 90.000
22.76606 88.000
22.78600 77.000
22.80595 89.000
22.82590 70.000
22.84584 92.000
22.86579 80.000
22.88574 68.000
22.90568 92.000
22.92563 92.000
22.94558 80.000
22.96553 84.000
22.98547 77.000
23.00542 65.000
23.02537 79.000
23.04531 93.000
23.06526 97.000
23.08521 90.000
23.10515 77.000
23.12510 98.000
23.14505 88.000
23.16499 81.000
23.18494 80.000
23.20489 85.000
23.22484 76.000
23.24478 76.000
23.26473 97.000
23.28468 74.000
23.30462 93.000
23.32457 97.000
23.34452 76.000
23.36446 75.000
23.38441 71.000
23.40436 76.000
23.42431 100.000
23.44425 69.000
23.46420 83.000
23.48415 74.000
23.50409 106.000
23.52404 100.000
23.54399 92.000
23.56393 86.000
23.58388 83.000
23.60383 74.000
23.62377 77.000
23.64372 72.000
23.66367 85.000
23.68362 85.000
23.70356 85.000
23.72351 79.000
23.74346 99.000
23.76340 85.000
23.78335 79.000
23.80330 76.000
23.82324 81.000
23.84319 89.000
23.86314 84.000
23.88309 89.000
23.90303 87.000
23.92298 75.000
23.94293 99.000
23.96287 101.000
23.98282 72.000
24.00277 90.000
24.02271 83.000
24.04266 98.000
24.06261 92.000
24.08256 84.000
24.10250 81.000
24.12245 96.000
24.14240 91.000
24.16234 87.000
24.18229 79.000
24.20224 93.000
24.22218 83.000
24.24213 81.000
24.26208 81.000
24.28202 105.000
24.30197 77.000
24.32192 91.000
24.34187 85.000
24.36181 69.000
24.38176 80.000
24.40171 83.000
24.42165 98.000
24.44160 93.000
24.46155 85.000
24.48149 80.000
24.50144 78.000
24.52139 71.000
24.54134 76.000
24.56128 84.000
24.58123 82.000
24.60118 82.000
24.62112 91.000
24.64107 85.000
24.66102 77.000
24.68096 102.000
24.70091 96.000
24.72086 77.000
24.74080 77.000
24.76075 100.000
24.78070 85.000
24.80065 85.000
24.82059 87.000
24.84054 87.000
24.86049 88.000
24.88043 85.000
24.90038 86.000
24.92033 87.000
24.94027 107.000
24.96022 73.000
24.98017 94.000
25.00012 93.000
25.02006 91.000
25.04001 90.000
25.05996 96.000
25.07990 80.000
25.09985 82.000
25.11980 108.000
25.13974 96.000
25.15969 105.000
25.17964 88.000
25.19958 93.000
25.21953 100.000
25.23948 89.000
25.25943 80.000
25.27937 87.000
25.29932 84.000
25.31927 80.000
25.33921 88.000
25.35916 84.000
25.37911 96.000
25.39905 79.000
25.41900 99.000
25.43895 97.000
25.45890 92.000
25.47884 104.000
25.49879 94.000
25.51874 84.000
25.53868 85.000
25.55863 83.000
25.57858 86.000
25.59852 86.000
25.61847 74.000
25.63842 94.000
25.65837 81.000
25.67831 97.000
25.69826 83.000
25.71821 96.000
25.73815 79.000
25.75810 97.000
25.77805 98.000
25.79799 98.000
25.81794 89.000
25.83789 101.000
25.85783 69.000
25.87778 81.000
25.89773 92.000
25.91768 91.000
25.93762 79.000
25.95757 98.000
25.97752 101.000
25.99746 95.000
26.01741 91.000
26.03736 104.000
26.05730 69.000
26.07725 93.000
26.09720 88.000
26.11715 98.000
26.13709 88.000
26.15704 93.000
26.17699 91.000
26.19693 109.000
26.21688 97.000
26.23683 90.000
26.25677 85.000
26.27672 76.000
26.29667 98.000
26.31661 81.000
26.33656 92.000
26.35651 80.000
26.37646 103.000
26.39640 89.000
26.41635 85.000
26.43630 90.000
26.45624 79.000
26.47619 101.000
26.49614 80.000
26.51608 101.000
26.53603 83.000
26.55598 84.000
26.57593 87.000
26.59587 90.000
26.61582 98.000
26.63577 103.000
26.65571 97.000
26.67566 95.000
26.69561 68.000
26.71555 72.000
26.73550 84.000
26.75545 83.000
26.77539 80.000
26.79534 101.000
26.81529 96.000
26.83524 97.000
26.85518 87.000
26.87513 80.000
26.89508 94.000
26.91502 75.000
26.93497 85.000
26.95492 108.000
26.97486 87.000
26.99481 86.000
27.01476 85.000
27.03471 81.000
27.05465 112.000
27.07460 102.000
27.09455 94.000
27.11449 92.000
27.13444 97.000
27.15439 92.000
27.17433 88.000
27.19428 102.000
27.21423 113.000
27.23417 76.000
27.25412 97.000
27.27407 85.000
27.29402 88.000
27.31396 110.000
27.33391 76.000
27.35386 92.000
27.37380 80.000
27.39375 95.000
27.41370 88.000
27.43364 104.000
27.45359 96.000
27.47354 97.000
27.49349 107.000
27.51343 75.000
27.53338 98.000
27.55333 94.000
27.57327 74.000
27.59322 88.000
27.61317 82.000
27.63311 102.000
27.65306 84.000
27.67301 104.000
27.69296 99.000
27.71290 86.000
27.73285 104.000
27.75280 85.000
27.77274 100.000
27.79269 102.000
27.81264 79.000
27.83258 99.000
27.85253 88.000
27.87248 93.000
27.89242 82.000
27.91237 110.000
27.93232 80.000
27.95227 90.000
27.97221 91.000
27.99216 79.000
28.01211 91.000
28.03205 89.000
28.05200 86.000
28.07195 83.000
28.09189 102.000
28.11184 74.000
28.13179 92.000
28.15174 106.000
28.17168 84.000
28.19163 79.000
28.21158 114.000
28.23152 92.000
28.25147 96.000
28.27142 77.000
28.29136 117.000
28.31131 82.000
28.33126 109.000
28.35120 99.000
28.37115 107.000
28.39110 77.000
28.41105 85.000
28.43099 89.000
28.45094 105.000
28.47089 91.000
28.49083 106.000
28.51078 103.000
28.53073 96.000
28.55067 100.000
28.57062 88.000
28.59057 108.000
28.61052 86.000
28.63046 102.000
28.65041 93.000
28.67036 74.000
28.69030 94.000
28.71025 92.000
28.73020 91.000
28.75014 87.000
28.77009 82.000
28.79004 101.000
28.80998 73.000
28.82993 83.000
28.84988 102.000
28.86983 93.000
28.88977 70.000
28.90972 93.000
28.92967 100.000
28.94961 105.000
28.96956 95.000
28.98951 95.000
29.00945 75.000
29.02940 84.000
29.04935 87.000
29.06930 100.000
29.08924 90.000
29.10919 87.000
29.12914 82.000
29.14908 84.000
29.16903 94.000
29.18898 82.000
29.20892 94.000
29.22887 103.000
29.24882 98.000
29.26877 100.000
29.28871 105.000
29.30866 88.000
29.32861 85.000
29.34855 111.000
29.36850 90.000
29.38845 113.000
29.40839 120.000
29.42834 108.000
29.44829 118.000
29.46823 118.000
29.48818 118.000
29.50813 116.000
29.52808 122.000
29.54802 118.000
29.56797 114.000
29.58792 113.000
29.60786 103.000
29.62781 104.000
29.64776 103.000
29.66770 97.000
29.68765 118.000
29.70760 113.000
29.72755 109.000
29.74749 133.000
29.76744 131.000
29.78739 123.000
29.80733 155.000
29.82728 146.000
29.84723 170.000
29.86717 175.000
29.88712 180.000
29.90707 194.000
29.92701 231.000
29.94696 254.000
29.96691 265.000
29.98686 301.000
30.00680 361.000
30.02675 426.000
30.04670 499.000
30.06664 587.000
30.08659 635.000
30.10654 693.000
30.12648 757.000
30.14643 746.000
30.16638 755.000
30.18633 691.000
30.20627 628.000
30.22622 602.000
30.24617 440.000
30.26611 419.000
30.28606 321.000
30.30601 278.000
30.32595 261.000
30.34590 198.000
30.36585 175.000
30.38579 158.000
30.40574 140.000
30.42569 130.000
30.44564 115.000
30.46558 138.000
30.48553 113.000
30.50548 99.000
30.52542 101.000
30.54537 116.000
30.56532 99.000
30.58526 106.000
30.60521 103.000
30.62516 98.000
30.64511 123.000
30.66505 118.000
30.68500 119.000
30.70495 99.000
30.72489 107.000
30.74484 129.000
30.76479 116.000
30.78473 94.000
30.80468 99.000
30.82463 111.000
30.84458 105.000
30.86452 102.000
30.88447 121.000
30.90442 98.000
30.92436 95.000
30.94431 90.000
30.96426 97.000
30.98420 101.000
31.00415 94.000
31.02410 90.000
31.04404 90.000
31.06399 88.000
31.08394 89.000
31.10389 110.000
31.12383 88.000
31.14378 84.000
31.16373 92.000
31.18367 82.000
31.20362 95.000
31.22357 98.000
31.24351 100.000
31.26346 96.000
31.28341 103.000
31.30336 109.000
31.32330 84.000
31.34325 94.000
31.36320 96.000
31.38314 97.000
31.40309 87.000
31.42304 87.000
31.44298 89.000
31.46293 102.000
31.48288 95.000
31.50282 104.000
31.52277 111.000
31.54272 106.000
31.56267 95.000
31.58261 98.000
31.60256 92.000
31.62251 98.000
31.64245 125.000
31.66240 80.000
31.68235 96.000
31.70229 96.000
31.72224 111.000
31.74219 124.000
31.76214 107.000
31.78208 97.000
31.80203 112.000
31.82198 111.000
31.84192 88.000
31.86187 112.000
31.88182 123.000
31.90176 107.000
31.92171 117.000
31.94166 104.000
31.96160 90.000
31.98155 90.000
32.00150 128.000
32.02145 101.000
32.04139 110.000
32.06134 94.000
32.08129 89.000
32.10123 84.000
32.12118 104.000
32.14113 118.000
32.16107 93.000
32.18102 95.000
32.20097 110.000
32.22092 87.000
32.24086 101.000
32.26081 95.000
32.28076 117.000
32.30070 112.000
32.32065 106.000
32.34060 107.000
32.36054 117.000
32.38049 103.000
32.40044 119.000
32.42039 92.000
32.44033 123.000
32.46028 107.000
32.48023 125.000
32.50017 124.000
32.52012 120.000
32.54007 102.000
32.56001 124.000
32.57996 112.000
32.59991 123.000
32.61985 117.000
32.63980 156.000
32.65975 143.000
32.67970 115.000
32.69964 150.000
32.71959 133.000
32.73954 133.000
32.75948 148.000
32.77943 139.000
32.79938 133.000
32.81932 142.000
32.83927 144.000
32.85922 161.000
32.87917 159.000
32.89911 171.000
32.91906 159.000
32.93901 193.000
32.95895 166.000
32.97890 174.000
32.99885 156.000
33.01879 160.000
33.03874 154.000
33.05869 147.000
33.07863 153.000
33.09858 153.000
33.11853 151.000
33.13848 125.000
33.15842 126.000
33.17837 120.000
33.19832 98.000
33.21826 105.000
33.23821 116.000
33.25816 118.000
33.27810 104.000
33.29805 118.000
33.31800 113.000
33.33795 110.000
33.35789 104.000
33.37784 94.000
33.39779 110.000
33.41773 106.000
33.43768 116.000
33.45763 114.000
33.47757 96.000
33.49752 93.000
33.51747 107.000
33.53741 107.000
33.55736 123.000
33.57731 103.000
33.59726 93.000
33.61720 89.000
33.63715 102.000
33.65710 120.000
33.67704 96.000
33.69699 120.000
33.71694 131.000
33.73688 115.000
33.75683 126.000
33.77678 169.000
33.79673 132.000
33.81667 125.000
33.83662 166.000
33.85657 164.000
33.87651 163.000
33.89646 183.000
33.91641 176.000
33.93635 205.000
33.95630 157.000
33.97625 179.000
33.99620 180.000
34.01614 188.000
34.03609 201.000
34.05604 196.000
34.07598 151.000
34.09593 170.000
34.11588 168.000
34.13582 184.000
34.15577 176.000
34.17572 166.000
34.19566 179.000
34.21561 154.000
34.23556 154.000
34.25551 179.000
34.27545 167.000
34.29540 179.000
34.31535 150.000
34.33529 167.000
34.35524 152.000
34.37519 173.000
34.39513 154.000
34.41508 162.000
34.43503 159.000
34.45498 156.000
34.47492 146.000
34.49487 155.000
34.51482 132.000
34.53476 152.000
34.55471 155.000
34.57466 132.000
34.59460 151.000
34.61455 130.000
34.63450 145.000
34.65444 126.000
34.67439 136.000
34.69434 129.000
34.71429 138.000
34.73423 143.000
34.75418 119.000
34.77413 141.000
34.79407 144.000
34.81402 144.000
34.83397 163.000
34.85391 142.000
34.87386 151.000
34.89381 175.000
34.91376 174.000
34.93370 191.000
34.95365 207.000
34.97360 217.000
34.99354 231.000
35.01349 236.000
35.03344 286.000
35.05338 262.000
35.07333 299.000
35.09328 337.000
35.11322 334.000
35.13317 351.000
35.15312 407.000
35.17307 419.000
35.19301 484.000
35.21296 494.000
35.23291 532.000
35.25285 573.000
35.27280 661.000
35.29275 708.000
35.31269 824.000
35.33264 950.000
35.35259 1067.000
35.37254 1249.000
35.39248 1450.000
35.41243 1637.000
35.43238 1708.000
35.45232 1919.000
35.47227 2070.000
35.49222 2096.000
35.51216 2202.000
35.53211 2069.000
35.55206 2028.000
35.57201 1899.000
35.59195 1701.000
35.61190 1416.000
35.63185 1288.000
35.65179 1144.000
35.67174 893.000
35.69169 754.000
35.71163 639.000
35.73158 515.000
35.75153 466.000
35.77147 386.000
35.79142 318.000
35.81137 293.000
35.83132 269.000
35.85126 255.000
35.87121 232.000
35.89116 213.000
35.91110 190.000
35.93105 215.000
35.95100 195.000
35.97094 205.000
35.99089 175.000
36.01084 164.000
36.03079 181.000
36.05073 168.000
36.07068 153.000
36.09063 158.000
36.11057 157.000
36.13052 149.000
36.15047 144.000
36.17041 146.000
36.19036 154.000
36.21031 155.000
36.23025 147.000
36.25020 163.000
36.27015 186.000
36.29010 196.000
36.31004 170.000
36.32999 207.000
36.34994 191.000
36.36988 241.000
36.38983 250.000
36.40978 241.000
36.42972 223.000
36.44967 247.000
36.46962 235.000
36.48957 222.000
36.50951 208.000
36.52946 235.000
36.54941 206.000
36.56935 214.000
36.58930 205.000
36.60925 183.000
36.62919 197.000
36.64914 188.000
36.66909 175.000
36.68903 172.000
36.70898 153.000
36.72893 157.000
36.74888 156.000
36.76882 148.000
36.78877 148.000
36.80872 147.000
36.82866 129.000
36.84861 127.000
36.86856 142.000
36.88850 145.000
36.90845 136.000
36.92840 176.000
36.94835 158.000
36.96829 158.000
36.98824 184.000
37.00819 176.000
37.02813 220.000
37.04808 181.000
37.06803 210.000
37.08797 230.000
37.10792 262.000
37.12787 248.000
37.14781 253.000
37.16776 255.000
37.18771 243.000
37.20766 263.000
37.22760 218.000
37.24755 183.000
37.26750 215.000
37.28744 156.000
37.30739 191.000
37.32734 147.000
37.34728 134.000
37.36723 119.000
37.38718 130.000
37.40713 111.000
37.42707 130.000
37.44702 88.000
37.46697 92.000
37.48691 126.000
37.50686 99.000
37.52681 112.000
37.54675 102.000
37.56670 100.000
37.58665 99.000
37.60660 91.000
37.62654 105.000
37.64649 103.000
37.66644 97.000
37.68638 100.000
37.70633 89.000
37.72628 87.000
37.74622 104.000
37.76617 97.000
37.78612 113.000
37.80606 89.000
37.82601 117.000
37.84596 105.000
37.86591 108.000
37.88585 105.000
37.90580 93.000
37.92575 104.000
37.94569 98.000
37.96564 97.000
37.98559 86.000
38.00553 96.000
38.02548 91.000
38.04543 101.000
38.06538 105.000
38.08532 103.000
38.10527 107.000
38.12522 100.000
38.14516 95.000
38.16511 97.000
38.18506 101.000
38.20500 100.000
38.22495 98.000
38.24490 82.000
38.26484 97.000
38.28479 83.000
38.30474 113.000
38.32469 89.000
38.34463 84.000
38.36458 93.000
38.38453 84.000
38.40447 95.000
38.42442 88.000
38.44437 87.000
38.46431 89.000
38.48426 89.000
38.50421 89.000
38.52416 76.000
38.54410 96.000
38.56405 95.000
38.58400 109.000
38.60394 92.000
38.62389 100.000
38.64384 117.000
38.66378 110.000
38.68373 107.000
38.70368 112.000
38.72362 101.000
38.74357 109.000
38.76352 97.000
38.78347 110.000
38.80341 107.000
38.82336 93.000
38.84331 116.000
38.86325 96.000
38.88320 88.000
38.90315 101.000
38.92309 104.000
38.94304 102.000
38.96299 92.000
38.98294 86.000
39.00288 112.000
39.02283 108.000
39.04278 96.000
39.06272 101.000
39.08267 89.000
39.10262 91.000
39.12256 86.000
39.14251 95.000
39.16246 116.000
39.18241 110.000
39.20235 99.000
39.22230 98.000
39.24225 86.000
39.26219 93.000
39.28214 100.000
39.30209 98.000
39.32203 90.000
39.34198 106.000
39.36193 75.000
39.38187 108.000
39.40182 102.000
39.42177 87.000
39.44172 83.000
39.46166 102.000
39.48161 92.000
39.50156 100.000
39.52150 109.000
39.54145 97.000
39.56140 78.000
39.58134 94.000
39.60129 105.000
39.62124 89.000
39.64119 90.000
39.66113 85.000
39.68108 102.000
39.70103 96.000
39.72097 94.000
39.74092 100.000
39.76087 102.000
39.78081 88.000
39.80076 94.000
39.82071 82.000
39.84065 75.000
39.86060 101.000
39.88055 94.000
39.90050 84.000
39.92044 102.000
39.94039 96.000
39.96034 96.000
39.98028 109.000
40.00023 103.000
40.02018 83.000
40.04012 122.000
40.06007 94.000
40.08002 114.000
40.09997 99.000
40.11991 110.000
40.13986 100.000
40.15981 78.000
40.17975 109.000
40.19970 80.000
40.21965 95.000
40.23959 102.000
40.25954 88.000
40.27949 101.000
40.29943 83.000
40.31938 84.000
40.33933 91.000
40.35928 103.000
40.37922 91.000
40.39917 99.000
40.41912 122.000
40.43906 110.000
40.45901 77.000
40.47896 95.000
40.49890 95.000
40.51885 116.000
40.53880 101.000
40.55875 105.000
40.57869 94.000
40.59864 105.000
40.61859 104.000
40.63853 110.000
40.65848 84.000
40.67843 97.000
40.69837 94.000
40.71832 86.000
40.73827 107.000
40.75822 114.000
40.77816 106.000
40.79811 102.000
40.81806 122.000
40.83800 101.000
40.85795 105.000
40.87790 121.000
40.89784 100.000
40.91779 135.000
40.93774 124.000
40.95768 123.000
40.97763 123.000
40.99758 145.000
41.01753 130.000
41.03747 143.000
41.05742 144.000
41.07737 161.000
41.09731 166.000
41.11726 200.000
41.13721 235.000
41.15715 284.000
41.17710 288.000
41.19705 329.000
41.21700 397.000
41.23694 478.000
41.25689 493.000
41.27684 607.000
41.29678 671.000
41.31673 718.000
41.33668 741.000
41.35662 735.000
41.37657 678.000
41.39652 646.000
41.41646 592.000
41.43641 587.000
41.45636 521.000
41.47631 452.000
41.49625 422.000
41.51620 334.000
41.53615 299.000
41.55609 294.000
41.57604 257.000
41.59599 216.000
41.61593 201.000
41.63588 201.000
41.65583 171.000
41.67578 170.000
41.69572 127.000
41.71567 165.000
41.73562 154.000
41.75556 153.000
41.77551 122.000
41.79546 133.000
41.81540 135.000
41.83535 138.000
41.85530 111.000
41.87524 134.000
41.89519 129.000
41.91514 117.000
41.93509 110.000
41.95503 129.000
41.97498 126.000
41.99493 116.000
42.01487 108.000
42.03482 121.000
42.05477 127.000
42.07471 98.000
42.09466 142.000
42.11461 90.000
42.13456 110.000
42.15450 105.000
42.17445 126.000
42.19440 107.000
42.21434 97.000
42.23429 130.000
42.25424 113.000
42.27418 121.000
42.29413 114.000
42.31408 125.000
42.33403 98.000
42.35397 110.000
42.37392 108.000
42.39387 117.000
42.41381 120.000
42.43376 118.000
42.45371 105.000
42.47365 113.000
42.49360 105.000
42.51355 121.000
42.53349 125.000
42.55344 101.000
42.57339 108.000
42.59334 145.000
42.61328 124.000
42.63323 134.000
42.65318 116.000
42.67312 130.000
42.69307 115.000
42.71302 126.000
42.73296 132.000
42.75291 149.000
42.77286 133.000
42.79281 167.000
42.81275 180.000
42.83270 151.000
42.85265 187.000
42.87259 187.000
42.89254 188.000
42.91249 214.000
42.93243 254.000
42.95238 268.000
42.97233 259.000
42.99227 303.000
43.01222 317.000
43.03217 360.000
43.05212 405.000
43.07206 381.000
43.09201 445.000
43.11196 469.000
43.13190 450.000
43.15185 475.000
43.17180 462.000
43.19174 455.000
43.21169 460.000
43.23164 397.000
43.25159 380.000
43.27153 385.000
43.29148 367.000
43.31143 321.000
43.33137 304.000
43.35132 257.000
43.37127 230.000
43.39121 232.000
43.41116 197.000
43.43111 167.000
43.45105 180.000
43.47100 147.000
43.49095 144.000
43.51090 115.000
43.53084 151.000
43.55079 131.000
43.57074 118.000
43.59068 113.000
43.61063 120.000
43.63058 128.000
43.65052 97.000
43.67047 119.000
43.69042 122.000
43.71037 110.000
43.73031 109.000
43.75026 100.000
43.77021 107.000
43.79015 88.000
43.81010 91.000
43.83005 108.000
43.84999 120.000
43.86994 92.000
43.88989 94.000
43.90984 98.000
43.92978 92.000
43.94973 116.000
43.96968 113.000
43.98962 110.000
44.00957 115.000
44.02952 106.000
44.04946 98.000
44.06941 92.000
44.08936 97.000
44.10930 102.000
44.12925 93.000
44.14920 75.000
44.16915 94.000
44.18909 94.000
44.20904 86.000
44.22899 102.000
44.24893 85.000
44.26888 87.000
44.28883 98.000
44.30877 86.000
44.32872 108.000
44.34867 94.000
44.36862 102.000
44.38856 96.000
44.40851 83.000
44.42846 87.000
44.44840 94.000
44.46835 101.000
44.48830 89.000
44.50824 105.000
44.52819 100.000
44.54814 100.000
44.56808 91.000
44.58803 106.000
44.60798 99.000
44.62793 117.000
44.64787 123.000
44.66782 118.000
44.68777 112.000
44.70771 98.000
44.72766 94.000
44.74761 115.000
44.76755 111.000
44.78750 104.000
44.80745 108.000
44.82740 106.000
44.84734 97.000
44.86729 89.000
44.88724 102.000
44.90718 93.000
44.92713 113.000
44.94708 96.000
44.96702 89.000
44.98697 85.000
45.00692 99.000
45.02686 101.000
45.04681 95.000
45.06676 68.000
45.08671 92.000
45.10665 93.000
45.12660 85.000
45.14655 98.000
45.16649 95.000
45.18644 69.000
45.20639 83.000
45.22633 76.000
45.24628 100.000
45.26623 86.000
45.28618 75.000
45.30612 76.000
45.32607 77.000
45.34602 77.000
45.36596 100.000
45.38591 87.000
45.40586 79.000
45.42580 88.000
45.44575 84.000
45.46570 88.000
45.48565 71.000
45.50559 84.000
45.52554 97.000
45.54549 91.000
45.56543 100.000
45.58538 74.000
45.60533 73.000
45.62527 109.000
45.64522 73.000
45.66517 81.000
45.68511 94.000
45.70506 100.000
45.72501 103.000
45.74496 73.000
45.76490 78.000
45.78485 85.000
45.80480 71.000
45.82474 59.000
45.84469 81.000
45.86464 70.000
45.88458 93.000
45.90453 93.000
45.92448 72.000
45.94443 92.000
45.96437 102.000
45.98432 89.000
46.00427 99.000
46.02421 98.000
46.04416 76.000
46.06411 106.000
46.08405 82.000
46.10400 88.000
46.12395 90.000
46.14389 97.000
46.16384 78.000
46.18379 61.000
46.20374 81.000
46.22368 94.000
46.24363 76.000
46.26358 96.000
46.28352 100.000
46.30347 93.000
46.32342 86.000
46.34336 80.000
46.36331 100.000
46.38326 88.000
46.40321 77.000
46.42315 90.000
46.44310 80.000
46.46305 91.000
46.48299 73.000
46.50294 90.000
46.52289 83.000
46.54283 86.000
46.56278 93.000
46.58273 92.000
46.60267 80.000
46.62262 96.000
46.64257 90.000
46.66252 86.000
46.68246 81.000
46.70241 101.000
46.72236 74.000
46.74230 85.000
46.76225 89.000
46.78220 96.000
46.80214 99.000
46.82209 82.000
46.84204 91.000
46.86199 72.000
46.88193 73.000
46.90188 78.000
46.92183 68.000
46.94177 87.000
46.96172 74.000
46.98167 70.000
47.00161 82.000
47.02156 93.000
47.04151 92.000
47.06146 94.000
47.08140 89.000
47.10135 82.000
47.12130 106.000
47.14124 86.000
47.16119 95.000
47.18114 78.000
47.20108 91.000
47.22103 102.000
47.24098 109.000
47.26092 93.000
47.28087 82.000
47.30082 106.000
47.32077 80.000
47.34071 97.000
47.36066 97.000
47.38061 89.000
47.40055 89.000
47.42050 102.000
47.44045 89.000
47.46039 95.000
47.48034 88.000
47.50029 100.000
47.52024 83.000
47.54018 79.000
47.56013 97.000
47.58008 83.000
47.60002 76.000
47.61997 76.000
47.63992 93.000
47.65986 66.000
47.67981 94.000
47.69976 85.000
47.71970 80.000
47.73965 93.000
47.75960 81.000
47.77955 77.000
47.79949 86.000
47.81944 95.000
47.83939 99.000
47.85933 86.000
47.87928 83.000
47.89923 101.000
47.91917 86.000
47.93912 71.000
47.95907 91.000
47.97902 80.000
47.99896 78.000
48.01891 90.000
48.03886 68.000
48.05880 77.000
48.07875 78.000
48.09870 87.000
48.11864 87.000
48.13859 75.000
48.15854 92.000
48.17848 93.000
48.19843 97.000
48.21838 85.000
48.23833 75.000
48.25827 93.000
48.27822 91.000
48.29817 56.000
48.31811 80.000
48.33806 96.000
48.35801 73.000
48.37795 86.000
48.39790 93.000
48.41785 81.000
48.43780 89.000
48.45774 89.000
48.47769 63.000
48.49764 84.000
48.51758 93.000
48.53753 70.000
48.55748 92.000
48.57742 96.000
48.59737 92.000
48.61732 88.000
48.63726 92.000
48.65721 66.000
48.67716 94.000
48.69711 79.000
48.71705 71.000
48.73700 92.000
48.75695 97.000
48.77689 77.000
48.79684 81.000
48.81679 92.000
48.83673 80.000
48.85668 78.000
48.87663 85.000
48.89658 89.000
48.91652 95.000
48.93647 97.000
48.95642 86.000
48.97636 88.000
48.99631 92.000
49.01626 82.000
49.03620 94.000
49.05615 82.000
49.07610 90.000
49.09605 75.000
49.11599 86.000
49.13594 91.000
49.15589 85.000
49.17583 80.000
49.19578 88.000
49.21573 79.000
49.23567 101.000
49.25562 84.000
49.27557 91.000
49.29551 84.000
49.31546 84.000
49.33541 82.000
49.35536 91.000
49.37530 100.000
49.39525 84.000
49.41520 95.000
49.43514 82.000
49.45509 116.000
49.47504 86.000
49.49498 96.000
49.51493 80.000
49.53488 85.000
49.55483 91.000
49.57477 87.000
49.59472 75.000
49.61467 98.000
49.63461 95.000
49.65456 85.000
49.67451 100.000
49.69445 106.000
49.71440 79.000
49.73435 78.000
49.75429 86.000
49.77424 83.000
49.79419 79.000
49.81414 83.000
49.83408 88.000
49.85403 89.000
49.87398 83.000
49.89392 77.000
49.91387 77.000
49.93382 96.000
49.95376 79.000
49.97371 79.000
49.99366 93.000
50.01361 97.000
50.03355 74.000
50.05350 95.000
50.07345 81.000
50.09339 89.000
50.11334 85.000
50.13329 84.000
50.15323 81.000
50.17318 104.000
50.19313 85.000
50.21307 96.000
50.23302 79.000
50.25297 69.000
50.27292 84.000
50.29286 93.000
50.31281 77.000
50.33276 82.000
50.35270 88.000
50.37265 96.000
50.39260 85.000
50.41254 83.000
50.43249 77.000
50.45244 79.000
50.47239 83.000
50.49233 101.000
50.51228 65.000
50.53223 102.000
50.55217 81.000
50.57212 104.000
50.59207 69.000
50.61201 81.000
50.63196 63.000
50.65191 85.000
50.67186 95.000
50.69180 94.000
50.71175 86.000
50.73170 101.000
50.75164 77.000
50.77159 88.000
50.79154 78.000
50.81148 77.000
50.83143 97.000
50.85138 92.000
50.87132 74.000
50.89127 73.000
50.91122 76.000
50.93117 98.000
50.95111 92.000
50.97106 84.000
50.99101 76.000
51.01095 93.000
51.03090 91.000
51.05085 78.000
51.07079 96.000
51.09074 92.000
51.11069 83.000
51.13064 79.000
51.15058 72.000
51.17053 79.000
51.19048 84.000
51.21042 85.000
51.23037 76.000
51.25032 97.000
51.27026 81.000
51.29021 105.000
51.31016 92.000
51.33010 84.000
51.35005 95.000
51.37000 94.000
51.38995 79.000
51.40989 78.000
51.42984 80.000
51.44979 92.000
51.46973 92.000
51.48968 82.000
51.50963 78.000
51.52957 89.000
51.54952 82.000
51.56947 80.000
51.58942 90.000
51.60936 87.000
51.62931 72.000
51.64926 71.000
51.66920 79.000
51.68915 75.000
51.70910 70.000
51.72904 82.000
51.74899 70.000
51.76894 84.000
51.78888 99.000
51.80883 79.000
51.82878 70.000
51.84873 90.000
51.86867 78.000
51.88862 87.000
51.90857 75.000
51.92851 83.000
51.94846 80.000
51.96841 76.000
51.98835 93.000
52.00830 83.000
52.02825 94.000
52.04820 104.000
52.06814 92.000
52.08809 92.000
52.10804 90.000
52.12798 84.000
52.14793 68.000
52.16788 89.000
52.18782 78.000
52.20777 86.000
52.22772 78.000
52.24767 82.000
52.26761 104.000
52.28756 90.000
52.30751 93.000
52.32745 90.000
52.34740 115.000
52.36735 89.000
52.38729 80.000
52.40724 86.000
52.42719 84.000
52.44713 89.000
52.46708 90.000
52.48703 110.000
52.50698 102.000
52.52692 108.000
52.54687 92.000
52.56682 87.000
52.58676 100.000
52.60671 110.000
52.62666 126.000
52.64660 125.000
52.66655 112.000
52.68650 131.000
52.70645 151.000
52.72639 131.000
52.74634 132.000
52.76629 154.000
52.78623 162.000
52.80618 139.000
52.82613 164.000
52.84607 163.000
52.86602 150.000
52.88597 160.000
52.90591 162.000
52.92586 161.000
52.94581 129.000
52.96576 162.000
52.98570 150.000
53.00565 159.000
53.02560 126.000
53.04554 123.000
53.06549 128.000
53.08544 133.000
53.10538 133.000
53.12533 116.000
53.14528 126.000
53.16523 108.000
53.18517 99.000
53.20512 131.000
53.22507 107.000
53.24501 127.000
53.26496 103.000
53.28491 152.000
53.30485 137.000
53.32480 152.000
53.34475 148.000
53.36469 139.000
53.38464 180.000
53.40459 163.000
53.42454 166.000
53.44448 180.000
53.46443 203.000
53.48438 205.000
53.50432 221.000
53.52427 214.000
53.54422 223.000
53.56416 214.000
53.58411 209.000
53.60406 216.000
53.62401 228.000
53.64395 203.000
53.66390 212.000
53.68385 209.000
53.70379 177.000
53.72374 165.000
53.74369 149.000
53.76363 149.000
53.78358 135.000
53.80353 136.000
53.82348 133.000
53.84342 143.000
53.86337 109.000
53.88332 113.000
53.90326 108.000
53.92321 107.000
53.94316 102.000
53.96310 107.000
53.98305 102.000
54.00300 90.000
54.02294 85.000
54.04289 95.000
54.06284 109.000
54.08279 93.000
54.10273 105.000
54.12268 103.000
54.14263 93.000
54.16257 88.000
54.18252 95.000
54.20247 89.000
54.22241 99.000
54.24236 83.000
54.26231 97.000
54.28226 101.000
54.30220 92.000
54.32215 101.000
54.34210 80.000
54.36204 81.000
54.38199 88.000
54.40194 78.000
54.42188 92.000
54.44183 79.000
54.46178 83.000
54.48172 86.000
54.50167 92.000
54.52162 98.000
54.54157 94.000
54.56151 83.000
54.58146 95.000
54.60141 81.000
54.62135 89.000
54.64130 83.000
54.66125 94.000
54.68119 78.000
54.70114 85.000
54.72109 109.000
54.74104 90.000
54.76098 80.000
54.78093 91.000
54.80088 87.000
54.82082 88.000
54.84077 103.000
54.86072 95.000
54.88066 91.000
54.90061 90.000
54.92056 92.000
54.94050 95.000
54.96045 81.000
54.98040 92.000
55.00035 79.000
55.02029 105.000
55.04024 79.000
55.06019 102.000
55.08013 85.000
55.10008 97.000
55.12003 88.000
55.13997 79.000
55.15992 89.000
55.17987 84.000
55.19982 89.000
55.21976 93.000
55.23971 84.000
55.25966 85.000
55.27960 78.000
55.29955 104.000
55.31950 101.000
55.33944 104.000
55.35939 86.000
55.37934 94.000
55.39929 92.000
55.41923 74.000
55.43918 97.000
55.45913 96.000
55.47907 81.000
55.49902 79.000
55.51897 97.000
55.53891 89.000
55.55886 89.000
55.57881 91.000
55.59875 83.000
55.61870 89.000
55.63865 85.000
55.65860 85.000
55.67854 83.000
55.69849 83.000
55.71844 68.000
55.73838 87.000
55.75833 88.000
55.77828 93.000
55.79822 98.000
55.81817 87.000
55.83812 95.000
55.85807 81.000
55.87801 90.000
55.89796 76.000
55.91791 90.000
55.93785 76.000
55.95780 80.000
55.97775 101.000
55.99769 103.000
56.01764 93.000
56.03759 78.000
56.05753 105.000
56.07748 79.000
56.09743 89.000
56.11738 104.000
56.13732 100.000
56.15727 98.000
56.17722 91.000
56.19716 92.000
56.21711 101.000
56.23706 124.000
56.25700 104.000
56.27695 107.000
56.29690 98.000
56.31685 103.000
56.33679 112.000
56.35674 129.000
56.37669 97.000
56.39663 127.000
56.41658 114.000
56.43653 118.000
56.45647 116.000
56.47642 106.000
56.49637 114.000
56.51631 143.000
56.53626 124.000
56.55621 125.000
56.57616 129.000
56.59610 112.000
56.61605 123.000
56.63600 168.000
56.65594 158.000
56.67589 170.000
56.69584 163.000
56.71578 189.000
56.73573 210.000
56.75568 188.000
56.77563 229.000
56.79557 249.000
56.81552 252.000
56.83547 273.000
56.85541 306.000
56.87536 324.000
56.89531 340.000
56.91525 373.000
56.93520 353.000
56.95515 376.000
56.97510 433.000
56.99504 478.000
57.01499 485.000
57.03494 484.000
57.05488 539.000
57.07483 518.000
57.09478 536.000
57.11472 524.000
57.13467 498.000
57.15462 529.000
57.17456 467.000
57.19451 487.000
57.21446 465.000
57.23441 452.000
57.25435 445.000
57.27430 371.000
57.29425 393.000
57.31419 338.000
57.33414 333.000
57.35409 313.000
57.37403 250.000
57.39398 305.000
57.41393 289.000
57.43388 258.000
57.45382 252.000
57.47377 247.000
57.49372 223.000
57.51366 269.000
57.53361 223.000
57.55356 247.000
57.57350 227.000
57.59345 234.000
57.61340 202.000
57.63334 213.000
57.65329 196.000
57.67324 171.000
57.69319 194.000
57.71313 175.000
57.73308 148.000
57.75303 133.000
57.77297 144.000
57.79292 128.000
57.81287 134.000
57.83281 140.000
57.85276 115.000
57.87271 111.000
57.89266 115.000
57.91260 111.000
57.93255 112.000
57.95250 112.000
57.97244 110.000
57.99239 89.000
58.01234 124.000
58.03228 100.000
58.05223 82.000
58.07218 87.000
58.09212 113.000
58.11207 93.000
58.13202 105.000
58.15197 97.000
58.17191 108.000
58.19186 109.000
58.21181 98.000
58.23175 82.000
58.25170 89.000
58.27165 97.000
58.29159 97.000
58.31154 102.000
58.33149 88.000
58.35144 86.000
58.37138 86.000
58.39133 102.000
58.41128 92.000
58.43122 90.000
58.45117 107.000
58.47112 86.000
58.49106 77.000
58.51101 98.000
58.53096 95.000
58.55090 88.000
58.57085 87.000
58.59080 95.000
58.61075 90.000
58.63069 105.000
58.65064 97.000
58.67059 82.000
58.69053 83.000
58.71048 70.000
58.73043 92.000
58.75037 88.000
58.77032 99.000
58.79027 92.000
58.81022 78.000
58.83016 90.000
58.85011 87.000
58.87006 83.000
58.89000 91.000
58.90995 81.000
58.92990 90.000
58.94984 85.000
58.96979 84.000
58.98974 92.000
59.00969 91.000
59.02963 91.000
59.04958 98.000
59.06953 99.000
59.08947 87.000
59.10942 82.000
59.12937 92.000
59.14931 105.000
59.16926 93.000
59.18921 98.000
59.20915 103.000
59.22910 86.000
59.24905 74.000
59.26900 91.000
59.28894 98.000
59.30889 88.000
59.32884 61.000
59.34878 93.000
59.36873 73.000
59.38868 74.000
59.40862 82.000
59.42857 89.000
59.44852 88.000
59.46847 79.000
59.48841 103.000
59.50836 92.000
59.52831 99.000
59.54825 83.000
59.56820 86.000
59.58815 79.000
59.60809 77.000
59.62804 83.000
59.64799 92.000
59.66793 88.000
59.68788 110.000
59.70783 87.000
59.72778 89.000
59.74772 105.000
59.76767 90.000
59.78762 101.000
59.80756 89.000
59.82751 94.000
59.84746 81.000
59.86740 83.000
59.88735 98.000
59.90730 88.000
59.92725 95.000
59.94719 81.000
59.96714 99.000
59.98709 85.000
60.00703 101.000
60.02698 80.000
60.04693 95.000
60.06687 100.000
60.08682 87.000
60.10677 87.000
60.12671 81.000
60.14666 79.000
60.16661 97.000
60.18656 88.000
60.20650 82.000
60.22645 82.000
60.24640 80.000
60.26634 82.000
60.28629 104.000
60.30624 78.000
60.32618 74.000
60.34613 110.000
60.36608 90.000
60.38603 99.000
60.40597 72.000
60.42592 98.000
60.44587 102.000
60.46581 97.000
60.48576 101.000
60.50571 104.000
60.52565 83.000
60.54560 87.000
60.56555 87.000
60.58550 87.000
60.60544 97.000
60.62539 108.000
60.64534 90.000
60.66528 114.000
60.68523 98.000
60.70518 88.000
60.72512 112.000
60.74507 98.000
60.76502 124.000
60.78496 96.000
60.80491 107.000
60.82486 89.000
60.84481 95.000
60.86475 94.000
60.88470 106.000
60.90465 87.000
60.92459 95.000
60.94454 88.000
60.96449 76.000
60.98443 109.000
61.00438 118.000
61.02433 111.000
61.04428 95.000
61.06422 108.000
61.08417 95.000
61.10412 96.000
61.12406 107.000
61.14401 101.000
61.16396 94.000
61.18390 93.000
61.20385 96.000
61.22380 93.000
61.24374 83.000
61.26369 110.000
61.28364 115.000
61.30359 103.000
61.32353 108.000
61.34348 112.000
61.36343 103.000
61.38337 96.000
61.40332 97.000
61.42327 96.000
61.44321 102.000
61.46316 112.000
61.48311 103.000
61.50306 88.000
61.52300 107.000
61.54295 112.000
61.56290 102.000
61.58284 111.000
61.60279 103.000
61.62274 110.000
61.64268 105.000
61.66263 104.000
61.68258 99.000
61.70252 137.000
61.72247 120.000
61.74242 113.000
61.76237 111.000
61.78231 127.000
61.80226 127.000
61.82221 141.000
61.84215 143.000
61.86210 114.000
61.88205 133.000
61.90199 131.000
61.92194 148.000
61.94189 136.000
61.96184 174.000
61.98178 178.000
62.00173 171.000
62.02168 209.000
62.04162 201.000
62.06157 192.000
62.08152 204.000
62.10146 191.000
62.12141 193.000
62.14136 206.000
62.16131 219.000
62.18125 213.000
62.20120 220.000
62.22115 237.000
62.24109 245.000
62.26104 250.000
62.28099 250.000
62.30093 261.000
62.32088 280.000
62.34083 281.000
62.36077 319.000
62.38072 314.000
62.40067 327.000
62.42062 334.000
62.44056 376.000
62.46051 446.000
62.48046 418.000
62.50040 480.000
62.52035 451.000
62.54030 508.000
62.56024 541.000
62.58019 564.000
62.60014 577.000
62.62009 571.000
62.64003 667.000
62.65998 642.000
62.67993 673.000
62.69987 667.000
62.71982 666.000
62.73977 653.000
62.75971 728.000
62.77966 616.000
62.79961 575.000
62.81955 581.000
62.83950 524.000
62.85945 497.000
62.87940 471.000
62.89934 440.000
62.91929 404.000
62.93924 370.000
62.95918 350.000
62.97913 328.000
62.99908 301.000
63.01902 254.000
63.03897 245.000
63.05892 217.000
63.07887 198.000
63.09881 159.000
63.11876 183.000
63.13871 146.000
63.15865 179.000
63.17860 162.000
63.19855 153.000
63.21849 116.000
63.23844 131.000
63.25839 140.000
63.27833 123.000
63.29828 121.000
63.31823 137.000
63.33818 94.000
63.35812 136.000
63.37807 123.000
63.39802 109.000
63.41796 109.000
63.43791 106.000
63.45786 113.000
63.47780 101.000
63.49775 106.000
63.51770 122.000
63.53765 103.000
63.55759 99.000
63.57754 94.000
63.59749 115.000
63.61743 100.000
63.63738 107.000
63.65733 90.000
63.67727 111.000
63.69722 100.000
63.71717 107.000
63.73712 105.000
63.75706 83.000
63.77701 95.000
63.79696 106.000
63.81690 99.000
63.83685 84.000
63.85680 94.000
63.87674 85.000
63.89669 100.000
63.91664 109.000
63.93658 100.000
63.95653 94.000
63.97648 99.000
63.99643 90.000
64.01637 92.000
64.03632 99.000
64.05627 95.000
64.07621 101.000
64.09616 98.000
64.11611 108.000
64.13605 92.000
64.15600 94.000
64.17595 86.000
64.19590 96.000
64.21584 107.000
64.23579 107.000
64.25574 104.000
64.27568 83.000
64.29563 93.000
64.31558 95.000
64.33552 76.000
64.35547 114.000
64.37542 82.000
64.39536 87.000
64.41531 99.000
64.43526 96.000
64.45521 97.000
64.47515 81.000
64.49510 88.000
64.51505 95.000
64.53499 98.000
64.55494 108.000
64.57489 120.000
64.59483 124.000
64.61478 106.000
64.63473 102.000
64.65468 116.000
64.67462 139.000
64.69457 115.000
64.71452 112.000
64.73446 103.000
64.75441 116.000
64.77436 107.000
64.79430 114.000
64.81425 135.000
64.83420 110.000
64.85414 136.000
64.87409 113.000
64.89404 121.000
64.91399 115.000
64.93393 115.000
64.95388 109.000
64.97383 111.000
64.99377 112.000
65.01372 121.000
65.03367 106.000
65.05361 117.000
65.07356 112.000
65.09351 118.000
65.11346 91.000
65.13340 92.000
65.15335 112.000
65.17330 98.000
65.19324 100.000
65.21319 95.000
65.23314 121.000
65.25308 105.000
65.27303 83.000
65.29298 113.000
65.31293 92.000
65.33287 104.000
65.35282 81.000
65.37277 89.000
65.39271 104.000
65.41266 94.000
65.43261 90.000
65.45255 112.000
65.47250 93.000
65.49245 106.000
65.51239 85.000
65.53234 100.000
65.55229 86.000
65.57224 112.000
65.59218 85.000
65.61213 103.000
65.63208 105.000
65.65202 90.000
65.67197 91.000
65.69192 99.000
65.71186 107.000
65.73181 99.000
65.75176 97.000
65.77171 100.000
65.79165 107.000
65.81160 103.000
65.83155 103.000
65.85149 99.000
65.87144 116.000
65.89139 87.000
65.91133 111.000
65.93128 93.000
65.95123 101.000
65.97117 103.000
65.99112 106.000
66.01107 96.000
66.03102 90.000
66.05096 105.000
66.07091 91.000
66.09086 91.000
66.11080 122.000
66.13075 99.000
66.15070 88.000
66.17064 104.000
66.19059 92.000
66.21054 88.000
66.23049 96.000
66.25043 73.000
66.27038 76.000
66.29033 91.000
66.31027 81.000
66.33022 93.000
66.35017 81.000
66.37011 95.000
66.39006 83.000
66.41001 81.000
66.42995 82.000
66.44990 86.000
66.46985 71.000
66.48980 74.000
66.50974 89.000
66.52969 84.000
66.54964 80.000
66.56958 69.000
66.58953 84.000
66.60948 91.000
66.62942 88.000
66.64937 97.000
66.66932 86.000
66.68927 70.000
66.70921 76.000
66.72916 97.000
66.74911 72.000
66.76905 78.000
66.78900 74.000
66.80895 89.000
66.82889 69.000
66.84884 83.000
66.86879 80.000
66.88874 98.000
66.90868 92.000
66.92863 72.000
66.94858 78.000
66.96852 80.000
66.98847 85.000
67.00842 78.000
67.02836 75.000
67.04831 70.000
67.06826 85.000
67.08820 69.000
67.10815 85.000
67.12810 79.000
67.14805 71.000
67.16799 72.000
67.18794 93.000
67.20789 74.000
67.22783 83.000
67.24778 94.000
67.26773 97.000
67.28767 83.000
67.30762 75.000
67.32757 93.000
67.34752 90.000
67.36746 79.000
67.38741 91.000
67.40736 90.000
67.42730 99.000
67.44725 80.000
67.46720 79.000
67.48714 99.000
67.50709 99.000
67.52704 99.000
67.54698 98.000
67.56693 90.000
67.58688 99.000
67.60683 95.000
67.62677 92.000
67.64672 102.000
67.66667 92.000
67.68661 99.000
67.70656 78.000
67.72651 97.000
67.74645 85.000
67.76640 99.000
67.78635 109.000
67.80630 78.000
67.82624 113.000
67.84619 107.000
67.86614 92.000
67.88608 110.000
67.90603 121.000
67.92598 96.000
67.94592 96.000
67.96587 108.000
67.98582 107.000
68.00576 106.000
68.02571 122.000
68.04566 100.000
68.06561 105.000
68.08555 104.000
68.10550 89.000
68.12545 107.000
68.14539 94.000
68.16534 88.000
68.18529 93.000
68.20523 89.000
68.22518 87.000
68.24513 100.000
68.26508 79.000
68.28502 79.000
68.30497 99.000
68.32492 87.000
68.34486 84.000
68.36481 91.000
68.38476 88.000
68.40470 99.000
68.42465 94.000
68.44460 93.000
68.46455 82.000
68.48449 93.000
68.50444 75.000
68.52439 84.000
68.54433 87.000
68.56428 87.000
68.58423 78.000
68.60417 87.000
68.62412 98.000
68.64407 73.000
68.66401 86.000
68.68396 91.000
68.70391 73.000
68.72386 92.000
68.74380 70.000
68.76375 77.000
68.78370 99.000
68.80364 79.000
68.82359 67.000
68.84354 83.000
68.86348 98.000
68.88343 95.000
68.90338 76.000
68.92333 91.000
68.94327 93.000
68.96322 89.000
68.98317 92.000
69.00311 89.000
69.02306 91.000
69.04301 73.000
69.06295 75.000
69.08290 85.000
69.10285 87.000
69.12279 94.000
69.14274 93.000
69.16269 73.000
69.18264 88.000
69.20258 101.000
69.22253 84.000
69.24248 87.000
69.26242 87.000
69.28237 72.000
69.30232 102.000
69.32226 91.000
69.34221 91.000
69.36216 81.000
69.38211 81.000
69.40205 79.000
69.42200 95.000
69.44195 74.000
69.46189 81.000
69.48184 76.000
69.50179 74.000
69.52173 91.000
69.54168 84.000
69.56163 83.000
69.58157 88.000
69.60152 77.000
69.62147 79.000
69.64142 71.000
69.66136 79.000
69.68131 65.000
69.70126 88.000
69.72120 78.000
69.74115 82.000
69.76110 95.000
69.78104 89.000
69.80099 70.000
69.82094 86.000
69.84089 84.000
69.86083 83.000
69.88078 58.000
69.90073 80.000
69.92067 99.000
69.94062 82.000
69.96057 72.000
69.98051 101.000
70.00046 66.000
70.02041 73.000
70.04035 80.000
70.06030 70.000
70.08025 79.000
70.10020 81.000
70.12014 68.000
70.14009 72.000
70.16004 94.000
70.17998 71.000
70.19993 98.000
70.21988 83.000
70.23982 84.000
70.25977 79.000
70.27972 84.000
70.29967 82.000
70.31961 88.000
70.33956 91.000
70.35951 68.000
70.37945 92.000
70.39940 62.000
70.41935 90.000
70.43929 84.000
70.45924 85.000
70.47919 75.000
70.49914 93.000
70.51908 103.000
70.53903 78.000
70.55898 73.000
70.57892 79.000
70.59887 94.000
70.61882 77.000
70.63876 75.000
70.65871 88.000
70.67866 81.000
70.69860 79.000
70.71855 90.000
70.73850 98.000
70.75845 95.000
70.77839 88.000
70.79834 96.000
70.81829 87.000
70.83823 93.000
70.85818 92.000
70.87813 106.000
70.89807 93.000
70.91802 102.000
70.93797 103.000
70.95792 105.000
70.97786 99.000
70.99781 125.000
71.01776 103.000
71.03770 103.000
71.05765 101.000
71.07760 103.000
71.09754 122.000
71.11749 105.000
71.13744 119.000
71.15738 107.000
71.17733 94.000
71.19728 108.000
71.21723 115.000
71.23717 94.000
71.25712 118.000
71.27707 117.000
71.29701 115.000
71.31696 128.000
71.33691 110.000
71.35685 104.000
71.37680 104.000
71.39675 99.000
71.41670 101.000
71.43664 107.000
71.45659 103.000
71.47654 98.000
71.49648 98.000
71.51643 76.000
71.53638 73.000
71.55632 85.000
71.57627 115.000
71.59622 100.000
71.61616 92.000
71.63611 89.000
71.65606 80.000
71.67601 90.000
71.69595 100.000
71.71590 99.000
71.73585 75.000
71.75579 93.000
71.77574 98.000
71.79569 75.000
71.81563 87.000
71.83558 86.000
71.85553 86.000
71.87548 94.000
71.89542 90.000
71.91537 83.000
71.93532 95.000
71.95526 103.000
71.97521 82.000
71.99516 99.000
72.01510 95.000
72.03505 103.000
72.05500 114.000
72.07495 88.000
72.09489 109.000
72.11484 102.000
72.13479 97.000
72.15473 121.000
72.17468 88.000
72.19463 112.000
72.21457 125.000
72.23452 117.000
72.25447 98.000
72.27441 89.000
72.29436 121.000
72.31431 103.000
72.33426 102.000
72.35420 96.000
72.37415 114.000
72.39410 131.000
72.41404 107.000
72.43399 100.000
72.45394 88.000
72.47388 104.000
72.49383 89.000
72.51378 88.000
72.53373 83.000
72.55367 93.000
72.57362 102.000
72.59357 100.000
72.61351 116.000
72.63346 88.000
72.65341 76.000
72.67335 96.000
72.69330 91.000
72.71325 90.000
72.73319 90.000
72.75314 87.000
72.77309 67.000
72.79304 100.000
72.81298 88.000
72.83293 110.000
72.85288 91.000
72.87282 83.000
72.89277 73.000
72.91272 91.000
72.93266 63.000
72.95261 76.000
72.97256 88.000
72.99251 95.000
73.01245 95.000
73.03240 98.000
73.05235 77.000
73.07229 88.000
73.09224 82.000
73.11219 90.000
73.13213 88.000
73.15208 107.000
73.17203 75.000
73.19197 96.000
73.21192 99.000
73.23187 85.000
73.25182 78.000
73.27176 84.000
73.29171 97.000
73.31166 84.000
73.33160 87.000
73.35155 106.000
73.37150 99.000
73.39144 106.000
73.41139 105.000
73.43134 99.000
73.45129 89.000
73.47123 108.000
73.49118 86.000
73.51113 95.000
73.53107 103.000
73.55102 113.000
73.57097 122.000
73.59091 133.000
73.61086 127.000
73.63081 114.000
73.65076 103.000
73.67070 113.000
73.69065 121.000
73.71060 117.000
73.73054 108.000
73.75049 134.000
73.77044 132.000
73.79038 146.000
73.81033 112.000
73.83028 124.000
73.85022 108.000
73.87017 103.000
73.89012 136.000
73.91007 149.000
73.93001 134.000
73.94996 136.000
73.96991 139.000
73.98985 163.000
74.00980 154.000
74.02975 164.000
74.04969 184.000
74.06964 180.000
74.08959 192.000
74.10954 162.000
74.12948 191.000
74.14943 164.000
74.16938 186.000
74.18932 143.000
74.20927 178.000
74.22922 209.000
74.24916 191.000
74.26911 174.000
74.28906 194.000
74.30900 162.000
74.32895 161.000
74.34890 136.000
74.36885 157.000
74.38879 175.000
74.40874 161.000
74.42869 141.000
74.44863 151.000
74.46858 156.000
74.48853 146.000
74.50847 132.000
74.52842 129.000
74.54837 136.000
74.56832 115.000
74.58826 125.000
74.60821 109.000
74.62816 117.000
74.64810 120.000
74.66805 99.000
74.68800 118.000
74.70794 85.000
74.72789 102.000
74.74784 113.000
74.76778 111.000
74.78773 105.000
74.80768 99.000
74.82763 106.000
74.84757 114.000
74.86752 101.000
74.88747 105.000
74.90741 102.000
74.92736 100.000
74.94731 103.000
74.96725 109.000
74.98720 106.000
75.00715 127.000
75.02710 117.000
75.04704 118.000
75.06699 113.000
75.08694 98.000
75.10688 102.000
75.12683 113.000
75.14678 136.000
75.16672 117.000
75.18667 128.000
75.20662 112.000
75.22657 132.000
75.24651 120.000
75.26646 130.000
75.28641 132.000
75.30635 120.000
75.32630 122.000
75.34625 103.000
75.36619 108.000
75.38614 108.000
75.40609 121.000
75.42603 121.000
75.44598 102.000
75.46593 123.000
75.48588 96.000
75.50582 88.000
75.52577 106.000
75.54572 82.000
75.56566 97.000
75.58561 106.000
75.60556 85.000
75.62550 80.000
75.64545 78.000
75.66540 92.000
75.68535 85.000
75.70529 86.000
75.72524 79.000
75.74519 85.000
75.76513 92.000
75.78508 81.000
75.80503 83.000
75.82497 78.000
75.84492 91.000
75.86487 85.000
75.88481 78.000
75.90476 83.000
75.92471 74.000
75.94466 77.000
75.96460 86.000
75.98455 90.000
76.00450 85.000
76.02444 88.000
76.04439 70.000
76.06434 74.000
76.08428 81.000
76.10423 75.000
76.12418 94.000
76.14413 89.000
76.16407 96.000
76.18402 81.000
76.20397 84.000
76.22391 100.000
76.24386 76.000
76.26381 95.000
76.28375 72.000
76.30370 84.000
76.32365 74.000
76.34359 80.000
76.36354 84.000
76.38349 87.000
76.40344 82.000
76.42338 82.000
76.44333 83.000
76.46328 71.000
76.48322 66.000
76.50317 84.000
76.52312 86.000
76.54306 70.000
76.56301 68.000
76.58296 76.000
76.60291 72.000
76.62285 67.000
76.64280 88.000
76.66275 81.000
76.68269 81.000
76.70264 79.000
76.72259 80.000
76.74253 72.000
76.76248 69.000
76.78243 83.000
76.80238 78.000
76.82232 71.000
76.84227 90.000
76.86222 76.000
76.88216 86.000
76.90211 84.000
76.92206 84.000
76.94200 78.000
76.96195 98.000
76.98190 79.000
77.00184 82.000
77.02179 80.000
77.04174 72.000
77.06169 85.000
77.08163 84.000
77.10158 93.000
77.12153 91.000
77.14147 113.000
77.16142 110.000
77.18137 103.000
77.20131 85.000
77.22126 114.000
77.24121 81.000
77.26116 95.000
77.28110 100.000
77.30105 105.000
77.32100 94.000
77.34094 119.000
77.36089 109.000
77.38084 105.000
77.40078 100.000
77.42073 104.000
77.44068 105.000
77.46062 99.000
77.48057 119.000
77.50052 91.000
77.52047 91.000
77.54041 101.000
77.56036 97.000
77.58031 123.000
77.60025 113.000
77.62020 90.000
77.64015 100.000
77.66009 91.000
77.68004 82.000
77.69999 83.000
77.71994 98.000
77.73988 106.000
77.75983 99.000
77.77978 99.000
77.79972 86.000
77.81967 95.000
77.83962 82.000
77.85956 81.000
77.87951 92.000
77.89946 91.000
77.91940 89.000
77.93935 64.000
77.95930 89.000
77.97925 90.000
77.99919 83.000
78.01914 92.000
78.03909 89.000
78.05903 102.000
78.07898 98.000
78.09893 92.000
78.11887 71.000
78.13882 87.000
78.15877 90.000
78.17872 75.000
78.19866 79.000
78.21861 67.000
78.23856 61.000
78.25850 93.000
78.27845 76.000
78.29840 79.000
78.31834 92.000
78.33829 98.000
78.35824 85.000
78.37819 96.000
78.39813 83.000
78.41808 75.000
78.43803 93.000
78.45797 80.000
78.47792 75.000
78.49787 79.000
78.51781 77.000
78.53776 100.000
78.55771 76.000
78.57765 83.000
78.59760 76.000
78.61755 72.000
78.63750 84.000
78.65744 89.000
78.67739 96.000
78.69734 78.000
78.71728 100.000
78.73723 94.000
78.75718 95.000
78.77712 74.000
78.79707 90.000
78.81702 90.000
78.83697 100.000
78.85691 72.000
78.87686 99.000
78.89681 95.000
78.91675 94.000
78.93670 112.000
78.95665 96.000
78.97659 100.000
78.99654 99.000
79.01649 110.000
79.03643 112.000
79.05638 122.000
79.07633 110.000
79.09628 103.000
79.11622 94.000
79.13617 100.000
79.15612 107.000
79.17606 107.000
79.19601 107.000
79.21596 109.000
79.23590 109.000
79.25585 104.000
79.27580 108.000
79.29575 89.000
79.31569 114.000
79.33564 107.000
79.35559 93.000
79.37553 90.000
79.39548 103.000
79.41543 89.000
79.43537 86.000
79.45532 113.000
79.47527 74.000
79.49521 107.000
79.51516 66.000
79.53511 85.000
79.55506 86.000
79.57500 116.000
79.59495 76.000
79.61490 77.000
79.63484 76.000
79.65479 80.000
79.67474 85.000
79.69468 101.000
79.71463 75.000
79.73458 84.000
79.75453 80.000
79.77447 84.000
79.79442 89.000
79.81437 66.000
79.83431 83.000
79.85426 70.000
79.87421 81.000
79.89415 86.000
79.91410 67.000
79.93405 78.000
79.95399 85.000
79.97394 97.000
79.99389 76.000
80.01384 74.000
80.03378 80.000
80.05373 82.000
80.07368 86.000
80.09362 75.000
80.11357 76.000
80.13352 90.000
80.15346 62.000
80.17341 95.000
80.19336 65.000
80.21331 78.000
80.23325 76.000
80.25320 73.000
80.27315 85.000
80.29309 65.000
80.31304 87.000
80.33299 91.000
80.35293 85.000
80.37288 74.000
80.39283 86.000
80.41278 66.000
80.43272 68.000
80.45267 67.000
80.47262 77.000
80.49256 83.000
80.51251 76.000
80.53246 71.000
80.55240 82.000
80.57235 75.000
80.59230 78.000
80.61224 67.000
80.63219 97.000
80.65214 78.000
80.67209 72.000
80.69203 89.000
80.71198 79.000
80.73193 81.000
80.75187 63.000
80.77182 84.000
80.79177 76.000
80.81171 89.000
80.83166 69.000
80.85161 82.000
80.87156 73.000
80.89150 75.000
80.91145 71.000
80.93140 61.000
80.95134 76.000
80.97129 80.000
80.99124 84.000
81.01118 70.000
81.03113 73.000
81.05108 67.000
81.07102 69.000
81.09097 96.000
81.11092 78.000
81.13087 77.000
81.15081 74.000
81.17076 68.000
81.19071 80.000
81.21065 89.000
81.23060 73.000
81.25055 82.000
81.27049 68.000
81.29044 81.000
81.31039 65.000
81.33034 72.000
81.35028 71.000
81.37023 79.000
81.39018 68.000
81.41012 92.000
81.43007 86.000
81.45002 82.000
81.46996 63.000
81.48991 64.000
81.50986 70.000
81.52980 76.000
81.54975 79.000
81.56970 67.000
81.58965 65.000
81.60959 87.000
81.62954 83.000
81.64949 81.000
81.66943 83.000
81.68938 84.000
81.70933 93.000
81.72927 76.000
81.74922 72.000
81.76917 73.000
81.78912 66.000
81.80906 76.000
81.82901 82.000
81.84896 76.000
81.86890 100.000
81.88885 76.000
81.90880 81.000
81.92874 89.000
81.94869 74.000
81.96864 100.000
81.98859 75.000
82.00853 79.000
82.02848 80.000
82.04843 82.000
82.06837 71.000
82.08832 77.000
82.10827 82.000
82.12821 88.000
82.14816 89.000
82.16811 87.000
82.18805 90.000
82.20800 88.000
82.22795 84.000
82.24790 87.000
82.26784 84.000
82.28779 81.000
82.30774 75.000
82.32768 79.000
82.34763 78.000
82.36758 70.000
82.38752 93.000
82.40747 82.000
82.42742 79.000
82.44737 69.000
82.46731 73.000
82.48726 73.000
82.50721 83.000
82.52715 83.000
82.54710 74.000
82.56705 89.000
82.58699 71.000
82.60694 75.000
82.62689 71.000
82.64683 77.000
82.66678 68.000
82.68673 77.000
82.70668 63.000
82.72662 80.000
82.74657 87.000
82.76652 68.000
82.78646 88.000
82.80641 63.000
82.82636 89.000
82.84630 60.000
82.86625 95.000
82.88620 77.000
82.90615 80.000
82.92609 70.000
82.94604 75.000
82.96599 70.000
82.98593 83.000
83.00588 74.000
83.02583 96.000
83.04577 94.000
83.06572 70.000
83.08567 87.000
83.10561 60.000
83.12556 68.000
83.14551 66.000
83.16546 79.000
83.18540 77.000
83.20535 68.000
83.22530 69.000
83.24524 80.000
83.26519 68.000
83.28514 76.000
83.30508 73.000
83.32503 80.000
83.34498 65.000
83.36493 74.000
83.38487 74.000
83.40482 84.000
83.42477 91.000
83.44471 93.000
83.46466 84.000
83.48461 89.000
83.50455 62.000
83.52450 90.000
83.54445 81.000
83.56440 82.000
83.58434 78.000
83.60429 65.000
83.62424 72.000
83.64418 78.000
83.66413 76.000
83.68408 66.000
83.70402 81.000
83.72397 70.000
83.74392 90.000
83.76386 79.000
83.78381 81.000
83.80376 75.000
83.82371 79.000
83.84365 79.000
83.86360 85.000
83.88355 77.000
83.90349 84.000
83.92344 87.000
83.94339 61.000
83.96333 71.000
83.98328 84.000
84.00323 94.000
84.02318 64.000
84.04312 81.000
84.06307 71.000
84.08302 85.000
84.10296 80.000
84.12291 80.000
84.14286 77.000
84.16280 80.000
84.18275 80.000
84.20270 88.000
84.22264 93.000
84.24259 77.000
84.26254 81.000
84.28249 82.000
84.30243 66.000
84.32238 62.000
84.34233 75.000
84.36227 87.000
84.38222 72.000
84.40217 73.000
84.42211 71.000
84.44206 70.000
84.46201 80.000
84.48196 76.000
84.50190 79.000
84.52185 82.000
84.54180 70.000
84.56174 90.000
84.58169 88.000
84.60164 80.000
84.62158 62.000
84.64153 88.000
84.66148 81.000
84.68142 78.000
84.70137 63.000
84.72132 81.000
84.74127 74.000
84.76121 74.000
84.78116 84.000
84.80111 75.000
84.82105 81.000
84.84100 76.000
84.86095 73.000
84.88089 82.000
84.90084 84.000
84.92079 77.000
84.94074 94.000
84.96068 76.000
84.98063 83.000
85.00058 83.000
85.02052 75.000
85.04047 68.000
85.06042 73.000
85.08036 74.000
85.10031 67.000
85.12026 69.000
85.14021 73.000
85.16015 79.000
85.18010 92.000
85.20005 92.000
85.21999 77.000
85.23994 65.000
85.25989 71.000
85.27983 87.000
85.29978 85.000
85.31973 78.000
85.33967 77.000
85.35962 83.000
85.37957 73.000
85.39952 87.000
85.41946 81.000
85.43941 83.000
85.45936 93.000
85.47930 87.000
85.49925 63.000
85.51920 68.000
85.53914 73.000
85.55909 82.000
85.57904 77.000
85.59899 89.000
85.61893 92.000
85.63888 72.000
85.65883 83.000
85.67877 92.000
85.69872 79.000
85.71867 79.000
85.73861 84.000
85.75856 75.000
85.77851 95.000
85.79845 71.000
85.81840 79.000
85.83835 99.000
85.85830 78.000
85.87824 93.000
85.89819 89.000
85.91814 81.000
85.93808 84.000
85.95803 104.000
85.97798 100.000
85.99792 95.000
86.01787 82.000
86.03782 91.000
86.05777 78.000
86.07771 90.000
86.09766 97.000
86.11761 89.000
86.13755 74.000
86.15750 85.000
86.17745 81.000
86.19739 90.000
86.21734 83.000
86.23729 76.000
86.25723 85.000
86.27718 84.000
86.29713 98.000
86.31708 90.000
86.33702 81.000
86.35697 99.000
86.37692 83.000
86.39686 74.000
86.41681 81.000
86.43676 94.000
86.45670 98.000
86.47665 94.000
86.49660 81.000
86.51655 83.000
86.53649 94.000
86.55644 89.000
86.57639 88.000
86.59633 93.000
86.61628 96.000
86.63623 83.000
86.65617 92.000
86.67612 104.000
86.69607 99.000
86.71602 97.000
86.73596 85.000
86.75591 105.000
86.77586 85.000
86.79580 108.000
86.81575 100.000
86.83570 131.000
86.85564 105.000
86.87559 97.000
86.89554 110.000
86.91548 100.000
86.93543 101.000
86.95538 110.000
86.97533 99.000
86.99527 107.000
87.01522 97.000
87.03517 96.000
87.05511 112.000
87.07506 111.000
87.09501 108.000
87.11495 110.000
87.13490 125.000
87.15485 88.000
87.17480 114.000
87.19474 109.000
87.21469 122.000
87.23464 90.000
87.25458 85.000
87.27453 93.000
87.29448 85.000
87.31442 79.000
87.33437 89.000
87.35432 101.000
87.37426 86.000
87.39421 90.000
87.41416 94.000
87.43411 86.000
87.45405 83.000
87.47400 84.000
87.49395 90.000
87.51389 60.000
87.53384 66.000
87.55379 97.000
87.57373 84.000
87.59368 89.000
87.61363 83.000
87.63358 67.000
87.65352 79.000
87.67347 91.000
87.69342 66.000
87.71336 77.000
87.73331 70.000
87.75326 79.000
87.77320 88.000
87.79315 79.000
87.81310 69.000
87.83304 74.000
87.85299 83.000
87.87294 87.000
87.89289 67.000
87.91283 83.000
87.93278 73.000
87.95273 79.000
87.97267 69.000
87.99262 73.000
88.01257 91.000
88.03251 75.000
88.05246 77.000
88.07241 78.000
88.09236 72.000
88.11230 67.000
88.13225 74.000
88.15220 58.000
88.17214 84.000
88.19209 95.000
88.21204 91.000
88.23198 89.000
88.25193 78.000
88.27188 97.000
88.29183 72.000
88.31177 97.000
88.33172 71.000
88.35167 84.000
88.37161 79.000
88.39156 75.000
88.41151 75.000
88.43145 77.000
88.45140 75.000
88.47135 86.000
88.49129 71.000
88.51124 70.000
88.53119 66.000
88.55114 83.000
88.57108 80.000
88.59103 71.000
88.61098 72.000
88.63092 101.000
88.65087 90.000
88.67082 84.000
88.69076 89.000
88.71071 74.000
88.73066 80.000
88.75061 85.000
88.77055 75.000
88.79050 92.000
88.81045 76.000
88.83039 86.000
88.85034 93.000
88.87029 81.000
88.89023 83.000
88.91018 99.000
88.93013 92.000
88.95007 100.000
88.97002 72.000
88.98997 106.000
89.00992 95.000
89.02986 85.000
89.04981 72.000
89.06976 94.000
89.08970 96.000
89.10965 102.000
89.12960 87.000
89.14954 96.000
89.16949 94.000
89.18944 85.000
89.20939 111.000
89.22933 96.000
89.24928 93.000
89.26923 93.000
89.28917 98.000
89.30912 99.000
89.32907 116.000
89.34901 100.000
89.36896 114.000
89.38891 99.000
89.40885 111.000
89.42880 111.000
89.44875 102.000
89.46870 122.000
89.48864 119.000
89.50859 140.000
89.52854 135.000
89.54848 144.000
89.56843 154.000
89.58838 158.000
89.60832 145.000
89.62827 158.000
89.64822 194.000
89.66817 176.000
89.68811 150.000
89.70806 173.000
89.72801 173.000
89.74795 196.000
89.76790 174.000
89.78785 204.000
89.80779 178.000
89.82774 194.000
89.84769 185.000
89.86764 207.000
89.88758 206.000
89.90753 197.000
89.92748 196.000
89.94742 203.000
89.96737 208.000
89.98732 215.000
90.00726 189.000
