10.00000 166.000
10.01995 157.000
10.03989 156.000
10.05984 206.000
10.07979 158.000
10.09973 186.000
10.11968 167.000
10.13963 159.000
10.15958 180.000
10.17952 177.000
10.19947 169.000
10.21942 165.000
10.23936 159.000
10.25931 166.000
10.27926 153.000
10.29920 166.000
10.31915 163.000
10.33910 146.000
10.35905 176.000
10.37899 204.000
10.39894 155.000
10.41889 166.000
10.43883 181.000
10.45878 180.000
10.47873 173.000
10.49867 158.000
10.51862 160.000
10.53857 166.000
10.55851 202.000
10.57846 156.000
10.59841 168.000
10.61836 185.000
10.63830 179.000
10.65825 166.000
10.67820 184.000
10.69814 186.000
10.71809 169.000
10.73804 162.000
10.75798 177.000
10.77793 154.000
10.79788 181.000
10.81783 162.000
10.83777 147.000
10.85772 176.000
10.87767 164.000
10.89761 165.000
10.91756 193.000
10.93751 180.000
10.95745 179.000
10.97740 163.000
10.99735 168.000
11.01730 181.000
11.03724 160.000
11.05719 179.000
11.07714 174.000
11.09708 172.000
11.11703 202.000
11.13698 164.000
11.15692 176.000
11.17687 188.000
11.19682 193.000
11.21676 201.000
11.23671 172.000
11.25666 161.000
11.27661 179.000
11.29655 160.000
11.31650 197.000
11.33645 197.000
11.35639 160.000
11.37634 175.000
11.39629 182.000
11.41623 180.000
11.43618 152.000
11.45613 212.000
11.47608 161.000
11.49602 180.000
11.51597 169.000
11.53592 154.000
11.55586 173.000
11.57581 158.000
11.59576 168.000
11.61570 204.000
11.63565 162.000
11.65560 170.000
11.67554 208.000
11.69549 210.000
11.71544 177.000
11.73539 179.000
11.75533 181.000
11.77528 172.000
11.79523 192.000
11.81517 186.000
11.83512 163.000
11.85507 182.000
11.87501 166.000
11.89496 166.000
11.91491 180.000
11.93486 194.000
11.95480 177.000
11.97475 163.000
11.99470 162.000
12.01464 196.000
12.03459 172.000
12.05454 164.000
12.07448 188.000
12.09443 177.000
12.11438 188.000
12.13432 152.000
12.15427 176.000
12.17422 190.000
12.19417 169.000
12.21411 181.000
12.23406 186.000
12.25401 163.000
12.27395 191.000
12.29390 205.000
12.31385 184.000
12.33379 176.000
12.35374 201.000
12.37369 175.000
12.39364 198.000
12.41358 194.000
12.43353 185.000
12.45348 188.000
12.47342 193.000
12.49337 193.000
12.51332 162.000
12.53326 183.000
12.55321 190.000
12.57316 189.000
12.59311 201.000
12.61305 193.000
12.63300 162.000
12.65295 186.000
12.67289 192.000
12.69284 185.000
12.71279 171.000
12.73273 188.000
12.75268 161.000
12.77263 166.000
12.79257 204.000
12.81252 192.000
12.83247 192.000
12.85242 177.000
12.87236 190.000
12.89231 178.000
12.91226 198.000
12.93220 174.000
12.95215 188.000
12.97210 157.000
12.99204 206.000
13.01199 140.000
13.03194 189.000
13.05189 168.000
13.07183 194.000
13.09178 175.000
13.11173 168.000
13.13167 177.000
13.15162 168.000
13.17157 210.000
13.19151 192.000
13.21146 197.000
13.23141 196.000
13.25135 180.000
13.27130 201.000
13.29125 200.000
13.31120 181.000
13.33114 188.000
13.35109 166.000
13.37104 210.000
13.39098 186.000
13.41093 193.000
13.43088 187.000
13.45082 168.000
13.47077 180.000
13.49072 190.000
13.51067 174.000
13.53061 208.000
13.55056 190.000
13.57051 160.000
13.59045 206.000
13.61040 206.000
13.63035 173.000
13.65029 181.000
13.67024 189.000
13.69019 177.000
13.71013 206.000
13.73008 200.000
13.75003 180.000
13.76998 176.000
13.78992 203.000
13.80987 196.000
13.82982 174.000
13.84976 178.000
13.86971 197.000
13.88966 167.000
13.90960 191.000
13.92955 175.000
13.94950 182.000
13.96945 212.000
13.98939 184.000
14.00934 203.000
14.02929 179.000
14.04923 202.000
14.06918 200.000
14.08913 192.000
14.10907 166.000
14.12902 198.000
14.14897 170.000
14.16892 188.000
14.18886 181.000
14.20881 187.000
14.22876 190.000
14.24870 201.000
14.26865 199.000
14.28860 174.000
14.30854 163.000
14.32849 186.000
14.34844 181.000
14.36838 191.000
14.38833 204.000
14.40828 208.000
14.42823 192.000
14.44817 190.000
14.46812 174.000
14.48807 201.000
14.50801 181.000
14.52796 168.000
14.54791 190.000
14.56785 219.000
14.58780 184.000
14.60775 196.000
14.62770 200.000
14.64764 213.000
14.66759 192.000
14.68754 218.000
14.70748 209.000
14.72743 158.000
14.74738 178.000
14.76732 209.000
14.78727 187.000
14.80722 224.000
14.82716 192.000
14.84711 196.000
14.86706 173.000
14.88701 200.000
14.90695 186.000
14.92690 220.000
14.94685 178.000
14.96679 188.000
14.98674 178.000
15.00669 192.000
15.02663 231.000
15.04658 205.000
15.06653 194.000
15.08648 192.000
15.10642 202.000
15.12637 201.000
15.14632 198.000
15.16626 216.000
15.18621 225.000
15.20616 201.000
15.22610 232.000
15.24605 177.000
15.26600 210.000
15.28594 195.000
15.30589 178.000
15.32584 174.000
15.34579 219.000
15.36573 228.000
15.38568 210.000
15.40563 221.000
15.42557 200.000
15.44552 229.000
15.46547 229.000
15.48541 255.000
15.50536 220.000
15.52531 223.000
15.54526 197.000
15.56520 237.000
15.58515 279.000
15.60510 269.000
15.62504 302.000
15.64499 268.000
15.66494 383.000
15.68488 375.000
15.70483 453.000
15.72478 511.000
15.74472 661.000
15.76467 936.000
15.78462 1264.000
15.80457 1912.000
15.82451 2523.000
15.84446 3136.000
15.86441 3323.000
15.88435 2946.000
15.90430 2687.000
15.92425 2485.000
15.94419 2217.000
15.96414 1806.000
15.98409 1609.000
16.00404 1080.000
16.02398 818.000
16.04393 605.000
16.06388 426.000
16.08382 352.000
16.10377 312.000
16.12372 274.000
16.14366 243.000
16.16361 277.000
16.18356 243.000
16.20351 215.000
16.22345 226.000
16.24340 223.000
16.26335 226.000
16.28329 227.000
16.30324 252.000
16.32319 223.000
16.34313 217.000
16.36308 237.000
16.38303 225.000
16.40297 224.000
16.42292 214.000
16.44287 237.000
16.46282 224.000
16.48276 234.000
16.50271 211.000
16.52266 219.000
16.54260 226.000
16.56255 215.000
16.58250 194.000
16.60244 201.000
16.62239 218.000
16.64234 221.000
16.66229 218.000
16.68223 229.000
16.70218 241.000
16.72213 231.000
16.74207 220.000
16.76202 248.000
16.78197 320.000
16.80191 336.000
16.82186 305.000
16.84181 341.000
16.86175 338.000
16.88170 340.000
16.90165 288.000
16.92160 287.000
16.94154 287.000
16.96149 267.000
16.98144 252.000
17.00138 251.000
17.02133 250.000
17.04128 225.000
17.06122 185.000
17.08117 207.000
17.10112 215.000
17.12107 217.000
17.14101 186.000
17.16096 209.000
17.18091 209.000
17.20085 215.000
17.22080 219.000
17.24075 202.000
17.26069 197.000
17.28064 203.000
17.30059 190.000
17.32053 209.000
17.34048 206.000
17.36043 228.000
17.38038 206.000
17.40032 188.000
17.42027 202.000
17.44022 200.000
17.46016 185.000
17.48011 192.000
17.50006 213.000
17.52000 173.000
17.53995 202.000
17.55990 196.000
17.57985 214.000
17.59979 245.000
17.61974 209.000
17.63969 195.000
17.65963 197.000
17.67958 204.000
17.69953 230.000
17.71947 196.000
17.73942 220.000
17.75937 186.000
17.77932 190.000
17.79926 193.000
17.81921 195.000
17.83916 197.000
17.85910 195.000
17.87905 197.000
17.89900 195.000
17.91894 193.000
17.93889 205.000
17.95884 195.000
17.97878 192.000
17.99873 198.000
18.01868 202.000
18.03863 180.000
18.05857 190.000
18.07852 181.000
18.09847 209.000
18.11841 213.000
18.13836 203.000
18.15831 205.000
18.17825 213.000
18.19820 211.000
18.21815 204.000
18.23810 203.000
18.25804 205.000
18.27799 205.000
18.29794 198.000
18.31788 201.000
18.33783 187.000
18.35778 226.000
18.37772 197.000
18.39767 186.000
18.41762 209.000
18.43756 207.000
18.45751 204.000
18.47746 210.000
18.49741 224.000
18.51735 209.000
18.53730 213.000
18.55725 199.000
18.57719 229.000
18.59714 246.000
18.61709 212.000
18.63703 180.000
18.65698 210.000
18.67693 210.000
18.69688 206.000
18.71682 192.000
18.73677 172.000
18.75672 223.000
18.77666 203.000
18.79661 202.000
18.81656 220.000
18.83650 222.000
18.85645 185.000
18.87640 190.000
18.89634 185.000
18.91629 207.000
18.93624 197.000
18.95619 209.000
18.97613 215.000
18.99608 211.000
19.01603 192.000
19.03597 207.000
19.05592 213.000
19.07587 223.000
19.09581 206.000
19.11576 181.000
19.13571 213.000
19.15566 194.000
19.17560 228.000
19.19555 204.000
19.21550 216.000
19.23544 212.000
19.25539 196.000
19.27534 206.000
19.29528 188.000
19.31523 215.000
19.33518 228.000
19.35513 208.000
19.37507 196.000
19.39502 219.000
19.41497 176.000
19.43491 211.000
19.45486 207.000
19.47481 187.000
19.49475 213.000
19.51470 219.000
19.53465 202.000
19.55459 203.000
19.57454 191.000
19.59449 231.000
19.61444 222.000
19.63438 212.000
19.65433 216.000
19.67428 201.000
19.69422 211.000
19.71417 179.000
19.73412 212.000
19.75406 224.000
19.77401 211.000
19.79396 220.000
19.81391 230.000
19.83385 194.000
19.85380 203.000
19.87375 204.000
19.89369 210.000
19.91364 191.000
19.93359 220.000
19.95353 217.000
19.97348 224.000
19.99343 201.000
20.01337 191.000
20.03332 222.000
20.05327 214.000
20.07322 211.000
20.09316 210.000
20.11311 209.000
20.13306 218.000
20.15300 232.000
20.17295 217.000
20.19290 234.000
20.21284 212.000
20.23279 205.000
20.25274 214.000
20.27269 251.000
20.29263 240.000
20.31258 204.000
20.33253 207.000
20.35247 205.000
20.37242 231.000
20.39237 213.000
20.41231 210.000
20.43226 232.000
20.45221 230.000
20.47215 244.000
20.49210 222.000
20.51205 204.000
20.53200 217.000
20.55194 250.000
20.57189 236.000
20.59184 258.000
20.61178 221.000
20.63173 224.000
20.65168 219.000
20.67162 223.000
20.69157 245.000
20.71152 234.000
20.73147 226.000
20.75141 212.000
20.77136 250.000
20.79131 249.000
20.81125 235.000
20.83120 267.000
20.85115 240.000
20.87109 239.000
20.89104 264.000
20.91099 256.000
20.93094 243.000
20.95088 293.000
20.97083 265.000
20.99078 296.000
21.01072 288.000
21.03067 325.000
21.05062 317.000
21.07056 356.000
21.09051 354.000
21.11046 329.000
21.13040 355.000
21.15035 342.000
21.17030 361.000
21.19025 297.000
21.21019 314.000
21.23014 243.000
21.25009 285.000
21.27003 258.000
21.28998 253.000
21.30993 236.000
21.32987 248.000
21.34982 212.000
21.36977 234.000
21.38972 197.000
21.40966 238.000
21.42961 217.000
21.44956 205.000
21.46950 231.000
21.48945 239.000
21.50940 196.000
21.52934 234.000
21.54929 194.000
21.56924 230.000
21.58918 233.000
21.60913 229.000
21.62908 235.000
21.64903 226.000
21.66897 177.000
21.68892 239.000
21.70887 230.000
21.72881 211.000
21.74876 206.000
21.76871 202.000
21.78865 216.000
21.80860 216.000
21.82855 208.000
21.84850 221.000
21.86844 218.000
21.88839 182.000
21.90834 210.000
21.92828 249.000
21.94823 211.000
21.96818 197.000
21.98812 228.000
22.00807 219.000
22.02802 234.000
22.04796 221.000
22.06791 229.000
22.08786 219.000
22.10781 225.000
22.12775 230.000
22.14770 224.000
22.16765 197.000
22.18759 240.000
22.20754 217.000
22.22749 223.000
22.24743 200.000
22.26738 204.000
22.28733 215.000
22.30728 205.000
22.32722 233.000
22.34717 224.000
22.36712 220.000
22.38706 228.000
22.40701 228.000
22.42696 208.000
22.44690 224.000
22.46685 230.000
22.48680 234.000
22.50675 220.000
22.52669 183.000
22.54664 198.000
22.56659 224.000
22.58653 234.000
22.60648 229.000
22.62643 221.000
22.64637 209.000
22.66632 222.000
22.68627 220.000
22.70621 246.000
22.72616 197.000
22.74611 223.000
22.76606 238.000
22.78600 215.000
22.80595 213.000
22.82590 226.000
22.84584 199.000
22.86579 227.000
22.88574 201.000
22.90568 224.000
22.92563 240.000
22.94558 237.000
22.96553 232.000
22.98547 229.000
23.00542 222.000
23.02537 234.000
23.04531 236.000
23.06526 267.000
23.08521 249.000
23.10515 212.000
23.12510 237.000
23.14505 247.000
23.16499 242.000
23.18494 234.000
23.20489 247.000
23.22484 254.000
23.24478 249.000
23.26473 213.000
23.28468 202.000
23.30462 237.000
23.32457 230.000
23.34452 216.000
23.36446 217.000
23.38441 245.000
23.40436 228.000
23.42431 223.000
23.44425 233.000
23.46420 225.000
23.48415 215.000
23.50409 209.000
23.52404 247.000
23.54399 224.000
23.56393 223.000
23.58388 203.000
23.60383 205.000
23.62377 233.000
23.64372 241.000
23.66367 250.000
23.68362 196.000
23.70356 238.000
23.72351 234.000
23.74346 230.000
23.76340 182.000
23.78335 215.000
23.80330 231.000
23.82324 226.000
23.84319 241.000
23.86314 222.000
23.88309 228.000
23.90303 224.000
23.92298 206.000
23.94293 226.000
23.96287 235.000
23.98282 213.000
24.00277 221.000
24.02271 208.000
24.04266 232.000
24.06261 248.000
24.08256 230.000
24.10250 235.000
24.12245 220.000
24.14240 209.000
24.16234 218.000
24.18229 214.000
24.20224 241.000
24.22218 244.000
24.24213 191.000
24.26208 220.000
24.28202 259.000
24.30197 223.000
24.32192 222.000
24.34187 226.000
24.36181 198.000
24.38176 218.000
24.40171 235.000
24.42165 215.000
24.44160 229.000
24.46155 227.000
24.48149 228.000
24.50144 234.000
24.52139 246.000
24.54134 210.000
24.56128 243.000
24.58123 222.000
24.60118 249.000
24.62112 217.000
24.64107 253.000
24.66102 240.000
24.68096 224.000
24.70091 198.000
24.72086 252.000
24.74080 219.000
24.76075 218.000
24.78070 225.000
24.80065 224.000
24.82059 224.000
24.84054 222.000
24.86049 259.000
24.88043 243.000
24.90038 239.000
24.92033 265.000
24.94027 287.000
24.96022 301.000
24.98017 308.000
25.00012 321.000
25.02006 291.000
25.04001 318.000
25.05996 307.000
25.07990 300.000
25.09985 283.000
25.11980 289.000
25.13974 278.000
25.15969 232.000
25.17964 262.000
25.19958 253.000
25.21953 235.000
25.23948 245.000
25.25943 240.000
25.27937 250.000
25.29932 246.000
25.31927 244.000
25.33921 223.000
25.35916 235.000
25.37911 200.000
25.39905 237.000
25.41900 213.000
25.43895 240.000
25.45890 234.000
25.47884 211.000
25.49879 212.000
25.51874 226.000
25.53868 251.000
25.55863 241.000
25.57858 230.000
25.59852 235.000
25.61847 253.000
25.63842 225.000
25.65837 230.000
25.67831 231.000
25.69826 234.000
25.71821 243.000
25.73815 224.000
25.75810 249.000
25.77805 227.000
25.79799 237.000
25.81794 224.000
25.83789 238.000
25.85783 220.000
25.87778 218.000
25.89773 241.000
25.91768 225.000
25.93762 229.000
25.95757 243.000
25.97752 244.000
25.99746 244.000
26.01741 231.000
26.03736 243.000
26.05730 242.000
26.07725 230.000
26.09720 221.000
26.11715 238.000
26.13709 251.000
26.15704 243.000
26.17699 268.000
26.19693 228.000
26.21688 252.000
26.23683 233.000
26.25677 229.000
26.27672 241.000
26.29667 273.000
26.31661 215.000
26.33656 239.000
26.35651 254.000
26.37646 226.000
26.39640 236.000
26.41635 217.000
26.43630 257.000
26.45624 248.000
26.47619 216.000
26.49614 257.000
26.51608 257.000
26.53603 243.000
26.55598 224.000
26.57593 251.000
26.59587 262.000
26.61582 217.000
26.63577 221.000
26.65571 226.000
26.67566 227.000
26.69561 248.000
26.71555 246.000
26.73550 267.000
26.75545 251.000
26.77539 253.000
26.79534 240.000
26.81529 246.000
26.83524 238.000
26.85518 263.000
26.87513 284.000
26.89508 280.000
26.91502 259.000
26.93497 228.000
26.95492 233.000
26.97486 224.000
26.99481 212.000
27.01476 264.000
27.03471 235.000
27.05465 241.000
27.07460 263.000
27.09455 289.000
27.11449 227.000
27.13444 269.000
27.15439 292.000
27.17433 276.000
27.19428 268.000
27.21423 304.000
27.23417 265.000
27.25412 247.000
27.27407 271.000
27.29402 294.000
27.31396 282.000
27.33391 290.000
27.35386 233.000
27.37380 262.000
27.39375 253.000
27.41370 255.000
27.43364 236.000
27.45359 244.000
27.47354 262.000
27.49349 246.000
27.51343 271.000
27.53338 251.000
27.55333 257.000
27.57327 220.000
27.59322 246.000
27.61317 270.000
27.63311 229.000
27.65306 248.000
27.67301 257.000
27.69296 244.000
27.71290 256.000
27.73285 269.000
27.75280 257.000
27.77274 248.000
27.79269 288.000
27.81264 261.000
27.83258 240.000
27.85253 256.000
27.87248 264.000
27.89242 263.000
27.91237 258.000
27.93232 254.000
27.95227 241.000
27.97221 248.000
27.99216 265.000
28.01211 238.000
28.03205 251.000
28.05200 259.000
28.07195 251.000
28.09189 262.000
28.11184 271.000
28.13179 277.000
28.15174 235.000
28.17168 262.000
28.19163 245.000
28.21158 281.000
28.23152 270.000
28.25147 271.000
28.27142 297.000
28.29136 246.000
28.31131 262.000
28.33126 274.000
28.35120 252.000
28.37115 304.000
28.39110 272.000
28.41105 297.000
28.43099 283.000
28.45094 291.000
28.47089 276.000
28.49083 270.000
28.51078 276.000
28.53073 264.000
28.55067 262.000
28.57062 261.000
28.59057 270.000
28.61052 283.000
28.63046 272.000
28.65041 256.000
28.67036 244.000
28.69030 277.000
28.71025 246.000
28.73020 237.000
28.75014 281.000
28.77009 264.000
28.79004 234.000
28.80998 260.000
28.82993 251.000
28.84988 261.000
28.86983 266.000
28.88977 270.000
28.90972 277.000
28.92967 288.000
28.94961 243.000
28.96956 261.000
28.98951 268.000
29.00945 273.000
29.02940 244.000
29.04935 287.000
29.06930 283.000
29.08924 257.000
29.10919 289.000
29.12914 291.000
29.14908 274.000
29.16903 291.000
29.18898 305.000
29.20892 305.000
29.22887 312.000
29.24882 353.000
29.26877 367.000
29.28871 420.000
29.30866 459.000
29.32861 561.000
29.34855 593.000
29.36850 594.000
29.38845 582.000
29.40839 663.000
29.42834 619.000
29.44829 605.000
29.46823 630.000
29.48818 500.000
29.50813 478.000
29.52808 477.000
29.54802 435.000
29.56797 422.000
29.58792 343.000
29.60786 344.000
29.62781 356.000
29.64776 326.000
29.66770 316.000
29.68765 286.000
29.70760 303.000
29.72755 309.000
29.74749 286.000
29.76744 299.000
29.78739 264.000
29.80733 250.000
29.82728 280.000
29.84723 291.000
29.86717 273.000
29.88712 272.000
29.90707 252.000
29.92701 242.000
29.94696 263.000
29.96691 271.000
29.98686 284.000
30.00680 288.000
30.02675 282.000
30.04670 257.000
30.06664 273.000
30.08659 279.000
30.10654 287.000
30.12648 258.000
30.14643 254.000
30.16638 247.000
30.18633 242.000
30.20627 274.000
30.22622 243.000
30.24617 285.000
30.26611 260.000
30.28606 263.000
30.30601 263.000
30.32595 267.000
30.34590 262.000
30.36585 261.000
30.38579 232.000
30.40574 276.000
30.42569 283.000
30.44564 273.000
30.46558 243.000
30.48553 251.000
30.50548 257.000
30.52542 294.000
30.54537 271.000
30.56532 255.000
30.58526 251.000
30.60521 268.000
30.62516 247.000
30.64511 255.000
30.66505 283.000
30.68500 283.000
30.70495 272.000
30.72489 291.000
30.74484 281.000
30.76479 264.000
30.78473 297.000
30.80468 240.000
30.82463 222.000
30.84458 263.000
30.86452 275.000
30.88447 264.000
30.90442 311.000
30.92436 271.000
30.94431 265.000
30.96426 277.000
30.98420 270.000
31.00415 249.000
31.02410 247.000
31.04404 264.000
31.06399 271.000
31.08394 247.000
31.10389 239.000
31.12383 244.000
31.14378 265.000
31.16373 281.000
31.18367 242.000
31.20362 263.000
31.22357 245.000
31.24351 268.000
31.26346 281.000
31.28341 262.000
31.30336 301.000
31.32330 249.000
31.34325 258.000
31.36320 264.000
31.38314 262.000
31.40309 261.000
31.42304 262.000
31.44298 268.000
31.46293 262.000
31.48288 295.000
31.50282 293.000
31.52277 267.000
31.54272 259.000
31.56267 283.000
31.58261 266.000
31.60256 312.000
31.62251 283.000
31.64245 284.000
31.66240 261.000
31.68235 256.000
31.70229 308.000
31.72224 285.000
31.74219 288.000
31.76214 309.000
31.78208 303.000
31.80203 287.000
31.82198 294.000
31.84192 289.000
31.86187 319.000
31.88182 314.000
31.90176 313.000
31.92171 329.000
31.94166 355.000
31.96160 340.000
31.98155 400.000
32.00150 512.000
32.02145 590.000
32.04139 586.000
32.06134 618.000
32.08129 596.000
32.10123 592.000
32.12118 598.000
32.14113 528.000
32.16107 541.000
32.18102 445.000
32.20097 420.000
32.22092 396.000
32.24086 361.000
32.26081 332.000
32.28076 316.000
32.30070 290.000
32.32065 294.000
32.34060 263.000
32.36054 264.000
32.38049 289.000
32.40044 261.000
32.42039 257.000
32.44033 280.000
32.46028 253.000
32.48023 257.000
32.50017 265.000
32.52012 277.000
32.54007 266.000
32.56001 281.000
32.57996 219.000
32.59991 268.000
32.61985 257.000
32.63980 255.000
32.65975 276.000
32.67970 263.000
32.69964 282.000
32.71959 238.000
32.73954 281.000
32.75948 268.000
32.77943 254.000
32.79938 253.000
32.81932 252.000
32.83927 286.000
32.85922 270.000
32.87917 262.000
32.89911 238.000
32.91906 284.000
32.93901 249.000
32.95895 276.000
32.97890 261.000
32.99885 279.000
33.01879 282.000
33.03874 212.000
33.05869 248.000
33.07863 275.000
33.09858 251.000
33.11853 251.000
33.13848 298.000
33.15842 267.000
33.17837 238.000
33.19832 271.000
33.21826 260.000
33.23821 251.000
33.25816 285.000
33.27810 263.000
33.29805 288.000
33.31800 270.000
33.33795 273.000
33.35789 279.000
33.37784 284.000
33.39779 285.000
33.41773 263.000
33.43768 276.000
33.45763 262.000
33.47757 273.000
33.49752 274.000
33.51747 266.000
33.53741 271.000
33.55736 293.000
33.57731 260.000
33.59726 286.000
33.61720 241.000
33.63715 275.000
33.65710 258.000
33.67704 290.000
33.69699 271.000
33.71694 277.000
33.73688 281.000
33.75683 271.000
33.77678 268.000
33.79673 270.000
33.81667 284.000
33.83662 306.000
33.85657 290.000
33.87651 263.000
33.89646 285.000
33.91641 253.000
33.93635 287.000
33.95630 277.000
33.97625 255.000
33.99620 278.000
34.01614 317.000
34.03609 294.000
34.05604 286.000
34.07598 285.000
34.09593 298.000
34.11588 309.000
34.13582 298.000
34.15577 295.000
34.17572 302.000
34.19566 308.000
34.21561 288.000
34.23556 276.000
34.25551 315.000
34.27545 268.000
34.29540 286.000
34.31535 311.000
34.33529 257.000
34.35524 292.000
34.37519 299.000
34.39513 327.000
34.41508 284.000
34.43503 300.000
34.45498 302.000
34.47492 327.000
34.49487 342.000
34.51482 340.000
34.53476 374.000
34.55471 343.000
34.57466 374.000
34.59460 339.000
34.61455 381.000
34.63450 356.000
34.65444 382.000
34.67439 417.000
34.69434 424.000
34.71429 456.000
34.73423 479.000
34.75418 471.000
34.77413 488.000
34.79407 489.000
34.81402 497.000
34.83397 501.000
34.85391 552.000
34.87386 549.000
34.89381 550.000
34.91376 486.000
34.93370 478.000
34.95365 437.000
34.97360 444.000
34.99354 387.000
35.01349 397.000
35.03344 382.000
35.05338 358.000
35.07333 325.000
35.09328 358.000
35.11322 325.000
35.13317 322.000
35.15312 289.000
35.17307 295.000
35.19301 307.000
35.21296 247.000
35.23291 290.000
35.25285 284.000
35.27280 292.000
35.29275 295.000
35.31269 309.000
35.33264 316.000
35.35259 282.000
35.37254 304.000
35.39248 279.000
35.41243 309.000
35.43238 285.000
35.45232 306.000
35.47227 336.000
35.49222 279.000
35.51216 297.000
35.53211 296.000
35.55206 329.000
35.57201 309.000
35.59195 312.000
35.61190 321.000
35.63185 319.000
35.65179 364.000
35.67174 328.000
35.69169 321.000
35.71163 344.000
35.73158 356.000
35.75153 431.000
35.77147 474.000
35.79142 461.000
35.81137 512.000
35.83132 563.000
35.85126 637.000
35.87121 655.000
35.89116 689.000
35.91110 694.000
35.93105 665.000
35.95100 718.000
35.97094 688.000
35.99089 636.000
36.01084 592.000
36.03079 500.000
36.05073 486.000
36.07068 458.000
36.09063 426.000
36.11057 390.000
36.13052 348.000
36.15047 353.000
36.17041 302.000
36.19036 318.000
36.21031 303.000
36.23025 326.000
36.25020 308.000
36.27015 332.000
36.29010 313.000
36.31004 317.000
36.32999 288.000
36.34994 329.000
36.36988 331.000
36.38983 343.000
36.40978 358.000
36.42972 346.000
36.44967 357.000
36.46962 361.000
36.48957 346.000
36.50951 352.000
36.52946 360.000
36.54941 334.000
36.56935 370.000
36.58930 343.000
36.60925 351.000
36.62919 369.000
36.64914 346.000
36.66909 373.000
36.68903 340.000
36.70898 373.000
36.72893 363.000
36.74888 391.000
36.76882 379.000
36.78877 414.000
36.80872 414.000
36.82866 417.000
36.84861 405.000
36.86856 437.000
36.88850 472.000
36.90845 521.000
36.92840 489.000
36.94835 582.000
36.96829 630.000
36.98824 664.000
37.00819 772.000
37.02813 879.000
37.04808 1191.000
37.06803 1585.000
37.08797 2256.000
37.10792 3192.000
37.12787 3578.000
37.14781 4001.000
37.16776 4261.000
37.18771 4497.000
37.20766 4519.000
37.22760 4486.000
37.24755 4167.000
37.26750 3771.000
37.28744 3309.000
37.30739 2753.000
37.32734 2313.000
37.34728 1832.000
37.36723 1532.000
37.38718 1219.000
37.40713 878.000
37.42707 754.000
37.44702 589.000
37.46697 472.000
37.48691 417.000
37.50686 378.000
37.52681 364.000
37.54675 393.000
37.56670 350.000
37.58665 384.000
37.60660 347.000
37.62654 339.000
37.64649 355.000
37.66644 325.000
37.68638 344.000
37.70633 314.000
37.72628 299.000
37.74622 315.000
37.76617 308.000
37.78612 302.000
37.80606 284.000
37.82601 317.000
37.84596 273.000
37.86591 266.000
37.88585 298.000
37.90580 295.000
37.92575 299.000
37.94569 311.000
37.96564 288.000
37.98559 298.000
38.00553 293.000
38.02548 315.000
38.04543 289.000
38.06538 328.000
38.08532 295.000
38.10527 292.000
38.12522 283.000
38.14516 293.000
38.16511 289.000
38.18506 270.000
38.20500 307.000
38.22495 278.000
38.24490 304.000
38.26484 296.000
38.28479 312.000
38.30474 286.000
38.32469 285.000
38.34463 283.000
38.36458 295.000
38.38453 295.000
38.40447 294.000
38.42442 315.000
38.44437 253.000
38.46431 280.000
38.48426 288.000
38.50421 292.000
38.52416 299.000
38.54410 281.000
38.56405 324.000
38.58400 263.000
38.60394 313.000
38.62389 289.000
38.64384 304.000
38.66378 312.000
38.68373 316.000
38.70368 290.000
38.72362 326.000
38.74357 310.000
38.76352 318.000
38.78347 322.000
38.80341 312.000
38.82336 309.000
38.84331 322.000
38.86325 331.000
38.88320 310.000
38.90315 301.000
38.92309 326.000
38.94304 325.000
38.96299 330.000
38.98294 352.000
39.00288 320.000
39.02283 316.000
39.04278 301.000
39.06272 362.000
39.08267 335.000
39.10262 337.000
39.12256 334.000
39.14251 321.000
39.16246 333.000
39.18241 319.000
39.20235 351.000
39.22230 367.000
39.24225 391.000
39.26219 364.000
39.28214 463.000
39.30209 453.000
39.32203 530.000
39.34198 593.000
39.36193 740.000
39.38187 833.000
39.40182 857.000
39.42177 957.000
39.44172 1033.000
39.46166 1112.000
39.48161 1183.000
39.50156 1188.000
39.52150 1156.000
39.54145 1026.000
39.56140 1015.000
39.58134 889.000
39.60129 834.000
39.62124 749.000
39.64119 636.000
39.66113 564.000
39.68108 547.000
39.70103 506.000
39.72097 432.000
39.74092 390.000
39.76087 356.000
39.78081 373.000
39.80076 342.000
39.82071 297.000
39.84065 321.000
39.86060 316.000
39.88055 285.000
39.90050 300.000
39.92044 283.000
39.94039 331.000
39.96034 277.000
39.98028 271.000
40.00023 273.000
40.02018 262.000
40.04012 283.000
40.06007 276.000
40.08002 277.000
40.09997 289.000
40.11991 297.000
40.13986 311.000
40.15981 273.000
40.17975 292.000
40.19970 303.000
40.21965 260.000
40.23959 263.000
40.25954 253.000
40.27949 284.000
40.29943 275.000
40.31938 284.000
40.33933 263.000
40.35928 287.000
40.37922 266.000
40.39917 250.000
40.41912 263.000
40.43906 290.000
40.45901 291.000
40.47896 242.000
40.49890 285.000
40.51885 276.000
40.53880 246.000
40.55875 276.000
40.57869 260.000
40.59864 268.000
40.61859 250.000
40.63853 248.000
40.65848 236.000
40.67843 286.000
40.69837 293.000
40.71832 272.000
40.73827 281.000
40.75822 260.000
40.77816 288.000
40.79811 271.000
40.81806 260.000
40.83800 273.000
40.85795 275.000
40.87790 283.000
40.89784 265.000
40.91779 270.000
40.93774 271.000
40.95768 251.000
40.97763 240.000
40.99758 308.000
41.01753 279.000
41.03747 286.000
41.05742 290.000
41.07737 272.000
41.09731 288.000
41.11726 266.000
41.13721 275.000
41.15715 264.000
41.17710 243.000
41.19705 305.000
41.21700 294.000
41.23694 266.000
41.25689 272.000
41.27684 278.000
41.29678 276.000
41.31673 277.000
41.33668 280.000
41.35662 279.000
41.37657 276.000
41.39652 273.000
41.41646 276.000
41.43641 266.000
41.45636 274.000
41.47631 255.000
41.49625 282.000
41.51620 272.000
41.53615 270.000
41.55609 255.000
41.57604 293.000
41.59599 286.000
41.61593 287.000
41.63588 309.000
41.65583 272.000
41.67578 261.000
41.69572 283.000
41.71567 284.000
41.73562 268.000
41.75556 279.000
41.77551 298.000
41.79546 298.000
41.81540 292.000
41.83535 295.000
41.85530 277.000
41.87524 287.000
41.89519 277.000
41.91514 275.000
41.93509 290.000
41.95503 260.000
41.97498 289.000
41.99493 293.000
42.01487 282.000
42.03482 269.000
42.05477 295.000
42.07471 292.000
42.09466 292.000
42.11461 276.000
42.13456 273.000
42.15450 295.000
42.17445 286.000
42.19440 313.000
42.21434 295.000
42.23429 309.000
42.25424 297.000
42.27418 312.000
42.29413 267.000
42.31408 314.000
42.33403 280.000
42.35397 308.000
42.37392 322.000
42.39387 294.000
42.41381 332.000
42.43376 319.000
42.45371 350.000
42.47365 371.000
42.49360 345.000
42.51355 353.000
42.53349 365.000
42.55344 357.000
42.57339 370.000
42.59334 344.000
42.61328 359.000
42.63323 366.000
42.65318 424.000
42.67312 349.000
42.69307 383.000
42.71302 410.000
42.73296 392.000
42.75291 405.000
42.77286 442.000
42.79281 430.000
42.81275 468.000
42.83270 520.000
42.85265 503.000
42.87259 510.000
42.89254 543.000
42.91249 633.000
42.93243 630.000
42.95238 755.000
42.97233 861.000
42.99227 955.000
43.01222 1141.000
43.03217 1439.000
43.05212 1764.000
43.07206 2337.000
43.09201 2988.000
43.11196 3757.000
43.13190 4484.000
43.15185 5309.000
43.17180 5602.000
43.19174 6003.000
43.21169 6021.000
43.23164 6268.000
43.25159 6091.000
43.27153 5826.000
43.29148 5212.000
43.31143 4680.000
43.33137 4017.000
43.35132 3479.000
43.37127 2918.000
43.39121 2442.000
43.41116 1934.000
43.43111 1690.000
43.45105 1359.000
43.47100 1109.000
43.49095 1031.000
43.51090 930.000
43.53084 827.000
43.55079 786.000
43.57074 772.000
43.59068 766.000
43.61063 763.000
43.63058 714.000
43.65052 691.000
43.67047 705.000
43.69042 606.000
43.71037 562.000
43.73031 555.000
43.75026 522.000
43.77021 463.000
43.79015 474.000
43.81010 377.000
43.83005 392.000
43.84999 353.000
43.86994 365.000
43.88989 370.000
43.90984 343.000
43.92978 321.000
43.94973 323.000
43.96968 305.000
43.98962 324.000
44.00957 323.000
44.02952 306.000
44.04946 312.000
44.06941 303.000
44.08936 308.000
44.10930 290.000
44.12925 313.000
44.14920 320.000
44.16915 291.000
44.18909 288.000
44.20904 280.000
44.22899 284.000
44.24893 276.000
44.26888 293.000
44.28883 297.000
44.30877 309.000
44.32872 333.000
44.34867 290.000
44.36862 293.000
44.38856 302.000
44.40851 326.000
44.42846 273.000
44.44840 296.000
44.46835 307.000
44.48830 299.000
44.50824 265.000
44.52819 295.000
44.54814 276.000
44.56808 292.000
44.58803 231.000
44.60798 253.000
44.62793 272.000
44.64787 298.000
44.66782 294.000
44.68777 296.000
44.70771 277.000
44.72766 291.000
44.74761 283.000
44.76755 262.000
44.78750 283.000
44.80745 274.000
44.82740 276.000
44.84734 290.000
44.86729 273.000
44.88724 270.000
44.90718 274.000
44.92713 264.000
44.94708 275.000
44.96702 254.000
44.98697 274.000
45.00692 293.000
45.02686 283.000
45.04681 268.000
45.06676 292.000
45.08671 338.000
45.10665 292.000
45.12660 260.000
45.14655 269.000
45.16649 307.000
45.18644 299.000
45.20639 325.000
45.22633 308.000
45.24628 255.000
45.26623 297.000
45.28618 280.000
45.30612 274.000
45.32607 297.000
45.34602 304.000
45.36596 281.000
45.38591 294.000
45.40586 271.000
45.42580 300.000
45.44575 298.000
45.46570 273.000
45.48565 277.000
45.50559 270.000
45.52554 288.000
45.54549 295.000
45.56543 313.000
45.58538 299.000
45.60533 283.000
45.62527 303.000
45.64522 283.000
45.66517 302.000
45.68511 296.000
45.70506 325.000
45.72501 282.000
45.74496 284.000
45.76490 291.000
45.78485 263.000
45.80480 295.000
45.82474 254.000
45.84469 288.000
45.86464 245.000
45.88458 261.000
45.90453 267.000
45.92448 275.000
45.94443 243.000
45.96437 270.000
45.98432 248.000
46.00427 258.000
46.02421 261.000
46.04416 257.000
46.06411 251.000
46.08405 264.000
46.10400 251.000
46.12395 224.000
46.14389 252.000
46.16384 265.000
46.18379 270.000
46.20374 280.000
46.22368 250.000
46.24363 258.000
46.26358 285.000
46.28352 227.000
46.30347 284.000
46.32342 264.000
46.34336 280.000
46.36331 277.000
46.38326 231.000
46.40321 241.000
46.42315 273.000
46.44310 262.000
46.46305 241.000
46.48299 265.000
46.50294 244.000
46.52289 289.000
46.54283 280.000
46.56278 243.000
46.58273 238.000
46.60267 226.000
46.62262 268.000
46.64257 264.000
46.66252 249.000
46.68246 246.000
46.70241 301.000
46.72236 292.000
46.74230 259.000
46.76225 267.000
46.78220 270.000
46.80214 261.000
46.82209 241.000
46.84204 279.000
46.86199 276.000
46.88193 262.000
46.90188 255.000
46.92183 231.000
46.94177 283.000
46.96172 249.000
46.98167 259.000
47.00161 264.000
47.02156 263.000
47.04151 271.000
47.06146 295.000
47.08140 235.000
47.10135 245.000
47.12130 247.000
47.14124 263.000
47.16119 303.000
47.18114 255.000
47.20108 250.000
47.22103 262.000
47.24098 292.000
47.26092 286.000
47.28087 264.000
47.30082 276.000
47.32077 281.000
47.34071 259.000
47.36066 263.000
47.38061 245.000
47.40055 272.000
47.42050 254.000
47.44045 262.000
47.46039 253.000
47.48034 299.000
47.50029 274.000
47.52024 269.000
47.54018 269.000
47.56013 260.000
47.58008 263.000
47.60002 251.000
47.61997 270.000
47.63992 270.000
47.65986 282.000
47.67981 262.000
47.69976 243.000
47.71970 268.000
47.73965 291.000
47.75960 286.000
47.77955 254.000
47.79949 262.000
47.81944 248.000
47.83939 293.000
47.85933 273.000
47.87928 293.000
47.89923 277.000
47.91917 268.000
47.93912 322.000
47.95907 301.000
47.97902 323.000
47.99896 290.000
48.01891 318.000
48.03886 336.000
48.05880 314.000
48.07875 345.000
48.09870 336.000
48.11864 357.000
48.13859 363.000
48.15854 332.000
48.17848 287.000
48.19843 325.000
48.21838 326.000
48.23833 342.000
48.25827 323.000
48.27822 313.000
48.29817 327.000
48.31811 306.000
48.33806 311.000
48.35801 342.000
48.37795 324.000
48.39790 287.000
48.41785 328.000
48.43780 312.000
48.45774 326.000
48.47769 292.000
48.49764 317.000
48.51758 324.000
48.53753 329.000
48.55748 349.000
48.57742 317.000
48.59737 349.000
48.61732 363.000
48.63726 348.000
48.65721 375.000
48.67716 383.000
48.69711 429.000
48.71705 456.000
48.73700 536.000
48.75695 641.000
48.77689 641.000
48.79684 751.000
48.81679 834.000
48.83673 868.000
48.85668 876.000
48.87663 958.000
48.89658 976.000
48.91652 986.000
48.93647 938.000
48.95642 911.000
48.97636 856.000
48.99631 801.000
49.01626 739.000
49.03620 692.000
49.05615 675.000
49.07610 610.000
49.09605 578.000
49.11599 487.000
49.13594 458.000
49.15589 437.000
49.17583 378.000
49.19578 374.000
49.21573 345.000
49.23567 312.000
49.25562 353.000
49.27557 322.000
49.29551 280.000
49.31546 315.000
49.33541 312.000
49.35536 289.000
49.37530 287.000
49.39525 305.000
49.41520 285.000
49.43514 307.000
49.45509 302.000
49.47504 330.000
49.49498 310.000
49.51493 290.000
49.53488 344.000
49.55483 349.000
49.57477 292.000
49.59472 306.000
49.61467 337.000
49.63461 307.000
49.65456 284.000
49.67451 312.000
49.69445 287.000
49.71440 290.000
49.73435 278.000
49.75429 314.000
49.77424 274.000
49.79419 279.000
49.81414 280.000
49.83408 247.000
49.85403 272.000
49.87398 285.000
49.89392 276.000
49.91387 270.000
49.93382 296.000
49.95376 265.000
49.97371 275.000
49.99366 249.000
50.01361 312.000
50.03355 291.000
50.05350 283.000
50.07345 246.000
50.09339 270.000
50.11334 269.000
50.13329 255.000
50.15323 273.000
50.17318 272.000
50.19313 275.000
50.21307 258.000
50.23302 265.000
50.25297 260.000
50.27292 268.000
50.29286 249.000
50.31281 259.000
50.33276 277.000
50.35270 256.000
50.37265 260.000
50.39260 297.000
50.41254 275.000
50.43249 266.000
50.45244 258.000
50.47239 258.000
50.49233 291.000
50.51228 244.000
50.53223 264.000
50.55217 248.000
50.57212 255.000
50.59207 261.000
50.61201 257.000
50.63196 289.000
50.65191 266.000
50.67186 268.000
50.69180 263.000
50.71175 282.000
50.73170 259.000
50.75164 256.000
50.77159 271.000
50.79154 263.000
50.81148 274.000
50.83143 263.000
50.85138 261.000
50.87132 262.000
50.89127 263.000
50.91122 258.000
50.93117 281.000
50.95111 288.000
50.97106 258.000
50.99101 285.000
51.01095 242.000
51.03090 300.000
51.05085 268.000
51.07079 254.000
51.09074 265.000
51.11069 266.000
51.13064 262.000
51.15058 244.000
51.17053 256.000
51.19048 265.000
51.21042 303.000
51.23037 288.000
51.25032 291.000
51.27026 248.000
51.29021 261.000
51.31016 272.000
51.33010 280.000
51.35005 256.000
51.37000 270.000
51.38995 257.000
51.40989 247.000
51.42984 298.000
51.44979 271.000
51.46973 254.000
51.48968 270.000
51.50963 279.000
51.52957 264.000
51.54952 254.000
51.56947 280.000
51.58942 296.000
51.60936 267.000
51.62931 265.000
51.64926 257.000
51.66920 288.000
51.68915 261.000
51.70910 277.000
51.72904 199.000
51.74899 266.000
51.76894 277.000
51.78888 259.000
51.80883 282.000
51.82878 281.000
51.84873 273.000
51.86867 280.000
51.88862 273.000
51.90857 287.000
51.92851 301.000
51.94846 306.000
51.96841 299.000
51.98835 302.000
52.00830 324.000
52.02825 342.000
52.04820 359.000
52.06814 373.000
52.08809 364.000
52.10804 366.000
52.12798 382.000
52.14793 384.000
52.16788 378.000
52.18782 370.000
52.20777 361.000
52.22772 394.000
52.24767 340.000
52.26761 314.000
52.28756 354.000
52.30751 288.000
52.32745 338.000
52.34740 304.000
52.36735 304.000
52.38729 312.000
52.40724 255.000
52.42719 286.000
52.44713 273.000
52.46708 297.000
52.48703 285.000
52.50698 267.000
52.52692 269.000
52.54687 270.000
52.56682 265.000
52.58676 245.000
52.60671 250.000
52.62666 248.000
52.64660 245.000
52.66655 256.000
52.68650 248.000
52.70645 250.000
52.72639 266.000
52.74634 241.000
52.76629 290.000
52.78623 249.000
52.80618 298.000
52.82613 275.000
52.84607 283.000
52.86602 257.000
52.88597 271.000
52.90591 271.000
52.92586 255.000
52.94581 274.000
52.96576 235.000
52.98570 229.000
53.00565 271.000
53.02560 275.000
53.04554 269.000
53.06549 266.000
53.08544 264.000
53.10538 255.000
53.12533 273.000
53.14528 253.000
53.16523 242.000
53.18517 258.000
53.20512 238.000
53.22507 286.000
53.24501 273.000
53.26496 256.000
53.28491 269.000
53.30485 257.000
53.32480 258.000
53.34475 244.000
53.36469 220.000
53.38464 269.000
53.40459 242.000
53.42454 243.000
53.44448 242.000
53.46443 271.000
53.48438 271.000
53.50432 261.000
53.52427 246.000
53.54422 230.000
53.56416 269.000
53.58411 258.000
53.60406 262.000
53.62401 254.000
53.64395 262.000
53.66390 258.000
53.68385 272.000
53.70379 263.000
53.72374 268.000
53.74369 280.000
53.76363 262.000
53.78358 230.000
53.80353 254.000
53.82348 240.000
53.84342 264.000
53.86337 291.000
53.88332 283.000
53.90326 261.000
53.92321 254.000
53.94316 272.000
53.96310 262.000
53.98305 266.000
54.00300 258.000
54.02294 247.000
54.04289 285.000
54.06284 265.000
54.08279 263.000
54.10273 246.000
54.12268 273.000
54.14263 248.000
54.16257 247.000
54.18252 252.000
54.20247 221.000
54.22241 297.000
54.24236 242.000
54.26231 270.000
54.28226 248.000
54.30220 258.000
54.32215 248.000
54.34210 272.000
54.36204 235.000
54.38199 252.000
54.40194 265.000
54.42188 258.000
54.44183 264.000
54.46178 244.000
54.48172 240.000
54.50167 256.000
54.52162 266.000
54.54157 250.000
54.56151 261.000
54.58146 248.000
54.60141 257.000
54.62135 260.000
54.64130 262.000
54.66125 282.000
54.68119 280.000
54.70114 236.000
54.72109 255.000
54.74104 259.000
54.76098 276.000
54.78093 251.000
54.80088 273.000
54.82082 257.000
54.84077 249.000
54.86072 274.000
54.88066 269.000
54.90061 257.000
54.92056 288.000
54.94050 283.000
54.96045 266.000
54.98040 255.000
55.00035 263.000
55.02029 260.000
55.04024 238.000
55.06019 268.000
55.08013 255.000
55.10008 258.000
55.12003 251.000
55.13997 251.000
55.15992 283.000
55.17987 256.000
55.19982 252.000
55.21976 243.000
55.23971 284.000
55.25966 263.000
55.27960 242.000
55.29955 258.000
55.31950 264.000
55.33944 258.000
55.35939 242.000
55.37934 256.000
55.39929 252.000
55.41923 247.000
55.43918 272.000
55.45913 252.000
55.47907 256.000
55.49902 263.000
55.51897 252.000
55.53891 283.000
55.55886 274.000
55.57881 242.000
55.59875 289.000
55.61870 266.000
55.63865 240.000
55.65860 251.000
55.67854 237.000
55.69849 262.000
55.71844 257.000
55.73838 262.000
55.75833 262.000
55.77828 285.000
55.79822 259.000
55.81817 293.000
55.83812 258.000
55.85807 261.000
55.87801 235.000
55.89796 268.000
55.91791 251.000
55.93785 225.000
55.95780 232.000
55.97775 256.000
55.99769 261.000
56.01764 246.000
56.03759 241.000
56.05753 282.000
56.07748 234.000
56.09743 238.000
56.11738 228.000
56.13732 258.000
56.15727 236.000
56.17722 296.000
56.19716 298.000
56.21711 281.000
56.23706 266.000
56.25700 248.000
56.27695 244.000
56.29690 286.000
56.31685 215.000
56.33679 267.000
56.35674 289.000
56.37669 261.000
56.39663 260.000
56.41658 284.000
56.43653 225.000
56.45647 263.000
56.47642 238.000
56.49637 252.000
56.51631 227.000
56.53626 279.000
56.55621 263.000
56.57616 244.000
56.59610 242.000
56.61605 275.000
56.63600 268.000
56.65594 270.000
56.67589 267.000
56.69584 253.000
56.71578 271.000
56.73573 274.000
56.75568 261.000
56.77563 291.000
56.79557 251.000
56.81552 251.000
56.83547 251.000
56.85541 236.000
56.87536 271.000
56.89531 256.000
56.91525 265.000
56.93520 286.000
56.95515 260.000
56.97510 271.000
56.99504 252.000
57.01499 246.000
57.03494 260.000
57.05488 273.000
57.07483 269.000
57.09478 278.000
57.11472 263.000
57.13467 263.000
57.15462 273.000
57.17456 240.000
57.19451 235.000
57.21446 295.000
57.23441 266.000
57.25435 249.000
57.27430 253.000
57.29425 267.000
57.31419 242.000
57.33414 265.000
57.35409 255.000
57.37403 251.000
57.39398 279.000
57.41393 267.000
57.43388 261.000
57.45382 272.000
57.47377 260.000
57.49372 275.000
57.51366 241.000
57.53361 264.000
57.55356 262.000
57.57350 273.000
57.59345 250.000
57.61340 270.000
57.63334 263.000
57.65329 282.000
57.67324 269.000
57.69319 255.000
57.71313 258.000
57.73308 245.000
57.75303 274.000
57.77297 249.000
57.79292 256.000
57.81287 276.000
57.83281 265.000
57.85276 239.000
57.87271 270.000
57.89266 271.000
57.91260 268.000
57.93255 240.000
57.95250 260.000
57.97244 253.000
57.99239 270.000
58.01234 281.000
58.03228 270.000
58.05223 258.000
58.07218 263.000
58.09212 270.000
58.11207 237.000
58.13202 307.000
58.15197 258.000
58.17191 262.000
58.19186 260.000
58.21181 281.000
58.23175 264.000
58.25170 271.000
58.27165 262.000
58.29159 246.000
58.31154 254.000
58.33149 298.000
58.35144 270.000
58.37138 264.000
58.39133 272.000
58.41128 268.000
58.43122 266.000
58.45117 277.000
58.47112 283.000
58.49106 255.000
58.51101 284.000
58.53096 249.000
58.55090 267.000
58.57085 249.000
58.59080 252.000
58.61075 242.000
58.63069 267.000
58.65064 254.000
58.67059 248.000
58.69053 282.000
58.71048 238.000
58.73043 240.000
58.75037 239.000
58.77032 225.000
58.79027 248.000
58.81022 288.000
58.83016 284.000
58.85011 277.000
58.87006 281.000
58.89000 276.000
58.90995 273.000
58.92990 269.000
58.94984 249.000
58.96979 255.000
58.98974 245.000
59.00969 264.000
59.02963 254.000
59.04958 314.000
59.06953 246.000
59.08947 278.000
59.10942 265.000
59.12937 281.000
59.14931 239.000
59.16926 268.000
59.18921 265.000
59.20915 231.000
59.22910 271.000
59.24905 291.000
59.26900 252.000
59.28894 246.000
59.30889 272.000
59.32884 271.000
59.34878 242.000
59.36873 263.000
59.38868 258.000
59.40862 256.000
59.42857 243.000
59.44852 260.000
59.46847 275.000
59.48841 268.000
59.50836 291.000
59.52831 268.000
59.54825 261.000
59.56820 261.000
59.58815 262.000
59.60809 261.000
59.62804 299.000
59.64799 251.000
59.66793 246.000
59.68788 241.000
59.70783 278.000
59.72778 238.000
59.74772 274.000
59.76767 266.000
59.78762 234.000
59.80756 260.000
59.82751 268.000
59.84746 254.000
59.86740 284.000
59.88735 255.000
59.90730 288.000
59.92725 280.000
59.94719 285.000
59.96714 258.000
59.98709 262.000
60.00703 268.000
60.02698 245.000
60.04693 258.000
60.06687 262.000
60.08682 304.000
60.10677 265.000
60.12671 276.000
60.14666 283.000
60.16661 292.000
60.18656 274.000
60.20650 309.000
60.22645 286.000
60.24640 260.000
60.26634 292.000
60.28629 269.000
60.30624 288.000
60.32618 269.000
60.34613 270.000
60.36608 281.000
60.38603 277.000
60.40597 266.000
60.42592 300.000
60.44587 264.000
60.46581 292.000
60.48576 279.000
60.50571 291.000
60.52565 273.000
60.54560 257.000
60.56555 280.000
60.58550 286.000
60.60544 269.000
60.62539 277.000
60.64534 268.000
60.66528 267.000
60.68523 241.000
60.70518 276.000
60.72512 298.000
60.74507 291.000
60.76502 278.000
60.78496 276.000
60.80491 274.000
60.82486 228.000
60.84481 255.000
60.86475 301.000
60.88470 303.000
60.90465 275.000
60.92459 254.000
60.94454 268.000
60.96449 276.000
60.98443 285.000
61.00438 291.000
61.02433 307.000
61.04428 282.000
61.06422 283.000
61.08417 273.000
61.10412 268.000
61.12406 283.000
61.14401 268.000
61.16396 274.000
61.18390 284.000
61.20385 304.000
61.22380 264.000
61.24374 262.000
61.26369 258.000
61.28364 272.000
61.30359 270.000
61.32353 292.000
61.34348 271.000
61.36343 267.000
61.38337 292.000
61.40332 294.000
61.42327 287.000
61.44321 308.000
61.46316 300.000
61.48311 294.000
61.50306 270.000
61.52300 337.000
61.54295 299.000
61.56290 286.000
61.58284 295.000
61.60279 297.000
61.62274 283.000
61.64268 306.000
61.66263 300.000
61.68258 313.000
61.70252 303.000
61.72247 313.000
61.74242 296.000
61.76237 311.000
61.78231 302.000
61.80226 301.000
61.82221 327.000
61.84215 354.000
61.86210 330.000
61.88205 336.000
61.90199 349.000
61.92194 345.000
61.94189 379.000
61.96184 425.000
61.98178 383.000
62.00173 424.000
62.02168 439.000
62.04162 529.000
62.06157 476.000
62.08152 554.000
62.10146 524.000
62.12141 603.000
62.14136 611.000
62.16131 604.000
62.18125 615.000
62.20120 608.000
62.22115 593.000
62.24109 670.000
62.26104 628.000
62.28099 634.000
62.30093 590.000
62.32088 628.000
62.34083 572.000
62.36077 591.000
62.38072 584.000
62.40067 593.000
62.42062 625.000
62.44056 642.000
62.46051 626.000
62.48046 638.000
62.50040 726.000
62.52035 767.000
62.54030 886.000
62.56024 1010.000
62.58019 1246.000
62.60014 1437.000
62.62009 1629.000
62.64003 1960.000
62.65998 2219.000
62.67993 2422.000
62.69987 2510.000
62.71982 2716.000
62.73977 2767.000
62.75971 2825.000
62.77966 2721.000
62.79961 2587.000
62.81955 2479.000
62.83950 2429.000
62.85945 2202.000
62.87940 2135.000
62.89934 2007.000
62.91929 1829.000
62.93924 1611.000
62.95918 1402.000
62.97913 1268.000
62.99908 1060.000
63.01902 960.000
63.03897 778.000
63.05892 671.000
63.07887 643.000
63.09881 544.000
63.11876 483.000
63.13871 479.000
63.15865 408.000
63.17860 401.000
63.19855 384.000
63.21849 335.000
63.23844 320.000
63.25839 361.000
63.27833 317.000
63.29828 341.000
63.31823 343.000
63.33818 329.000
63.35812 332.000
63.37807 302.000
63.39802 322.000
63.41796 326.000
63.43791 323.000
63.45786 326.000
63.47780 287.000
63.49775 326.000
63.51770 316.000
63.53765 285.000
63.55759 295.000
63.57754 296.000
63.59749 304.000
63.61743 318.000
63.63738 311.000
63.65733 316.000
63.67727 307.000
63.69722 291.000
63.71717 311.000
63.73712 294.000
63.75706 305.000
63.77701 272.000
63.79696 301.000
63.81690 300.000
63.83685 310.000
63.85680 298.000
63.87674 279.000
63.89669 313.000
63.91664 294.000
63.93658 291.000
63.95653 294.000
63.97648 286.000
63.99643 313.000
64.01637 329.000
64.03632 300.000
64.05627 310.000
64.07621 294.000
64.09616 312.000
64.11611 334.000
64.13605 314.000
64.15600 346.000
64.17595 307.000
64.19590 349.000
64.21584 329.000
64.23579 361.000
64.25574 345.000
64.27568 350.000
64.29563 339.000
64.31558 331.000
64.33552 419.000
64.35547 406.000
64.37542 456.000
64.39536 455.000
64.41531 503.000
64.43526 476.000
64.45521 540.000
64.47515 525.000
64.49510 512.000
64.51505 532.000
64.53499 492.000
64.55494 488.000
64.57489 470.000
64.59483 469.000
64.61478 473.000
64.63473 462.000
64.65468 472.000
64.67462 448.000
64.69457 430.000
64.71452 368.000
64.73446 372.000
64.75441 422.000
64.77436 366.000
64.79430 362.000
64.81425 321.000
64.83420 344.000
64.85414 311.000
64.87409 324.000
64.89404 286.000
64.91399 316.000
64.93393 285.000
64.95388 310.000
64.97383 299.000
64.99377 302.000
65.01372 281.000
65.03367 314.000
65.05361 277.000
65.07356 313.000
65.09351 309.000
65.11346 288.000
65.13340 285.000
65.15335 336.000
65.17330 247.000
65.19324 300.000
65.21319 331.000
65.23314 306.000
65.25308 290.000
65.27303 306.000
65.29298 298.000
65.31293 312.000
65.33287 296.000
65.35282 320.000
65.37277 276.000
65.39271 313.000
65.41266 288.000
65.43261 333.000
65.45255 302.000
65.47250 294.000
65.49245 300.000
65.51239 304.000
65.53234 325.000
65.55229 324.000
65.57224 325.000
65.59218 324.000
65.61213 336.000
65.63208 318.000
65.65202 344.000
65.67197 324.000
65.69192 321.000
65.71186 339.000
65.73181 363.000
65.75176 381.000
65.77171 327.000
65.79165 331.000
65.81160 342.000
65.83155 359.000
65.85149 344.000
65.87144 344.000
65.89139 342.000
65.91133 323.000
65.93128 301.000
65.95123 316.000
65.97117 319.000
65.99112 287.000
66.01107 306.000
66.03102 277.000
66.05096 301.000
66.07091 301.000
66.09086 286.000
66.11080 265.000
66.13075 272.000
66.15070 285.000
66.17064 276.000
66.19059 289.000
66.21054 302.000
66.23049 269.000
66.25043 272.000
66.27038 263.000
66.29033 297.000
66.31027 295.000
66.33022 284.000
66.35017 283.000
66.37011 246.000
66.39006 284.000
66.41001 305.000
66.42995 304.000
66.44990 266.000
66.46985 264.000
66.48980 321.000
66.50974 288.000
66.52969 271.000
66.54964 281.000
66.56958 247.000
66.58953 294.000
66.60948 309.000
66.62942 293.000
66.64937 295.000
66.66932 352.000
66.68927 284.000
66.70921 302.000
66.72916 343.000
66.74911 370.000
66.76905 349.000
66.78900 381.000
66.80895 406.000
66.82889 442.000
66.84884 387.000
66.86879 410.000
66.88874 406.000
66.90868 436.000
66.92863 410.000
66.94858 435.000
66.96852 438.000
66.98847 426.000
67.00842 454.000
67.02836 421.000
67.04831 448.000
67.06826 417.000
67.08820 428.000
67.10815 412.000
67.12810 365.000
67.14805 386.000
67.16799 356.000
67.18794 362.000
67.20789 387.000
67.22783 349.000
67.24778 360.000
67.26773 334.000
67.28767 351.000
67.30762 258.000
67.32757 316.000
67.34752 295.000
67.36746 283.000
67.38741 291.000
67.40736 274.000
67.42730 316.000
67.44725 286.000
67.46720 282.000
67.48714 268.000
67.50709 287.000
67.52704 281.000
67.54698 284.000
67.56693 265.000
67.58688 240.000
67.60683 260.000
67.62677 289.000
67.64672 265.000
67.66667 267.000
67.68661 278.000
67.70656 262.000
67.72651 259.000
67.74645 250.000
67.76640 267.000
67.78635 258.000
67.80630 260.000
67.82624 286.000
67.84619 269.000
67.86614 252.000
67.88608 293.000
67.90603 295.000
67.92598 293.000
67.94592 275.000
67.96587 265.000
67.98582 260.000
68.00576 284.000
68.02571 262.000
68.04566 301.000
68.06561 260.000
68.08555 262.000
68.10550 253.000
68.12545 275.000
68.14539 265.000
68.16534 252.000
68.18529 282.000
68.20523 275.000
68.22518 274.000
68.24513 247.000
68.26508 278.000
68.28502 275.000
68.30497 278.000
68.32492 252.000
68.34486 233.000
68.36481 268.000
68.38476 241.000
68.40470 249.000
68.42465 250.000
68.44460 275.000
68.46455 291.000
68.48449 274.000
68.50444 261.000
68.52439 288.000
68.54433 252.000
68.56428 233.000
68.58423 256.000
68.60417 289.000
68.62412 224.000
68.64407 267.000
68.66401 246.000
68.68396 243.000
68.70391 237.000
68.72386 273.000
68.74380 254.000
68.76375 269.000
68.78370 247.000
68.80364 242.000
68.82359 270.000
68.84354 254.000
68.86348 290.000
68.88343 313.000
68.90338 264.000
68.92333 281.000
68.94327 255.000
68.96322 256.000
68.98317 263.000
69.00311 305.000
69.02306 268.000
69.04301 241.000
69.06295 272.000
69.08290 244.000
69.10285 259.000
69.12279 238.000
69.14274 270.000
69.16269 240.000
69.18264 281.000
69.20258 249.000
69.22253 256.000
69.24248 252.000
69.26242 275.000
69.28237 252.000
69.30232 257.000
69.32226 256.000
69.34221 271.000
69.36216 253.000
69.38211 259.000
69.40205 275.000
69.42200 282.000
69.44195 240.000
69.46189 250.000
69.48184 297.000
69.50179 247.000
69.52173 299.000
69.54168 281.000
69.56163 277.000
69.58157 245.000
69.60152 243.000
69.62147 254.000
69.64142 246.000
69.66136 248.000
69.68131 238.000
69.70126 229.000
69.72120 263.000
69.74115 281.000
69.76110 283.000
69.78104 261.000
69.80099 285.000
69.82094 234.000
69.84089 258.000
69.86083 280.000
69.88078 263.000
69.90073 232.000
69.92067 228.000
69.94062 274.000
69.96057 280.000
69.98051 276.000
70.00046 263.000
70.02041 268.000
70.04035 242.000
70.06030 256.000
70.08025 270.000
70.10020 271.000
70.12014 258.000
70.14009 257.000
70.16004 276.000
70.17998 269.000
70.19993 283.000
70.21988 266.000
70.23982 282.000
70.25977 235.000
70.27972 266.000
70.29967 260.000
70.31961 256.000
70.33956 247.000
70.35951 249.000
70.37945 268.000
70.39940 287.000
70.41935 238.000
70.43929 241.000
70.45924 237.000
70.47919 278.000
70.49914 282.000
70.51908 252.000
70.53903 265.000
70.55898 258.000
70.57892 252.000
70.59887 235.000
70.61882 269.000
70.63876 259.000
70.65871 279.000
70.67866 261.000
70.69860 268.000
70.71855 274.000
70.73850 262.000
70.75845 275.000
70.77839 265.000
70.79834 285.000
70.81829 266.000
70.83823 265.000
70.85818 250.000
70.87813 247.000
70.89807 254.000
70.91802 270.000
70.93797 263.000
70.95792 269.000
70.97786 266.000
70.99781 277.000
71.01776 249.000
71.03770 259.000
71.05765 276.000
71.07760 264.000
71.09754 288.000
71.11749 283.000
71.13744 261.000
71.15738 216.000
71.17733 258.000
71.19728 238.000
71.21723 276.000
71.23717 271.000
71.25712 280.000
71.27707 269.000
71.29701 251.000
71.31696 252.000
71.33691 261.000
71.35685 292.000
71.37680 232.000
71.39675 231.000
71.41670 277.000
71.43664 261.000
71.45659 289.000
71.47654 287.000
71.49648 273.000
71.51643 263.000
71.53638 252.000
71.55632 305.000
71.57627 237.000
71.59622 281.000
71.61616 271.000
71.63611 255.000
71.65606 275.000
71.67601 224.000
71.69595 289.000
71.71590 261.000
71.73585 256.000
71.75579 217.000
71.77574 245.000
71.79569 264.000
71.81563 248.000
71.83558 284.000
71.85553 257.000
71.87548 262.000
71.89542 245.000
71.91537 283.000
71.93532 284.000
71.95526 262.000
71.97521 271.000
71.99516 282.000
72.01510 255.000
72.03505 254.000
72.05500 263.000
72.07495 270.000
72.09489 244.000
72.11484 248.000
72.13479 257.000
72.15473 277.000
72.17468 236.000
72.19463 285.000
72.21457 246.000
72.23452 242.000
72.25447 283.000
72.27441 257.000
72.29436 253.000
72.31431 275.000
72.33426 266.000
72.35420 280.000
72.37415 241.000
72.39410 270.000
72.41404 263.000
72.43399 264.000
72.45394 244.000
72.47388 273.000
72.49383 251.000
72.51378 258.000
72.53373 235.000
72.55367 256.000
72.57362 265.000
72.59357 250.000
72.61351 235.000
72.63346 308.000
72.65341 253.000
72.67335 300.000
72.69330 245.000
72.71325 295.000
72.73319 290.000
72.75314 256.000
72.77309 248.000
72.79304 251.000
72.81298 265.000
72.83293 271.000
72.85288 262.000
72.87282 273.000
72.89277 239.000
72.91272 269.000
72.93266 300.000
72.95261 243.000
72.97256 282.000
72.99251 285.000
73.01245 274.000
73.03240 272.000
73.05235 268.000
73.07229 271.000
73.09224 257.000
73.11219 250.000
73.13213 283.000
73.15208 278.000
73.17203 254.000
73.19197 279.000
73.21192 272.000
73.23187 267.000
73.25182 265.000
73.27176 270.000
73.29171 258.000
73.31166 274.000
73.33160 249.000
73.35155 264.000
73.37150 269.000
73.39144 258.000
73.41139 250.000
73.43134 260.000
73.45129 281.000
73.47123 279.000
73.49118 284.000
73.51113 275.000
73.53107 261.000
73.55102 275.000
73.57097 289.000
73.59091 267.000
73.61086 299.000
73.63081 291.000
73.65076 300.000
73.67070 271.000
73.69065 297.000
73.71060 304.000
73.73054 302.000
73.75049 318.000
73.77044 340.000
73.79038 356.000
73.81033 318.000
73.83028 318.000
73.85022 350.000
73.87017 331.000
73.89012 328.000
73.91007 334.000
73.93001 301.000
73.94996 304.000
73.96991 312.000
73.98985 292.000
74.00980 296.000
74.02975 279.000
74.04969 328.000
74.06964 284.000
74.08959 300.000
74.10954 317.000
74.12948 324.000
74.14943 315.000
74.16938 268.000
74.18932 300.000
74.20927 315.000
74.22922 284.000
74.24916 288.000
74.26911 276.000
74.28906 267.000
74.30900 265.000
74.32895 256.000
74.34890 268.000
74.36885 309.000
74.38879 274.000
74.40874 286.000
74.42869 258.000
74.44863 281.000
74.46858 282.000
74.48853 303.000
74.50847 291.000
74.52842 283.000
74.54837 285.000
74.56832 298.000
74.58826 288.000
74.60821 303.000
74.62816 284.000
74.64810 326.000
74.66805 317.000
74.68800 274.000
74.70794 310.000
74.72789 269.000
74.74784 318.000
74.76778 325.000
74.78773 336.000
74.80768 332.000
74.82763 318.000
74.84757 323.000
74.86752 339.000
74.88747 364.000
74.90741 371.000
74.92736 365.000
74.94731 408.000
74.96725 424.000
74.98720 452.000
75.00715 495.000
75.02710 498.000
75.04704 610.000
75.06699 655.000
75.08694 717.000
75.10688 771.000
75.12683 884.000
75.14678 886.000
75.16672 939.000
75.18667 1027.000
75.20662 1067.000
75.22657 1059.000
75.24651 1068.000
75.26646 1009.000
75.28641 1002.000
75.30635 979.000
75.32630 943.000
75.34625 947.000
75.36619 948.000
75.38614 879.000
75.40609 857.000
75.42603 860.000
75.44598 815.000
75.46593 763.000
75.48588 705.000
75.50582 711.000
75.52577 632.000
75.54572 571.000
75.56566 497.000
75.58561 472.000
75.60556 452.000
75.62550 423.000
75.64545 384.000
75.66540 371.000
75.68535 325.000
75.70529 325.000
75.72524 305.000
75.74519 332.000
75.76513 306.000
75.78508 307.000
75.80503 301.000
75.82497 320.000
75.84492 335.000
75.86487 289.000
75.88481 312.000
75.90476 325.000
75.92471 284.000
75.94466 301.000
75.96460 299.000
75.98455 288.000
76.00450 294.000
76.02444 303.000
76.04439 312.000
76.06434 331.000
76.08428 255.000
76.10423 320.000
76.12418 316.000
76.14413 301.000
76.16407 284.000
76.18402 277.000
76.20397 290.000
76.22391 288.000
76.24386 269.000
76.26381 318.000
76.28375 283.000
76.30370 312.000
76.32365 311.000
76.34359 262.000
76.36354 298.000
76.38349 273.000
76.40344 279.000
76.42338 284.000
76.44333 295.000
76.46328 262.000
76.48322 266.000
76.50317 285.000
76.52312 286.000
76.54306 272.000
76.56301 303.000
76.58296 273.000
76.60291 291.000
76.62285 252.000
76.64280 287.000
76.66275 301.000
76.68269 285.000
76.70264 259.000
76.72259 287.000
76.74253 280.000
76.76248 257.000
76.78243 289.000
76.80238 267.000
76.82232 261.000
76.84227 276.000
76.86222 269.000
76.88216 262.000
76.90211 276.000
76.92206 288.000
76.94200 279.000
76.96195 282.000
76.98190 253.000
77.00184 275.000
77.02179 239.000
77.04174 253.000
77.06169 264.000
77.08163 252.000
77.10158 277.000
77.12153 264.000
77.14147 287.000
77.16142 289.000
77.18137 293.000
77.20131 272.000
77.22126 255.000
77.24121 260.000
77.26116 265.000
77.28110 238.000
77.30105 304.000
77.32100 255.000
77.34094 271.000
77.36089 244.000
77.38084 269.000
77.40078 263.000
77.42073 306.000
77.44068 268.000
77.46062 269.000
77.48057 261.000
77.50052 264.000
77.52047 276.000
77.54041 267.000
77.56036 279.000
77.58031 296.000
77.60025 264.000
77.62020 281.000
77.64015 282.000
77.66009 304.000
77.68004 278.000
77.69999 275.000
77.71994 266.000
77.73988 291.000
77.75983 295.000
77.77978 263.000
77.79972 286.000
77.81967 271.000
77.83962 299.000
77.85956 279.000
77.87951 275.000
77.89946 309.000
77.91940 297.000
77.93935 287.000
77.95930 291.000
77.97925 280.000
77.99919 280.000
78.01914 330.000
78.03909 266.000
78.05903 296.000
78.07898 326.000
78.09893 328.000
78.11887 315.000
78.13882 335.000
78.15877 322.000
78.17872 349.000
78.19866 308.000
78.21861 312.000
78.23856 331.000
78.25850 358.000
78.27845 362.000
78.29840 346.000
78.31834 380.000
78.33829 401.000
78.35824 369.000
78.37819 369.000
78.39813 389.000
78.41808 388.000
78.43803 345.000
78.45797 388.000
78.47792 386.000
78.49787 373.000
78.51781 345.000
78.53776 393.000
78.55771 374.000
78.57765 419.000
78.59760 333.000
78.61755 312.000
78.63750 356.000
78.65744 373.000
78.67739 320.000
78.69734 366.000
78.71728 339.000
78.73723 383.000
78.75718 334.000
78.77712 338.000
78.79707 309.000
78.81702 306.000
78.83697 362.000
78.85691 331.000
78.87686 363.000
78.89681 325.000
78.91675 366.000
78.93670 374.000
78.95665 381.000
78.97659 434.000
78.99654 398.000
79.01649 502.000
79.03643 566.000
79.05638 601.000
79.07633 637.000
79.09628 710.000
79.11622 767.000
79.13617 784.000
79.15612 874.000
79.17606 867.000
79.19601 848.000
79.21596 881.000
79.23590 893.000
79.25585 801.000
79.27580 771.000
79.29575 758.000
79.31569 710.000
79.33564 698.000
79.35559 726.000
79.37553 687.000
79.39548 722.000
79.41543 681.000
79.43537 599.000
79.45532 588.000
79.47527 571.000
79.49521 558.000
79.51516 524.000
79.53511 529.000
79.55506 424.000
79.57500 430.000
79.59495 403.000
79.61490 344.000
79.63484 338.000
79.65479 352.000
79.67474 328.000
79.69468 302.000
79.71463 287.000
79.73458 277.000
79.75453 314.000
79.77447 289.000
79.79442 271.000
79.81437 250.000
79.83431 278.000
79.85426 291.000
79.87421 251.000
79.89415 287.000
79.91410 249.000
79.93405 294.000
79.95399 279.000
79.97394 273.000
79.99389 242.000
80.01384 255.000
80.03378 253.000
80.05373 289.000
80.07368 280.000
80.09362 277.000
80.11357 253.000
80.13352 278.000
80.15346 286.000
80.17341 250.000
80.19336 254.000
80.21331 265.000
80.23325 242.000
80.25320 254.000
80.27315 254.000
80.29309 256.000
80.31304 279.000
80.33299 267.000
80.35293 244.000
80.37288 278.000
80.39283 264.000
80.41278 238.000
80.43272 238.000
80.45267 286.000
80.47262 265.000
80.49256 230.000
80.51251 245.000
80.53246 240.000
80.55240 292.000
80.57235 268.000
80.59230 269.000
80.61224 281.000
80.63219 277.000
80.65214 295.000
80.67209 283.000
80.69203 263.000
80.71198 271.000
80.73193 284.000
80.75187 299.000
80.77182 276.000
80.79177 242.000
80.81171 283.000
80.83166 233.000
80.85161 258.000
80.87156 279.000
80.89150 271.000
80.91145 222.000
80.93140 286.000
80.95134 246.000
80.97129 289.000
80.99124 289.000
81.01118 262.000
81.03113 250.000
81.05108 254.000
81.07102 291.000
81.09097 298.000
81.11092 247.000
81.13087 268.000
81.15081 297.000
81.17076 284.000
81.19071 278.000
81.21065 297.000
81.23060 265.000
81.25055 251.000
81.27049 286.000
81.29044 301.000
81.31039 276.000
81.33034 266.000
81.35028 260.000
81.37023 259.000
81.39018 253.000
81.41012 259.000
81.43007 256.000
81.45002 285.000
81.46996 291.000
81.48991 286.000
81.50986 253.000
81.52980 277.000
81.54975 243.000
81.56970 269.000
81.58965 285.000
81.60959 264.000
81.62954 262.000
81.64949 215.000
81.66943 266.000
81.68938 275.000
81.70933 254.000
81.72927 296.000
81.74922 265.000
81.76917 301.000
81.78912 266.000
81.80906 267.000
81.82901 269.000
81.84896 269.000
81.86890 270.000
81.88885 264.000
81.90880 265.000
81.92874 247.000
81.94869 258.000
81.96864 271.000
81.98859 251.000
82.00853 259.000
82.02848 256.000
82.04843 281.000
82.06837 280.000
82.08832 259.000
82.10827 271.000
82.12821 250.000
82.14816 289.000
82.16811 257.000
82.18805 272.000
82.20800 264.000
82.22795 263.000
82.24790 248.000
82.26784 234.000
82.28779 260.000
82.30774 273.000
82.32768 271.000
82.34763 249.000
82.36758 282.000
82.38752 277.000
82.40747 261.000
82.42742 281.000
82.44737 262.000
82.46731 242.000
82.48726 271.000
82.50721 281.000
82.52715 285.000
82.54710 260.000
82.56705 240.000
82.58699 282.000
82.60694 269.000
82.62689 293.000
82.64683 235.000
82.66678 254.000
82.68673 277.000
82.70668 246.000
82.72662 263.000
82.74657 259.000
82.76652 261.000
82.78646 264.000
82.80641 275.000
82.82636 286.000
82.84630 279.000
82.86625 252.000
82.88620 281.000
82.90615 281.000
82.92609 264.000
82.94604 283.000
82.96599 250.000
82.98593 247.000
83.00588 257.000
83.02583 263.000
83.04577 260.000
83.06572 266.000
83.08567 264.000
83.10561 271.000
83.12556 244.000
83.14551 265.000
83.16546 267.000
83.18540 270.000
83.20535 297.000
83.22530 243.000
83.24524 263.000
83.26519 270.000
83.28514 277.000
83.30508 238.000
83.32503 263.000
83.34498 274.000
83.36493 238.000
83.38487 275.000
83.40482 255.000
83.42477 293.000
83.44471 267.000
83.46466 259.000
83.48461 255.000
83.50455 273.000
83.52450 271.000
83.54445 270.000
83.56440 269.000
83.58434 273.000
83.60429 249.000
83.62424 270.000
83.64418 252.000
83.66413 254.000
83.68408 258.000
83.70402 266.000
83.72397 250.000
83.74392 257.000
83.76386 255.000
83.78381 257.000
83.80376 261.000
83.82371 239.000
83.84365 238.000
83.86360 264.000
83.88355 260.000
83.90349 271.000
83.92344 245.000
83.94339 295.000
83.96333 251.000
83.98328 253.000
84.00323 225.000
84.02318 252.000
84.04312 288.000
84.06307 259.000
84.08302 260.000
84.10296 277.000
84.12291 270.000
84.14286 268.000
84.16280 247.000
84.18275 270.000
84.20270 287.000
84.22264 288.000
84.24259 245.000
84.26254 274.000
84.28249 278.000
84.30243 238.000
84.32238 314.000
84.34233 255.000
84.36227 268.000
84.38222 231.000
84.40217 295.000
84.42211 258.000
84.44206 287.000
84.46201 257.000
84.48196 272.000
84.50190 267.000
84.52185 266.000
84.54180 296.000
84.56174 256.000
84.58169 284.000
84.60164 304.000
84.62158 257.000
84.64153 296.000
84.66148 292.000
84.68142 277.000
84.70137 296.000
84.72132 294.000
84.74127 319.000
84.76121 293.000
84.78116 318.000
84.80111 319.000
84.82105 308.000
84.84100 327.000
84.86095 327.000
84.88089 332.000
84.90084 353.000
84.92079 329.000
84.94074 336.000
84.96068 298.000
84.98063 313.000
85.00058 294.000
85.02052 353.000
85.04047 308.000
85.06042 301.000
85.08036 322.000
85.10031 303.000
85.12026 288.000
85.14021 308.000
85.16015 320.000
85.18010 311.000
85.20005 301.000
85.21999 303.000
85.23994 277.000
85.25989 277.000
85.27983 312.000
85.29978 291.000
85.31973 314.000
85.33967 306.000
85.35962 274.000
85.37957 272.000
85.39952 313.000
85.41946 278.000
85.43941 272.000
85.45936 265.000
85.47930 267.000
85.49925 283.000
85.51920 262.000
85.53914 265.000
85.55909 233.000
85.57904 305.000
85.59899 267.000
85.61893 288.000
85.63888 263.000
85.65883 269.000
85.67877 261.000
85.69872 259.000
85.71867 287.000
85.73861 277.000
85.75856 254.000
85.77851 231.000
85.79845 277.000
85.81840 253.000
85.83835 243.000
85.85830 249.000
85.87824 253.000
85.89819 250.000
85.91814 265.000
85.93808 255.000
85.95803 247.000
85.97798 287.000
85.99792 264.000
86.01787 257.000
86.03782 284.000
86.05777 235.000
86.07771 218.000
86.09766 253.000
86.11761 254.000
86.13755 271.000
86.15750 288.000
86.17745 251.000
86.19739 250.000
86.21734 295.000
86.23729 268.000
86.25723 257.000
86.27718 284.000
86.29713 237.000
86.31708 273.000
86.33702 270.000
86.35697 244.000
86.37692 254.000
86.39686 257.000
86.41681 246.000
86.43676 224.000
86.45670 271.000
86.47665 238.000
86.49660 240.000
86.51655 262.000
86.53649 245.000
86.55644 241.000
86.57639 266.000
86.59633 261.000
86.61628 271.000
86.63623 246.000
86.65617 269.000
86.67612 277.000
86.69607 274.000
86.71602 313.000
86.73596 282.000
86.75591 241.000
86.77586 312.000
86.79580 269.000
86.81575 272.000
86.83570 249.000
86.85564 280.000
86.87559 276.000
86.89554 248.000
86.91548 272.000
86.93543 301.000
86.95538 284.000
86.97533 245.000
86.99527 290.000
87.01522 299.000
87.03517 283.000
87.05511 262.000
87.07506 290.000
87.09501 274.000
87.11495 321.000
87.13490 250.000
87.15485 292.000
87.17480 309.000
87.19474 290.000
87.21469 281.000
87.23464 309.000
87.25458 321.000
87.27453 286.000
87.29448 278.000
87.31442 294.000
87.33437 274.000
87.35432 305.000
87.37426 288.000
87.39421 307.000
87.41416 287.000
87.43411 274.000
87.45405 302.000
87.47400 281.000
87.49395 272.000
87.51389 273.000
87.53384 262.000
87.55379 283.000
87.57373 271.000
87.59368 279.000
87.61363 294.000
87.63358 294.000
87.65352 284.000
87.67347 290.000
87.69342 266.000
87.71336 287.000
87.73331 275.000
87.75326 283.000
87.77320 296.000
87.79315 282.000
87.81310 275.000
87.83304 254.000
87.85299 266.000
87.87294 279.000
87.89289 270.000
87.91283 286.000
87.93278 261.000
87.95273 235.000
87.97267 255.000
87.99262 280.000
88.01257 298.000
88.03251 323.000
88.05246 267.000
88.07241 284.000
88.09236 286.000
88.11230 286.000
88.13225 245.000
88.15220 247.000
88.17214 260.000
88.19209 264.000
88.21204 291.000
88.23198 278.000
88.25193 265.000
88.27188 247.000
88.29183 302.000
88.31177 275.000
88.33172 270.000
88.35167 260.000
88.37161 305.000
88.39156 299.000
88.41151 256.000
88.43145 251.000
88.45140 262.000
88.47135 271.000
88.49129 273.000
88.51124 248.000
88.53119 256.000
88.55114 259.000
88.57108 241.000
88.59103 265.000
88.61098 276.000
88.63092 236.000
88.65087 250.000
88.67082 274.000
88.69076 288.000
88.71071 276.000
88.73066 273.000
88.75061 273.000
88.77055 253.000
88.79050 271.000
88.81045 271.000
88.83039 262.000
88.85034 241.000
88.87029 278.000
88.89023 290.000
88.91018 276.000
88.93013 241.000
88.95007 264.000
88.97002 251.000
88.98997 276.000
89.00992 246.000
89.02986 240.000
89.04981 255.000
89.06976 235.000
89.08970 219.000
89.10965 268.000
89.12960 262.000
89.14954 256.000
89.16949 271.000
89.18944 265.000
89.20939 249.000
89.22933 284.000
89.24928 255.000
89.26923 237.000
89.28917 268.000
89.30912 266.000
89.32907 270.000
89.34901 265.000
89.36896 248.000
89.38891 250.000
89.40885 276.000
89.42880 261.000
89.44875 268.000
89.46870 269.000
89.48864 256.000
89.50859 264.000
89.52854 237.000
89.54848 245.000
89.56843 257.000
89.58838 263.000
89.60832 251.000
89.62827 244.000
89.64822 234.000
89.66817 286.000
89.68811 255.000
89.70806 239.000
89.72801 226.000
89.74795 278.000
89.76790 229.000
89.78785 229.000
89.80779 251.000
89.82774 239.000
89.84769 259.000
89.86764 252.000
89.88758 242.000
89.90753 275.000
89.92748 274.000
89.94742 258.000
89.96737 291.000
89.98732 266.000
90.00726 254.000
