10.00000 538.000
10.01995 507.000
10.03989 490.000
10.05984 515.000
10.07979 503.000
10.09973 522.000
10.11968 537.000
10.13963 505.000
10.15958 534.000
10.17952 484.000
10.19947 497.000
10.21942 513.000
10.23936 540.000
10.25931 563.000
10.27926 535.000
10.29920 507.000
10.31915 493.000
10.33910 539.000
10.35905 500.000
10.37899 525.000
10.39894 524.000
10.41889 492.000
10.43883 468.000
10.45878 489.000
10.47873 460.000
10.49867 513.000
10.51862 517.000
10.53857 508.000
10.55851 492.000
10.57846 516.000
10.59841 509.000
10.61836 515.000
10.63830 519.000
10.65825 524.000
10.67820 484.000
10.69814 503.000
10.71809 535.000
10.73804 558.000
10.75798 489.000
10.77793 544.000
10.79788 505.000
10.81783 547.000
10.83777 536.000
10.85772 506.000
10.87767 479.000
10.89761 494.000
10.91756 516.000
10.93751 567.000
10.95745 530.000
10.97740 501.000
10.99735 504.000
11.01730 557.000
11.03724 466.000
11.05719 539.000
11.07714 497.000
11.09708 511.000
11.11703 540.000
11.13698 542.000
11.15692 526.000
11.17687 510.000
11.19682 509.000
11.21676 524.000
11.23671 547.000
11.25666 565.000
11.27661 509.000
11.29655 547.000
11.31650 564.000
11.33645 499.000
11.35639 539.000
11.37634 537.000
11.39629 511.000
11.41623 524.000
11.43618 554.000
11.45613 565.000
11.47608 502.000
11.49602 564.000
11.51597 524.000
11.53592 539.000
11.55586 511.000
11.57581 480.000
11.59576 487.000
11.61570 514.000
11.63565 529.000
11.65560 538.000
11.67554 499.000
11.69549 575.000
11.71544 571.000
11.73539 548.000
11.75533 575.000
11.77528 569.000
11.79523 521.000
11.81517 537.000
11.83512 523.000
11.85507 563.000
11.87501 516.000
11.89496 542.000
11.91491 504.000
11.93486 569.000
11.95480 499.000
11.97475 525.000
11.99470 592.000
12.01464 537.000
12.03459 549.000
12.05454 543.000
12.07448 519.000
12.09443 568.000
12.11438 535.000
12.13432 537.000
12.15427 571.000
12.17422 517.000
12.19417 560.000
12.21411 538.000
12.23406 564.000
12.25401 537.000
12.27395 514.000
12.29390 526.000
12.31385 528.000
12.33379 534.000
12.35374 489.000
12.37369 519.000
12.39364 545.000
12.41358 539.000
12.43353 498.000
12.45348 603.000
12.47342 513.000
12.49337 513.000
12.51332 544.000
12.53326 567.000
12.55321 474.000
12.57316 548.000
12.59311 546.000
12.61305 550.000
12.63300 523.000
12.65295 510.000
12.67289 523.000
12.69284 527.000
12.71279 543.000
12.73273 569.000
12.75268 489.000
12.77263 544.000
12.79257 516.000
12.81252 498.000
12.83247 520.000
12.85242 562.000
12.87236 506.000
12.89231 557.000
12.91226 553.000
12.93220 506.000
12.95215 558.000
12.97210 560.000
12.99204 549.000
13.01199 560.000
13.03194 548.000
13.05189 515.000
13.07183 596.000
13.09178 522.000
13.11173 548.000
13.13167 571.000
13.15162 563.000
13.17157 536.000
13.19151 586.000
13.21146 580.000
13.23141 557.000
13.25135 561.000
13.27130 515.000
13.29125 526.000
13.31120 520.000
13.33114 554.000
13.35109 564.000
13.37104 536.000
13.39098 542.000
13.41093 519.000
13.43088 528.000
13.45082 563.000
13.47077 553.000
13.49072 571.000
13.51067 585.000
13.53061 553.000
13.55056 546.000
13.57051 568.000
13.59045 516.000
13.61040 556.000
13.63035 556.000
13.65029 566.000
13.67024 568.000
13.69019 536.000
13.71013 539.000
13.73008 596.000
13.75003 573.000
13.76998 530.000
13.78992 546.000
13.80987 503.000
13.82982 512.000
13.84976 539.000
13.86971 542.000
13.88966 564.000
13.90960 561.000
13.92955 531.000
13.94950 537.000
13.96945 564.000
13.98939 547.000
14.00934 530.000
14.02929 539.000
14.04923 579.000
14.06918 538.000
14.08913 566.000
14.10907 565.000
14.12902 532.000
14.14897 591.000
14.16892 597.000
14.18886 539.000
14.20881 534.000
14.22876 553.000
14.24870 598.000
14.26865 578.000
14.28860 527.000
14.30854 543.000
14.32849 556.000
14.34844 582.000
14.36838 625.000
14.38833 574.000
14.40828 535.000
14.42823 557.000
14.44817 565.000
14.46812 547.000
14.48807 551.000
14.50801 582.000
14.52796 518.000
14.54791 579.000
14.56785 555.000
14.58780 574.000
14.60775 567.000
14.62770 541.000
14.64764 513.000
14.66759 580.000
14.68754 549.000
14.70748 551.000
14.72743 566.000
14.74738 532.000
14.76732 570.000
14.78727 518.000
14.80722 579.000
14.82716 508.000
14.84711 570.000
14.86706 562.000
14.88701 565.000
14.90695 602.000
14.92690 531.000
14.94685 563.000
14.96679 578.000
14.98674 557.000
15.00669 533.000
15.02663 567.000
15.04658 541.000
15.06653 543.000
15.08648 547.000
15.10642 569.000
15.12637 591.000
15.14632 549.000
15.16626 542.000
15.18621 569.000
15.20616 586.000
15.22610 580.000
15.24605 580.000
15.26600 552.000
15.28594 598.000
15.30589 568.000
15.32584 555.000
15.34579 537.000
15.36573 582.000
15.38568 565.000
15.40563 623.000
15.42557 546.000
15.44552 578.000
15.46547 579.000
15.48541 547.000
15.50536 601.000
15.52531 623.000
15.54526 629.000
15.56520 608.000
15.58515 636.000
15.60510 709.000
15.62504 691.000
15.64499 734.000
15.66494 819.000
15.68488 812.000
15.70483 1024.000
15.72478 1118.000
15.74472 1429.000
15.76467 1774.000
15.78462 2265.000
15.80457 2836.000
15.82451 3424.000
15.84446 3921.000
15.86441 4278.000
15.88435 4450.000
15.90430 4073.000
15.92425 2968.000
15.94419 2129.000
15.96414 1361.000
15.98409 901.000
16.00404 731.000
16.02398 698.000
16.04393 649.000
16.06388 662.000
16.08382 619.000
16.10377 595.000
16.12372 569.000
16.14366 627.000
16.16361 561.000
16.18356 599.000
16.20351 590.000
16.22345 578.000
16.24340 540.000
16.26335 583.000
16.28329 572.000
16.30324 574.000
16.32319 574.000
16.34313 539.000
16.36308 561.000
16.38303 582.000
16.40297 566.000
16.42292 578.000
16.44287 571.000
16.46282 572.000
16.48276 568.000
16.50271 540.000
16.52266 539.000
16.54260 569.000
16.56255 562.000
16.58250 548.000
16.60244 537.000
16.62239 526.000
16.64234 588.000
16.66229 553.000
16.68223 624.000
16.70218 507.000
16.72213 555.000
16.74207 577.000
16.76202 613.000
16.78197 574.000
16.80191 534.000
16.82186 562.000
16.84181 606.000
16.86175 553.000
16.88170 559.000
16.90165 552.000
16.92160 558.000
16.94154 594.000
16.96149 532.000
16.98144 571.000
17.00138 596.000
17.02133 573.000
17.04128 544.000
17.06122 568.000
17.08117 596.000
17.10112 524.000
17.12107 582.000
17.14101 559.000
17.16096 571.000
17.18091 590.000
17.20085 529.000
17.22080 564.000
17.24075 551.000
17.26069 569.000
17.28064 584.000
17.30059 582.000
17.32053 554.000
17.34048 520.000
17.36043 555.000
17.38038 610.000
17.40032 562.000
17.42027 535.000
17.44022 521.000
17.46016 615.000
17.48011 579.000
17.50006 576.000
17.52000 613.000
17.53995 547.000
17.55990 602.000
17.57985 596.000
17.59979 564.000
17.61974 546.000
17.63969 559.000
17.65963 548.000
17.67958 598.000
17.69953 585.000
17.71947 524.000
17.73942 545.000
17.75937 528.000
17.77932 558.000
17.79926 562.000
17.81921 590.000
17.83916 591.000
17.85910 584.000
17.87905 556.000
17.89900 553.000
17.91894 567.000
17.93889 553.000
17.95884 596.000
17.97878 591.000
17.99873 567.000
18.01868 600.000
18.03863 568.000
18.05857 583.000
18.07852 548.000
18.09847 565.000
18.11841 569.000
18.13836 568.000
18.15831 562.000
18.17825 604.000
18.19820 543.000
18.21815 586.000
18.23810 566.000
18.25804 576.000
18.27799 594.000
18.29794 520.000
18.31788 598.000
18.33783 566.000
18.35778 587.000
18.37772 553.000
18.39767 556.000
18.41762 545.000
18.43756 571.000
18.45751 582.000
18.47746 572.000
18.49741 643.000
18.51735 568.000
18.53730 581.000
18.55725 612.000
18.57719 620.000
18.59714 556.000
18.61709 562.000
18.63703 535.000
18.65698 531.000
18.67693 549.000
18.69688 512.000
18.71682 622.000
18.73677 572.000
18.75672 543.000
18.77666 535.000
18.79661 567.000
18.81656 572.000
18.83650 560.000
18.85645 569.000
18.87640 545.000
18.89634 565.000
18.91629 590.000
18.93624 610.000
18.95619 608.000
18.97613 583.000
18.99608 534.000
19.01603 548.000
19.03597 577.000
19.05592 580.000
19.07587 617.000
19.09581 556.000
19.11576 596.000
19.13571 603.000
19.15566 603.000
19.17560 571.000
19.19555 569.000
19.21550 553.000
19.23544 576.000
19.25539 577.000
19.27534 587.000
19.29528 631.000
19.31523 567.000
19.33518 573.000
19.35513 540.000
19.37507 548.000
19.39502 572.000
19.41497 558.000
19.43491 527.000
19.45486 580.000
19.47481 602.000
19.49475 589.000
19.51470 568.000
19.53465 554.000
19.55459 558.000
19.57454 571.000
19.59449 525.000
19.61444 574.000
19.63438 604.000
19.65433 579.000
19.67428 581.000
19.69422 541.000
19.71417 557.000
19.73412 568.000
19.75406 551.000
19.77401 563.000
19.79396 558.000
19.81391 542.000
19.83385 591.000
19.85380 579.000
19.87375 597.000
19.89369 593.000
19.91364 588.000
19.93359 582.000
19.95353 575.000
19.97348 542.000
19.99343 580.000
20.01337 581.000
20.03332 593.000
20.05327 597.000
20.07322 578.000
20.09316 626.000
20.11311 523.000
20.13306 593.000
20.15300 564.000
20.17295 581.000
20.19290 576.000
20.21284 605.000
20.23279 587.000
20.25274 554.000
20.27269 606.000
20.29263 570.000
20.31258 548.000
20.33253 562.000
20.35247 577.000
20.37242 531.000
20.39237 587.000
20.41231 600.000
20.43226 579.000
20.45221 614.000
20.47215 584.000
20.49210 593.000
20.51205 563.000
20.53200 629.000
20.55194 592.000
20.57189 615.000
20.59184 600.000
20.61178 548.000
20.63173 580.000
20.65168 604.000
20.67162 559.000
20.69157 618.000
20.71152 578.000
20.73147 549.000
20.75141 569.000
20.77136 611.000
20.79131 594.000
20.81125 548.000
20.83120 608.000
20.85115 608.000
20.87109 595.000
20.89104 534.000
20.91099 576.000
20.93094 555.000
20.95088 584.000
20.97083 596.000
20.99078 563.000
21.01072 590.000
21.03067 621.000
21.05062 639.000
21.07056 555.000
21.09051 643.000
21.11046 653.000
21.13040 627.000
21.15035 712.000
21.17030 658.000
21.19025 630.000
21.21019 637.000
21.23014 624.000
21.25009 552.000
21.27003 591.000
21.28998 583.000
21.30993 593.000
21.32987 535.000
21.34982 567.000
21.36977 554.000
21.38972 555.000
21.40966 619.000
21.42961 591.000
21.44956 597.000
21.46950 587.000
21.48945 595.000
21.50940 595.000
21.52934 581.000
21.54929 574.000
21.56924 583.000
21.58918 576.000
21.60913 589.000
21.62908 568.000
21.64903 582.000
21.66897 591.000
21.68892 584.000
21.70887 580.000
21.72881 580.000
21.74876 585.000
21.76871 579.000
21.78865 615.000
21.80860 607.000
21.82855 586.000
21.84850 643.000
21.86844 576.000
21.88839 528.000
21.90834 572.000
21.92828 566.000
21.94823 583.000
21.96818 584.000
21.98812 557.000
22.00807 569.000
22.02802 623.000
22.04796 609.000
22.06791 558.000
22.08786 594.000
22.10781 596.000
22.12775 561.000
22.14770 561.000
22.16765 589.000
22.18759 532.000
22.20754 544.000
22.22749 596.000
22.24743 576.000
22.26738 578.000
22.28733 594.000
22.30728 621.000
22.32722 577.000
22.34717 582.000
22.36712 612.000
22.38706 601.000
22.40701 602.000
22.42696 564.000
22.44690 611.000
22.46685 601.000
22.48680 557.000
22.50675 539.000
22.52669 551.000
22.54664 595.000
22.56659 561.000
22.58653 533.000
22.60648 564.000
22.62643 592.000
22.64637 590.000
22.66632 591.000
22.68627 569.000
22.70621 575.000
22.72616 581.000
22.74611 583.000
22.76606 555.000
22.78600 533.000
22.80595 622.000
22.82590 608.000
22.84584 559.000
22.86579 599.000
22.88574 607.000
22.90568 572.000
22.92563 623.000
22.94558 591.000
22.96553 610.000
22.98547 583.000
23.00542 617.000
23.02537 568.000
23.04531 596.000
23.06526 564.000
23.08521 610.000
23.10515 592.000
23.12510 596.000
23.14505 558.000
23.16499 591.000
23.18494 609.000
23.20489 652.000
23.22484 616.000
23.24478 581.000
23.26473 564.000
23.28468 592.000
23.30462 543.000
23.32457 560.000
23.34452 582.000
23.36446 562.000
23.38441 579.000
23.40436 615.000
23.42431 578.000
23.44425 580.000
23.46420 593.000
23.48415 616.000
23.50409 559.000
23.52404 585.000
23.54399 596.000
23.56393 584.000
23.58388 593.000
23.60383 579.000
23.62377 597.000
23.64372 580.000
23.66367 591.000
23.68362 598.000
23.70356 572.000
23.72351 577.000
23.74346 518.000
23.76340 546.000
23.78335 583.000
23.80330 629.000
23.82324 576.000
23.84319 564.000
23.86314 533.000
23.88309 558.000
23.90303 595.000
23.92298 604.000
23.94293 612.000
23.96287 588.000
23.98282 560.000
24.00277 587.000
24.02271 647.000
24.04266 596.000
24.06261 628.000
24.08256 569.000
24.10250 597.000
24.12245 588.000
24.14240 570.000
24.16234 597.000
24.18229 588.000
24.20224 556.000
24.22218 549.000
24.24213 624.000
24.26208 587.000
24.28202 580.000
24.30197 603.000
24.32192 613.000
24.34187 567.000
24.36181 582.000
24.38176 559.000
24.40171 622.000
24.42165 617.000
24.44160 613.000
24.46155 548.000
24.48149 627.000
24.50144 603.000
24.52139 563.000
24.54134 583.000
24.56128 571.000
24.58123 580.000
24.60118 581.000
24.62112 626.000
24.64107 626.000
24.66102 645.000
24.68096 579.000
24.70091 543.000
24.72086 619.000
24.74080 636.000
24.76075 575.000
24.78070 617.000
24.80065 615.000
24.82059 555.000
24.84054 558.000
24.86049 559.000
24.88043 592.000
24.90038 649.000
24.92033 575.000
24.94027 565.000
24.96022 617.000
24.98017 618.000
25.00012 543.000
25.02006 600.000
25.04001 572.000
25.05996 623.000
25.07990 620.000
25.09985 607.000
25.11980 554.000
25.13974 620.000
25.15969 586.000
25.17964 583.000
25.19958 579.000
25.21953 620.000
25.23948 598.000
25.25943 597.000
25.27937 600.000
25.29932 574.000
25.31927 611.000
25.33921 588.000
25.35916 613.000
25.37911 621.000
25.39905 635.000
25.41900 573.000
25.43895 601.000
25.45890 603.000
25.47884 520.000
25.49879 616.000
25.51874 612.000
25.53868 559.000
25.55863 552.000
25.57858 620.000
25.59852 609.000
25.61847 611.000
25.63842 595.000
25.65837 566.000
25.67831 594.000
25.69826 640.000
25.71821 590.000
25.73815 576.000
25.75810 556.000
25.77805 594.000
25.79799 617.000
25.81794 567.000
25.83789 589.000
25.85783 563.000
25.87778 618.000
25.89773 569.000
25.91768 558.000
25.93762 571.000
25.95757 610.000
25.97752 603.000
25.99746 615.000
26.01741 577.000
26.03736 582.000
26.05730 585.000
26.07725 583.000
26.09720 606.000
26.11715 599.000
26.13709 577.000
26.15704 614.000
26.17699 600.000
26.19693 570.000
26.21688 584.000
26.23683 580.000
26.25677 655.000
26.27672 556.000
26.29667 620.000
26.31661 566.000
26.33656 597.000
26.35651 611.000
26.37646 602.000
26.39640 565.000
26.41635 612.000
26.43630 619.000
26.45624 601.000
26.47619 610.000
26.49614 573.000
26.51608 582.000
26.53603 612.000
26.55598 607.000
26.57593 568.000
26.59587 622.000
26.61582 588.000
26.63577 612.000
26.65571 610.000
26.67566 601.000
26.69561 596.000
26.71555 558.000
26.73550 624.000
26.75545 605.000
26.77539 598.000
26.79534 593.000
26.81529 629.000
26.83524 613.000
26.85518 581.000
26.87513 625.000
26.89508 571.000
26.91502 546.000
26.93497 583.000
26.95492 620.000
26.97486 622.000
26.99481 586.000
27.01476 581.000
27.03471 578.000
27.05465 593.000
27.07460 615.000
27.09455 610.000
27.11449 636.000
27.13444 541.000
27.15439 581.000
27.17433 605.000
27.19428 637.000
27.21423 633.000
27.23417 635.000
27.25412 626.000
27.27407 649.000
27.29402 601.000
27.31396 603.000
27.33391 605.000
27.35386 588.000
27.37380 607.000
27.39375 645.000
27.41370 650.000
27.43364 601.000
27.45359 595.000
27.47354 603.000
27.49349 638.000
27.51343 590.000
27.53338 652.000
27.55333 639.000
27.57327 594.000
27.59322 601.000
27.61317 577.000
27.63311 619.000
27.65306 603.000
27.67301 597.000
27.69296 643.000
27.71290 609.000
27.73285 621.000
27.75280 602.000
27.77274 625.000
27.79269 648.000
27.81264 617.000
27.83258 604.000
27.85253 616.000
27.87248 596.000
27.89242 573.000
27.91237 574.000
27.93232 596.000
27.95227 615.000
27.97221 628.000
27.99216 568.000
28.01211 583.000
28.03205 617.000
28.05200 602.000
28.07195 571.000
28.09189 591.000
28.11184 605.000
28.13179 616.000
28.15174 601.000
28.17168 614.000
28.19163 626.000
28.21158 614.000
28.23152 634.000
28.25147 597.000
28.27142 615.000
28.29136 639.000
28.31131 609.000
28.33126 637.000
28.35120 622.000
28.37115 635.000
28.39110 629.000
28.41105 576.000
28.43099 638.000
28.45094 631.000
28.47089 622.000
28.49083 617.000
28.51078 597.000
28.53073 607.000
28.55067 607.000
28.57062 608.000
28.59057 599.000
28.61052 610.000
28.63046 625.000
28.65041 598.000
28.67036 577.000
28.69030 578.000
28.71025 588.000
28.73020 595.000
28.75014 586.000
28.77009 623.000
28.79004 607.000
28.80998 600.000
28.82993 622.000
28.84988 624.000
28.86983 596.000
28.88977 564.000
28.90972 607.000
28.92967 557.000
28.94961 612.000
28.96956 617.000
28.98951 629.000
29.00945 592.000
29.02940 598.000
29.04935 603.000
29.06930 586.000
29.08924 597.000
29.10919 574.000
29.12914 624.000
29.14908 600.000
29.16903 603.000
29.18898 608.000
29.20892 634.000
29.22887 583.000
29.24882 565.000
29.26877 622.000
29.28871 634.000
29.30866 617.000
29.32861 674.000
29.34855 607.000
29.36850 636.000
29.38845 655.000
29.40839 614.000
29.42834 631.000
29.44829 599.000
29.46823 620.000
29.48818 567.000
29.50813 633.000
29.52808 616.000
29.54802 614.000
29.56797 575.000
29.58792 635.000
29.60786 593.000
29.62781 580.000
29.64776 641.000
29.66770 646.000
29.68765 606.000
29.70760 660.000
29.72755 583.000
29.74749 624.000
29.76744 605.000
29.78739 623.000
29.80733 612.000
29.82728 593.000
29.84723 574.000
29.86717 617.000
29.88712 582.000
29.90707 581.000
29.92701 628.000
29.94696 642.000
29.96691 586.000
29.98686 592.000
30.00680 608.000
30.02675 655.000
30.04670 596.000
30.06664 619.000
30.08659 630.000
30.10654 585.000
30.12648 592.000
30.14643 601.000
30.16638 579.000
30.18633 618.000
30.20627 625.000
30.22622 610.000
30.24617 581.000
30.26611 589.000
30.28606 607.000
30.30601 649.000
30.32595 584.000
30.34590 618.000
30.36585 617.000
30.38579 641.000
30.40574 605.000
30.42569 585.000
30.44564 628.000
30.46558 600.000
30.48553 620.000
30.50548 625.000
30.52542 631.000
30.54537 608.000
30.56532 627.000
30.58526 634.000
30.60521 633.000
30.62516 676.000
30.64511 615.000
30.66505 633.000
30.68500 616.000
30.70495 636.000
30.72489 657.000
30.74484 607.000
30.76479 622.000
30.78473 580.000
30.80468 619.000
30.82463 619.000
30.84458 610.000
30.86452 621.000
30.88447 596.000
30.90442 578.000
30.92436 594.000
30.94431 618.000
30.96426 659.000
30.98420 652.000
31.00415 620.000
31.02410 607.000
31.04404 651.000
31.06399 637.000
31.08394 625.000
31.10389 620.000
31.12383 619.000
31.14378 638.000
31.16373 633.000
31.18367 636.000
31.20362 613.000
31.22357 620.000
31.24351 622.000
31.26346 639.000
31.28341 613.000
31.30336 611.000
31.32330 628.000
31.34325 649.000
31.36320 650.000
31.38314 597.000
31.40309 604.000
31.42304 599.000
31.44298 608.000
31.46293 666.000
31.48288 623.000
31.50282 622.000
31.52277 623.000
31.54272 616.000
31.56267 645.000
31.58261 636.000
31.60256 671.000
31.62251 653.000
31.64245 623.000
31.66240 608.000
31.68235 650.000
31.70229 676.000
31.72224 641.000
31.74219 629.000
31.76214 635.000
31.78208 654.000
31.80203 640.000
31.82198 681.000
31.84192 690.000
31.86187 696.000
31.88182 713.000
31.90176 775.000
31.92171 705.000
31.94166 759.000
31.96160 738.000
31.98155 900.000
32.00150 876.000
32.02145 818.000
32.04139 923.000
32.06134 955.000
32.08129 943.000
32.10123 880.000
32.12118 802.000
32.14113 802.000
32.16107 720.000
32.18102 746.000
32.20097 670.000
32.22092 672.000
32.24086 688.000
32.26081 685.000
32.28076 663.000
32.30070 686.000
32.32065 660.000
32.34060 729.000
32.36054 672.000
32.38049 746.000
32.40044 817.000
32.42039 820.000
32.44033 962.000
32.46028 1051.000
32.48023 1188.000
32.50017 1300.000
32.52012 1285.000
32.54007 1227.000
32.56001 1240.000
32.57996 1150.000
32.59991 1058.000
32.61985 1005.000
32.63980 888.000
32.65975 804.000
32.67970 725.000
32.69964 670.000
32.71959 732.000
32.73954 628.000
32.75948 666.000
32.77943 637.000
32.79938 617.000
32.81932 621.000
32.83927 591.000
32.85922 618.000
32.87917 628.000
32.89911 613.000
32.91906 538.000
32.93901 663.000
32.95895 617.000
32.97890 626.000
32.99885 597.000
33.01879 578.000
33.03874 634.000
33.05869 605.000
33.07863 597.000
33.09858 647.000
33.11853 635.000
33.13848 639.000
33.15842 613.000
33.17837 600.000
33.19832 636.000
33.21826 625.000
33.23821 588.000
33.25816 634.000
33.27810 635.000
33.29805 626.000
33.31800 640.000
33.33795 648.000
33.35789 562.000
33.37784 639.000
33.39779 580.000
33.41773 637.000
33.43768 599.000
33.45763 610.000
33.47757 646.000
33.49752 636.000
33.51747 562.000
33.53741 609.000
33.55736 637.000
33.57731 614.000
33.59726 643.000
33.61720 597.000
33.63715 617.000
33.65710 605.000
33.67704 655.000
33.69699 583.000
33.71694 600.000
33.73688 606.000
33.75683 580.000
33.77678 672.000
33.79673 609.000
33.81667 648.000
33.83662 631.000
33.85657 615.000
33.87651 570.000
33.89646 615.000
33.91641 636.000
33.93635 631.000
33.95630 639.000
33.97625 636.000
33.99620 635.000
34.01614 669.000
34.03609 635.000
34.05604 662.000
34.07598 623.000
34.09593 616.000
34.11588 602.000
34.13582 617.000
34.15577 643.000
34.17572 679.000
34.19566 652.000
34.21561 651.000
34.23556 658.000
34.25551 651.000
34.27545 650.000
34.29540 652.000
34.31535 629.000
34.33529 632.000
34.35524 651.000
34.37519 634.000
34.39513 654.000
34.41508 619.000
34.43503 604.000
34.45498 629.000
34.47492 620.000
34.49487 597.000
34.51482 674.000
34.53476 655.000
34.55471 652.000
34.57466 655.000
34.59460 619.000
34.61455 665.000
34.63450 670.000
34.65444 676.000
34.67439 683.000
34.69434 719.000
34.71429 703.000
34.73423 687.000
34.75418 676.000
34.77413 722.000
34.79407 711.000
34.81402 762.000
34.83397 793.000
34.85391 802.000
34.87386 803.000
34.89381 809.000
34.91376 776.000
34.93370 840.000
34.95365 744.000
34.97360 759.000
34.99354 782.000
35.01349 777.000
35.03344 768.000
35.05338 734.000
35.07333 749.000
35.09328 775.000
35.11322 724.000
35.13317 768.000
35.15312 854.000
35.17307 822.000
35.19301 820.000
35.21296 912.000
35.23291 931.000
35.25285 937.000
35.27280 1039.000
35.29275 1137.000
35.31269 1260.000
35.33264 1596.000
35.35259 1801.000
35.37254 2068.000
35.39248 2693.000
35.41243 3369.000
35.43238 4237.000
35.45232 4691.000
35.47227 4738.000
35.49222 5301.000
35.51216 5932.000
35.53211 7033.000
35.55206 7764.000
35.57201 7495.000
35.59195 6997.000
35.61190 6352.000
35.63185 5615.000
35.65179 5139.000
35.67174 4272.000
35.69169 3468.000
35.71163 2683.000
35.73158 2148.000
35.75153 1724.000
35.77147 1447.000
35.79142 1196.000
35.81137 1130.000
35.83132 1183.000
35.85126 1026.000
35.87121 1061.000
35.89116 1136.000
35.91110 1240.000
35.93105 1195.000
35.95100 1257.000
35.97094 1168.000
35.99089 1101.000
36.01084 1143.000
36.03079 1015.000
36.05073 1040.000
36.07068 967.000
36.09063 871.000
36.11057 866.000
36.13052 820.000
36.15047 745.000
36.17041 710.000
36.19036 758.000
36.21031 706.000
36.23025 716.000
36.25020 737.000
36.27015 674.000
36.29010 695.000
36.31004 705.000
36.32999 670.000
36.34994 707.000
36.36988 677.000
36.38983 659.000
36.40978 660.000
36.42972 727.000
36.44967 656.000
36.46962 725.000
36.48957 687.000
36.50951 726.000
36.52946 696.000
36.54941 700.000
36.56935 661.000
36.58930 666.000
36.60925 621.000
36.62919 649.000
36.64914 663.000
36.66909 668.000
36.68903 704.000
36.70898 664.000
36.72893 659.000
36.74888 604.000
36.76882 660.000
36.78877 691.000
36.80872 734.000
36.82866 724.000
36.84861 665.000
36.86856 717.000
36.88850 738.000
36.90845 672.000
36.92840 708.000
36.94835 727.000
36.96829 702.000
36.98824 746.000
37.00819 688.000
37.02813 798.000
37.04808 798.000
37.06803 841.000
37.08797 870.000
37.10792 962.000
37.12787 1079.000
37.14781 1174.000
37.16776 1314.000
37.18771 1220.000
37.20766 1234.000
37.22760 1219.000
37.24755 1116.000
37.26750 1077.000
37.28744 1013.000
37.30739 888.000
37.32734 849.000
37.34728 740.000
37.36723 759.000
37.38718 674.000
37.40713 704.000
37.42707 707.000
37.44702 682.000
37.46697 675.000
37.48691 667.000
37.50686 748.000
37.52681 706.000
37.54675 646.000
37.56670 716.000
37.58665 683.000
37.60660 710.000
37.62654 658.000
37.64649 668.000
37.66644 627.000
37.68638 678.000
37.70633 709.000
37.72628 628.000
37.74622 650.000
37.76617 665.000
37.78612 681.000
37.80606 654.000
37.82601 662.000
37.84596 673.000
37.86591 713.000
37.88585 680.000
37.90580 678.000
37.92575 700.000
37.94569 682.000
37.96564 675.000
37.98559 683.000
38.00553 693.000
38.02548 674.000
38.04543 667.000
38.06538 736.000
38.08532 736.000
38.10527 758.000
38.12522 722.000
38.14516 769.000
38.16511 744.000
38.18506 768.000
38.20500 838.000
38.22495 791.000
38.24490 783.000
38.26484 876.000
38.28479 901.000
38.30474 870.000
38.32469 897.000
38.34463 909.000
38.36458 902.000
38.38453 978.000
38.40447 1038.000
38.42442 1150.000
38.44437 1223.000
38.46431 1348.000
38.48426 1456.000
38.50421 1620.000
38.52416 1930.000
38.54410 2314.000
38.56405 2738.000
38.58400 3461.000
38.60394 4277.000
38.62389 5286.000
38.64384 6181.000
38.66378 6947.000
38.68373 7021.000
38.70368 6986.000
38.72362 6879.000
38.74357 6459.000
38.76352 5903.000
38.78347 5303.000
38.80341 4800.000
38.82336 4044.000
38.84331 3460.000
38.86325 2984.000
38.88320 2565.000
38.90315 2430.000
38.92309 2274.000
38.94304 2238.000
38.96299 2235.000
38.98294 2225.000
39.00288 2313.000
39.02283 2181.000
39.04278 2152.000
39.06272 1972.000
39.08267 1872.000
39.10262 1746.000
39.12256 1523.000
39.14251 1379.000
39.16246 1254.000
39.18241 1109.000
39.20235 1063.000
39.22230 952.000
39.24225 853.000
39.26219 859.000
39.28214 879.000
39.30209 858.000
39.32203 866.000
39.34198 957.000
39.36193 1013.000
39.38187 1023.000
39.40182 1172.000
39.42177 1196.000
39.44172 1347.000
39.46166 1482.000
39.48161 1578.000
39.50156 1662.000
39.52150 1616.000
39.54145 1592.000
39.56140 1448.000
39.58134 1285.000
39.60129 1277.000
39.62124 1141.000
39.64119 1075.000
39.66113 1011.000
39.68108 902.000
39.70103 864.000
39.72097 758.000
39.74092 718.000
39.76087 701.000
39.78081 789.000
39.80076 708.000
39.82071 700.000
39.84065 696.000
39.86060 679.000
39.88055 704.000
39.90050 696.000
39.92044 665.000
39.94039 652.000
39.96034 616.000
39.98028 654.000
40.00023 648.000
40.02018 638.000
40.04012 691.000
40.06007 631.000
40.08002 628.000
40.09997 667.000
40.11991 633.000
40.13986 637.000
40.15981 617.000
40.17975 637.000
40.19970 637.000
40.21965 618.000
40.23959 667.000
40.25954 657.000
40.27949 626.000
40.29943 665.000
40.31938 640.000
40.33933 634.000
40.35928 639.000
40.37922 662.000
40.39917 618.000
40.41912 595.000
40.43906 643.000
40.45901 607.000
40.47896 640.000
40.49890 642.000
40.51885 632.000
40.53880 644.000
40.55875 633.000
40.57869 649.000
40.59864 635.000
40.61859 610.000
40.63853 642.000
40.65848 632.000
40.67843 637.000
40.69837 642.000
40.71832 640.000
40.73827 635.000
40.75822 678.000
40.77816 678.000
40.79811 643.000
40.81806 623.000
40.83800 675.000
40.85795 647.000
40.87790 606.000
40.89784 626.000
40.91779 644.000
40.93774 634.000
40.95768 594.000
40.97763 619.000
40.99758 645.000
41.01753 598.000
41.03747 649.000
41.05742 649.000
41.07737 617.000
41.09731 663.000
41.11726 607.000
41.13721 619.000
41.15715 614.000
41.17710 643.000
41.19705 636.000
41.21700 597.000
41.23694 618.000
41.25689 619.000
41.27684 634.000
41.29678 613.000
41.31673 645.000
41.33668 627.000
41.35662 576.000
41.37657 649.000
41.39652 643.000
41.41646 641.000
41.43641 623.000
41.45636 620.000
41.47631 584.000
41.49625 588.000
41.51620 646.000
41.53615 656.000
41.55609 632.000
41.57604 597.000
41.59599 585.000
41.61593 633.000
41.63588 667.000
41.65583 636.000
41.67578 663.000
41.69572 623.000
41.71567 601.000
41.73562 618.000
41.75556 652.000
41.77551 603.000
41.79546 624.000
41.81540 606.000
41.83535 628.000
41.85530 603.000
41.87524 621.000
41.89519 600.000
41.91514 629.000
41.93509 648.000
41.95503 617.000
41.97498 611.000
41.99493 634.000
42.01487 566.000
42.03482 657.000
42.05477 616.000
42.07471 629.000
42.09466 648.000
42.11461 620.000
42.13456 617.000
42.15450 614.000
42.17445 644.000
42.19440 620.000
42.21434 639.000
42.23429 604.000
42.25424 635.000
42.27418 568.000
42.29413 652.000
42.31408 619.000
42.33403 636.000
42.35397 576.000
42.37392 630.000
42.39387 608.000
42.41381 657.000
42.43376 643.000
42.45371 589.000
42.47365 652.000
42.49360 609.000
42.51355 619.000
42.53349 608.000
42.55344 606.000
42.57339 639.000
42.59334 617.000
42.61328 604.000
42.63323 624.000
42.65318 631.000
42.67312 633.000
42.69307 664.000
42.71302 632.000
42.73296 636.000
42.75291 636.000
42.77286 649.000
42.79281 675.000
42.81275 637.000
42.83270 619.000
42.85265 644.000
42.87259 692.000
42.89254 672.000
42.91249 687.000
42.93243 740.000
42.95238 724.000
42.97233 730.000
42.99227 801.000
43.01222 842.000
43.03217 780.000
43.05212 908.000
43.07206 944.000
43.09201 972.000
43.11196 1034.000
43.13190 1147.000
43.15185 1170.000
43.17180 1302.000
43.19174 1335.000
43.21169 1319.000
43.23164 1323.000
43.25159 1240.000
43.27153 1225.000
43.29148 1160.000
43.31143 1079.000
43.33137 1063.000
43.35132 1015.000
43.37127 954.000
43.39121 866.000
43.41116 883.000
43.43111 749.000
43.45105 831.000
43.47100 870.000
43.49095 877.000
43.51090 866.000
43.53084 913.000
43.55079 989.000
43.57074 987.000
43.59068 979.000
43.61063 993.000
43.63058 993.000
43.65052 994.000
43.67047 919.000
43.69042 851.000
43.71037 921.000
43.73031 816.000
43.75026 818.000
43.77021 784.000
43.79015 726.000
43.81010 727.000
43.83005 670.000
43.84999 678.000
43.86994 668.000
43.88989 647.000
43.90984 694.000
43.92978 651.000
43.94973 688.000
43.96968 665.000
43.98962 600.000
44.00957 605.000
44.02952 648.000
44.04946 642.000
44.06941 619.000
44.08936 656.000
44.10930 603.000
44.12925 592.000
44.14920 623.000
44.16915 582.000
44.18909 627.000
44.20904 660.000
44.22899 631.000
44.24893 571.000
44.26888 625.000
44.28883 590.000
44.30877 635.000
44.32872 656.000
44.34867 579.000
44.36862 578.000
44.38856 611.000
44.40851 600.000
44.42846 579.000
44.44840 589.000
44.46835 616.000
44.48830 664.000
44.50824 651.000
44.52819 615.000
44.54814 690.000
44.56808 598.000
44.58803 591.000
44.60798 628.000
44.62793 603.000
44.64787 607.000
44.66782 583.000
44.68777 613.000
44.70771 633.000
44.72766 577.000
44.74761 655.000
44.76755 609.000
44.78750 645.000
44.80745 661.000
44.82740 626.000
44.84734 657.000
44.86729 671.000
44.88724 617.000
44.90718 616.000
44.92713 625.000
44.94708 622.000
44.96702 644.000
44.98697 711.000
45.00692 601.000
45.02686 578.000
45.04681 633.000
45.06676 608.000
45.08671 655.000
45.10665 610.000
45.12660 625.000
45.14655 623.000
45.16649 637.000
45.18644 634.000
45.20639 640.000
45.22633 637.000
45.24628 597.000
45.26623 660.000
45.28618 644.000
45.30612 628.000
45.32607 656.000
45.34602 637.000
45.36596 639.000
45.38591 660.000
45.40586 629.000
45.42580 592.000
45.44575 649.000
45.46570 635.000
45.48565 616.000
45.50559 628.000
45.52554 622.000
45.54549 634.000
45.56543 664.000
45.58538 618.000
45.60533 639.000
45.62527 626.000
45.64522 626.000
45.66517 600.000
45.68511 604.000
45.70506 652.000
45.72501 568.000
45.74496 609.000
45.76490 635.000
45.78485 648.000
45.80480 603.000
45.82474 607.000
45.84469 616.000
45.86464 607.000
45.88458 605.000
45.90453 582.000
45.92448 649.000
45.94443 631.000
45.96437 652.000
45.98432 648.000
46.00427 654.000
46.02421 659.000
46.04416 631.000
46.06411 638.000
46.08405 639.000
46.10400 597.000
46.12395 679.000
46.14389 666.000
46.16384 587.000
46.18379 640.000
46.20374 660.000
46.22368 690.000
46.24363 760.000
46.26358 725.000
46.28352 712.000
46.30347 771.000
46.32342 681.000
46.34336 768.000
46.36331 726.000
46.38326 719.000
46.40321 742.000
46.42315 678.000
46.44310 690.000
46.46305 694.000
46.48299 682.000
46.50294 641.000
46.52289 636.000
46.54283 685.000
46.56278 617.000
46.58273 603.000
46.60267 656.000
46.62262 597.000
46.64257 573.000
46.66252 601.000
46.68246 630.000
46.70241 636.000
46.72236 653.000
46.74230 620.000
46.76225 634.000
46.78220 627.000
46.80214 570.000
46.82209 636.000
46.84204 675.000
46.86199 614.000
46.88193 665.000
46.90188 620.000
46.92183 597.000
46.94177 634.000
46.96172 604.000
46.98167 646.000
47.00161 602.000
47.02156 607.000
47.04151 612.000
47.06146 663.000
47.08140 655.000
47.10135 615.000
47.12130 622.000
47.14124 636.000
47.16119 591.000
47.18114 609.000
47.20108 604.000
47.22103 647.000
47.24098 626.000
47.26092 653.000
47.28087 674.000
47.30082 634.000
47.32077 633.000
47.34071 647.000
47.36066 590.000
47.38061 634.000
47.40055 636.000
47.42050 611.000
47.44045 629.000
47.46039 627.000
47.48034 636.000
47.50029 597.000
47.52024 603.000
47.54018 633.000
47.56013 657.000
47.58008 591.000
47.60002 641.000
47.61997 592.000
47.63992 649.000
47.65986 622.000
47.67981 638.000
47.69976 647.000
47.71970 619.000
47.73965 601.000
47.75960 626.000
47.77955 605.000
47.79949 613.000
47.81944 625.000
47.83939 642.000
47.85933 598.000
47.87928 619.000
47.89923 665.000
47.91917 592.000
47.93912 652.000
47.95907 648.000
47.97902 628.000
47.99896 631.000
48.01891 635.000
48.03886 685.000
48.05880 635.000
48.07875 646.000
48.09870 667.000
48.11864 647.000
48.13859 633.000
48.15854 643.000
48.17848 665.000
48.19843 642.000
48.21838 667.000
48.23833 636.000
48.25827 728.000
48.27822 646.000
48.29817 690.000
48.31811 676.000
48.33806 685.000
48.35801 650.000
48.37795 661.000
48.39790 702.000
48.41785 660.000
48.43780 693.000
48.45774 721.000
48.47769 736.000
48.49764 720.000
48.51758 744.000
48.53753 747.000
48.55748 810.000
48.57742 824.000
48.59737 825.000
48.61732 873.000
48.63726 890.000
48.65721 963.000
48.67716 1067.000
48.69711 1150.000
48.71705 1321.000
48.73700 1502.000
48.75695 1729.000
48.77689 1918.000
48.79684 2122.000
48.81679 2378.000
48.83673 2609.000
48.85668 2875.000
48.87663 2919.000
48.89658 3035.000
48.91652 3130.000
48.93647 2836.000
48.95642 2762.000
48.97636 2621.000
48.99631 2200.000
49.01626 2112.000
49.03620 1900.000
49.05615 1700.000
49.07610 1504.000
49.09605 1401.000
49.11599 1219.000
49.13594 1079.000
49.15589 891.000
49.17583 820.000
49.19578 813.000
49.21573 753.000
49.23567 736.000
49.25562 717.000
49.27557 714.000
49.29551 657.000
49.31546 687.000
49.33541 637.000
49.35536 673.000
49.37530 665.000
49.39525 688.000
49.41520 702.000
49.43514 679.000
49.45509 651.000
49.47504 665.000
49.49498 633.000
49.51493 634.000
49.53488 671.000
49.55483 627.000
49.57477 676.000
49.59472 669.000
49.61467 657.000
49.63461 630.000
49.65456 638.000
49.67451 652.000
49.69445 676.000
49.71440 646.000
49.73435 669.000
49.75429 652.000
49.77424 647.000
49.79419 642.000
49.81414 660.000
49.83408 657.000
49.85403 651.000
49.87398 652.000
49.89392 599.000
49.91387 635.000
49.93382 629.000
49.95376 692.000
49.97371 633.000
49.99366 601.000
50.01361 650.000
50.03355 621.000
50.05350 621.000
50.07345 640.000
50.09339 641.000
50.11334 635.000
50.13329 648.000
50.15323 662.000
50.17318 605.000
50.19313 605.000
50.21307 649.000
50.23302 619.000
50.25297 644.000
50.27292 648.000
50.29286 653.000
50.31281 603.000
50.33276 560.000
50.35270 668.000
50.37265 632.000
50.39260 609.000
50.41254 626.000
50.43249 649.000
50.45244 678.000
50.47239 651.000
50.49233 620.000
50.51228 644.000
50.53223 658.000
50.55217 594.000
50.57212 630.000
50.59207 628.000
50.61201 601.000
50.63196 616.000
50.65191 620.000
50.67186 600.000
50.69180 647.000
50.71175 637.000
50.73170 678.000
50.75164 615.000
50.77159 601.000
50.79154 634.000
50.81148 662.000
50.83143 625.000
50.85138 663.000
50.87132 556.000
50.89127 607.000
50.91122 659.000
50.93117 622.000
50.95111 595.000
50.97106 664.000
50.99101 628.000
51.01095 574.000
51.03090 615.000
51.05085 601.000
51.07079 671.000
51.09074 678.000
51.11069 642.000
51.13064 676.000
51.15058 652.000
51.17053 662.000
51.19048 674.000
51.21042 676.000
51.23037 644.000
51.25032 649.000
51.27026 742.000
51.29021 692.000
51.31016 723.000
51.33010 684.000
51.35005 712.000
51.37000 724.000
51.38995 726.000
51.40989 693.000
51.42984 666.000
51.44979 682.000
51.46973 639.000
51.48968 663.000
51.50963 638.000
51.52957 654.000
51.54952 679.000
51.56947 657.000
51.58942 638.000
51.60936 678.000
51.62931 578.000
51.64926 650.000
51.66920 628.000
51.68915 633.000
51.70910 625.000
51.72904 633.000
51.74899 629.000
51.76894 584.000
51.78888 610.000
51.80883 575.000
51.82878 610.000
51.84873 659.000
51.86867 661.000
51.88862 633.000
51.90857 674.000
51.92851 628.000
51.94846 642.000
51.96841 661.000
51.98835 642.000
52.00830 657.000
52.02825 663.000
52.04820 667.000
52.06814 613.000
52.08809 607.000
52.10804 619.000
52.12798 624.000
52.14793 612.000
52.16788 650.000
52.18782 618.000
52.20777 612.000
52.22772 615.000
52.24767 575.000
52.26761 641.000
52.28756 622.000
52.30751 629.000
52.32745 633.000
52.34740 633.000
52.36735 640.000
52.38729 674.000
52.40724 613.000
52.42719 668.000
52.44713 629.000
52.46708 618.000
52.48703 665.000
52.50698 631.000
52.52692 606.000
52.54687 604.000
52.56682 647.000
52.58676 615.000
52.60671 607.000
52.62666 629.000
52.64660 641.000
52.66655 606.000
52.68650 577.000
52.70645 659.000
52.72639 633.000
52.74634 586.000
52.76629 644.000
52.78623 623.000
52.80618 634.000
52.82613 652.000
52.84607 668.000
52.86602 621.000
52.88597 639.000
52.90591 655.000
52.92586 614.000
52.94581 648.000
52.96576 678.000
52.98570 633.000
53.00565 624.000
53.02560 645.000
53.04554 667.000
53.06549 668.000
53.08544 746.000
53.10538 673.000
53.12533 693.000
53.14528 742.000
53.16523 797.000
53.18517 799.000
53.20512 854.000
53.22507 894.000
53.24501 903.000
53.26496 886.000
53.28491 929.000
53.30485 931.000
53.32480 895.000
53.34475 926.000
53.36469 1018.000
53.38464 964.000
53.40459 965.000
53.42454 984.000
53.44448 1016.000
53.46443 980.000
53.48438 968.000
53.50432 900.000
53.52427 830.000
53.54422 832.000
53.56416 888.000
53.58411 832.000
53.60406 847.000
53.62401 833.000
53.64395 847.000
53.66390 757.000
53.68385 787.000
53.70379 732.000
53.72374 790.000
53.74369 677.000
53.76363 730.000
53.78358 743.000
53.80353 717.000
53.82348 643.000
53.84342 742.000
53.86337 649.000
53.88332 684.000
53.90326 700.000
53.92321 686.000
53.94316 655.000
53.96310 688.000
53.98305 637.000
54.00300 629.000
54.02294 609.000
54.04289 611.000
54.06284 690.000
54.08279 632.000
54.10273 632.000
54.12268 620.000
54.14263 617.000
54.16257 651.000
54.18252 665.000
54.20247 612.000
54.22241 660.000
54.24236 624.000
54.26231 664.000
54.28226 622.000
54.30220 626.000
54.32215 618.000
54.34210 642.000
54.36204 678.000
54.38199 591.000
54.40194 621.000
54.42188 693.000
54.44183 621.000
54.46178 634.000
54.48172 642.000
54.50167 576.000
54.52162 653.000
54.54157 615.000
54.56151 604.000
54.58146 637.000
54.60141 632.000
54.62135 622.000
54.64130 632.000
54.66125 613.000
54.68119 624.000
54.70114 628.000
54.72109 588.000
54.74104 654.000
54.76098 658.000
54.78093 640.000
54.80088 608.000
54.82082 629.000
54.84077 620.000
54.86072 638.000
54.88066 614.000
54.90061 631.000
54.92056 582.000
54.94050 649.000
54.96045 637.000
54.98040 626.000
55.00035 596.000
55.02029 623.000
55.04024 654.000
55.06019 651.000
55.08013 625.000
55.10008 609.000
55.12003 591.000
55.13997 622.000
55.15992 588.000
55.17987 616.000
55.19982 586.000
55.21976 587.000
55.23971 686.000
55.25966 562.000
55.27960 603.000
55.29955 575.000
55.31950 597.000
55.33944 640.000
55.35939 646.000
55.37934 589.000
55.39929 627.000
55.41923 543.000
55.43918 605.000
55.45913 608.000
55.47907 584.000
55.49902 624.000
55.51897 664.000
55.53891 683.000
55.55886 623.000
55.57881 641.000
55.59875 596.000
55.61870 624.000
55.63865 625.000
55.65860 646.000
55.67854 598.000
55.69849 609.000
55.71844 640.000
55.73838 620.000
55.75833 615.000
55.77828 627.000
55.79822 600.000
55.81817 615.000
55.83812 654.000
55.85807 665.000
55.87801 613.000
55.89796 670.000
55.91791 609.000
55.93785 624.000
55.95780 622.000
55.97775 630.000
55.99769 644.000
56.01764 658.000
56.03759 629.000
56.05753 597.000
56.07748 635.000
56.09743 646.000
56.11738 647.000
56.13732 618.000
56.15727 658.000
56.17722 642.000
56.19716 634.000
56.21711 650.000
56.23706 674.000
56.25700 599.000
56.27695 639.000
56.29690 647.000
56.31685 628.000
56.33679 617.000
56.35674 639.000
56.37669 634.000
56.39663 654.000
56.41658 639.000
56.43653 652.000
56.45647 688.000
56.47642 663.000
56.49637 686.000
56.51631 615.000
56.53626 643.000
56.55621 648.000
56.57616 612.000
56.59610 680.000
56.61605 673.000
56.63600 618.000
56.65594 633.000
56.67589 654.000
56.69584 650.000
56.71578 675.000
56.73573 675.000
56.75568 642.000
56.77563 643.000
56.79557 654.000
56.81552 616.000
56.83547 701.000
56.85541 637.000
56.87536 644.000
56.89531 653.000
56.91525 611.000
56.93520 647.000
56.95515 639.000
56.97510 635.000
56.99504 618.000
57.01499 688.000
57.03494 630.000
57.05488 672.000
57.07483 598.000
57.09478 661.000
57.11472 598.000
57.13467 633.000
57.15462 628.000
57.17456 651.000
57.19451 594.000
57.21446 638.000
57.23441 624.000
57.25435 660.000
57.27430 641.000
57.29425 651.000
57.31419 660.000
57.33414 628.000
57.35409 665.000
57.37403 638.000
57.39398 596.000
57.41393 607.000
57.43388 607.000
57.45382 607.000
57.47377 611.000
57.49372 629.000
57.51366 672.000
57.53361 570.000
57.55356 680.000
57.57350 626.000
57.59345 638.000
57.61340 662.000
57.63334 691.000
57.65329 637.000
57.67324 619.000
57.69319 649.000
57.71313 631.000
57.73308 661.000
57.75303 667.000
57.77297 661.000
57.79292 665.000
57.81287 683.000
57.83281 712.000
57.85276 691.000
57.87271 705.000
57.89266 696.000
57.91260 668.000
57.93255 698.000
57.95250 705.000
57.97244 690.000
57.99239 724.000
58.01234 777.000
58.03228 762.000
58.05223 771.000
58.07218 821.000
58.09212 863.000
58.11207 958.000
58.13202 1055.000
58.15197 1091.000
58.17191 1226.000
58.19186 1311.000
58.21181 1363.000
58.23175 1413.000
58.25170 1431.000
58.27165 1450.000
58.29159 1353.000
58.31154 1350.000
58.33149 1326.000
58.35144 1212.000
58.37138 1174.000
58.39133 1121.000
58.41128 1096.000
58.43122 997.000
58.45117 936.000
58.47112 910.000
58.49106 831.000
58.51101 746.000
58.53096 787.000
58.55090 712.000
58.57085 738.000
58.59080 668.000
58.61075 667.000
58.63069 656.000
58.65064 660.000
58.67059 630.000
58.69053 649.000
58.71048 660.000
58.73043 671.000
58.75037 654.000
58.77032 640.000
58.79027 608.000
58.81022 632.000
58.83016 626.000
58.85011 594.000
58.87006 673.000
58.89000 622.000
58.90995 611.000
58.92990 630.000
58.94984 674.000
58.96979 657.000
58.98974 606.000
59.00969 606.000
59.02963 606.000
59.04958 605.000
59.06953 679.000
59.08947 646.000
59.10942 599.000
59.12937 653.000
59.14931 627.000
59.16926 610.000
59.18921 616.000
59.20915 596.000
59.22910 605.000
59.24905 654.000
59.26900 610.000
59.28894 608.000
59.30889 616.000
59.32884 651.000
59.34878 647.000
59.36873 612.000
59.38868 667.000
59.40862 629.000
59.42857 653.000
59.44852 694.000
59.46847 675.000
59.48841 602.000
59.50836 606.000
59.52831 665.000
59.54825 661.000
59.56820 621.000
59.58815 612.000
59.60809 664.000
59.62804 615.000
59.64799 657.000
59.66793 650.000
59.68788 632.000
59.70783 603.000
59.72778 614.000
59.74772 647.000
59.76767 623.000
59.78762 593.000
59.80756 635.000
59.82751 618.000
59.84746 632.000
59.86740 642.000
59.88735 672.000
59.90730 657.000
59.92725 694.000
59.94719 679.000
59.96714 603.000
59.98709 640.000
60.00703 652.000
60.02698 601.000
60.04693 644.000
60.06687 668.000
60.08682 644.000
60.10677 635.000
60.12671 626.000
60.14666 639.000
60.16661 649.000
60.18656 566.000
60.20650 649.000
60.22645 613.000
60.24640 607.000
60.26634 618.000
60.28629 645.000
60.30624 637.000
60.32618 649.000
60.34613 616.000
60.36608 641.000
60.38603 617.000
60.40597 649.000
60.42592 668.000
60.44587 655.000
60.46581 635.000
60.48576 561.000
60.50571 665.000
60.52565 604.000
60.54560 576.000
60.56555 639.000
60.58550 650.000
60.60544 684.000
60.62539 676.000
60.64534 607.000
60.66528 674.000
60.68523 644.000
60.70518 661.000
60.72512 658.000
60.74507 630.000
60.76502 654.000
60.78496 675.000
60.80491 665.000
60.82486 641.000
60.84481 624.000
60.86475 700.000
60.88470 628.000
60.90465 626.000
60.92459 651.000
60.94454 690.000
60.96449 632.000
60.98443 603.000
61.00438 643.000
61.02433 636.000
61.04428 638.000
61.06422 677.000
61.08417 659.000
61.10412 639.000
61.12406 691.000
61.14401 693.000
61.16396 728.000
61.18390 676.000
61.20385 692.000
61.22380 667.000
61.24374 739.000
61.26369 724.000
61.28364 727.000
61.30359 747.000
61.32353 792.000
61.34348 789.000
61.36343 828.000
61.38337 811.000
61.40332 909.000
61.42327 920.000
61.44321 995.000
61.46316 1110.000
61.48311 1287.000
61.50306 1408.000
61.52300 1587.000
61.54295 1732.000
61.56290 1788.000
61.58284 1817.000
61.60279 1727.000
61.62274 1681.000
61.64268 1508.000
61.66263 1500.000
61.68258 1413.000
61.70252 1392.000
61.72247 1394.000
61.74242 1378.000
61.76237 1258.000
61.78231 1252.000
61.80226 1110.000
61.82221 1028.000
61.84215 1023.000
61.86210 950.000
61.88205 897.000
61.90199 869.000
61.92194 863.000
61.94189 882.000
61.96184 811.000
61.98178 840.000
62.00173 893.000
62.02168 821.000
62.04162 886.000
62.06157 889.000
62.08152 899.000
62.10146 914.000
62.12141 911.000
62.14136 938.000
62.16131 911.000
62.18125 895.000
62.20120 828.000
62.22115 854.000
62.24109 843.000
62.26104 837.000
62.28099 837.000
62.30093 823.000
62.32088 812.000
62.34083 778.000
62.36077 771.000
62.38072 839.000
62.40067 745.000
62.42062 757.000
62.44056 723.000
62.46051 751.000
62.48046 735.000
62.50040 687.000
62.52035 758.000
62.54030 784.000
62.56024 764.000
62.58019 803.000
62.60014 849.000
62.62009 775.000
62.64003 923.000
62.65998 855.000
62.67993 928.000
62.69987 969.000
62.71982 962.000
62.73977 974.000
62.75971 922.000
62.77966 887.000
62.79961 897.000
62.81955 866.000
62.83950 849.000
62.85945 828.000
62.87940 882.000
62.89934 840.000
62.91929 863.000
62.93924 842.000
62.95918 773.000
62.97913 779.000
62.99908 770.000
63.01902 706.000
63.03897 704.000
63.05892 686.000
63.07887 684.000
63.09881 672.000
63.11876 657.000
63.13871 690.000
63.15865 664.000
63.17860 644.000
63.19855 684.000
63.21849 659.000
63.23844 634.000
63.25839 643.000
63.27833 664.000
63.29828 634.000
63.31823 682.000
63.33818 660.000
63.35812 678.000
63.37807 654.000
63.39802 703.000
63.41796 644.000
63.43791 671.000
63.45786 648.000
63.47780 648.000
63.49775 685.000
63.51770 630.000
63.53765 641.000
63.55759 695.000
63.57754 663.000
63.59749 665.000
63.61743 662.000
63.63738 660.000
63.65733 637.000
63.67727 668.000
63.69722 653.000
63.71717 659.000
63.73712 672.000
63.75706 658.000
63.77701 660.000
63.79696 641.000
63.81690 674.000
63.83685 699.000
63.85680 667.000
63.87674 681.000
63.89669 636.000
63.91664 647.000
63.93658 638.000
63.95653 638.000
63.97648 672.000
63.99643 671.000
64.01637 620.000
64.03632 603.000
64.05627 672.000
64.07621 687.000
64.09616 665.000
64.11611 666.000
64.13605 614.000
64.15600 637.000
64.17595 617.000
64.19590 637.000
64.21584 658.000
64.23579 642.000
64.25574 643.000
64.27568 666.000
64.29563 679.000
64.31558 687.000
64.33552 747.000
64.35547 734.000
64.37542 722.000
64.39536 738.000
64.41531 753.000
64.43526 842.000
64.45521 808.000
64.47515 827.000
64.49510 813.000
64.51505 834.000
64.53499 871.000
64.55494 840.000
64.57489 805.000
64.59483 866.000
64.61478 874.000
64.63473 856.000
64.65468 866.000
64.67462 869.000
64.69457 823.000
64.71452 820.000
64.73446 787.000
64.75441 773.000
64.77436 780.000
64.79430 787.000
64.81425 773.000
64.83420 783.000
64.85414 701.000
64.87409 718.000
64.89404 721.000
64.91399 649.000
64.93393 720.000
64.95388 628.000
64.97383 683.000
64.99377 657.000
65.01372 694.000
65.03367 753.000
65.05361 721.000
65.07356 672.000
65.09351 668.000
65.11346 678.000
65.13340 706.000
65.15335 635.000
65.17330 685.000
65.19324 701.000
65.21319 727.000
65.23314 677.000
65.25308 691.000
65.27303 710.000
65.29298 738.000
65.31293 769.000
65.33287 750.000
65.35282 743.000
65.37277 770.000
65.39271 745.000
65.41266 765.000
65.43261 771.000
65.45255 786.000
65.47250 822.000
65.49245 930.000
65.51239 977.000
65.53234 988.000
65.55229 1003.000
65.57224 1006.000
65.59218 1056.000
65.61213 1071.000
65.63208 1061.000
65.65202 1105.000
65.67197 1185.000
65.69192 1139.000
65.71186 1108.000
65.73181 1146.000
65.75176 1127.000
65.77171 1122.000
65.79165 1099.000
65.81160 1131.000
65.83155 1121.000
65.85149 1081.000
65.87144 1131.000
65.89139 1068.000
65.91133 1047.000
65.93128 967.000
65.95123 1004.000
65.97117 966.000
65.99112 986.000
66.01107 934.000
66.03102 862.000
66.05096 916.000
66.07091 892.000
66.09086 876.000
66.11080 890.000
66.13075 910.000
66.15070 908.000
66.17064 945.000
66.19059 984.000
66.21054 1004.000
66.23049 1100.000
66.25043 1056.000
66.27038 1189.000
66.29033 1210.000
66.31027 1315.000
66.33022 1334.000
66.35017 1453.000
66.37011 1483.000
66.39006 1480.000
66.41001 1428.000
66.42995 1381.000
66.44990 1374.000
66.46985 1394.000
66.48980 1204.000
66.50974 1141.000
66.52969 1148.000
66.54964 1065.000
66.56958 1119.000
66.58953 1090.000
66.60948 1041.000
66.62942 1009.000
66.64937 893.000
66.66932 917.000
66.68927 861.000
66.70921 852.000
66.72916 820.000
66.74911 838.000
66.76905 768.000
66.78900 829.000
66.80895 805.000
66.82889 801.000
66.84884 852.000
66.86879 813.000
66.88874 788.000
66.90868 823.000
66.92863 895.000
66.94858 816.000
66.96852 863.000
66.98847 897.000
67.00842 898.000
67.02836 811.000
67.04831 866.000
67.06826 812.000
67.08820 870.000
67.10815 793.000
67.12810 852.000
67.14805 715.000
67.16799 778.000
67.18794 799.000
67.20789 766.000
67.22783 753.000
67.24778 735.000
67.26773 706.000
67.28767 729.000
67.30762 747.000
67.32757 727.000
67.34752 722.000
67.36746 727.000
67.38741 658.000
67.40736 658.000
67.42730 683.000
67.44725 721.000
67.46720 718.000
67.48714 708.000
67.50709 737.000
67.52704 723.000
67.54698 713.000
67.56693 678.000
67.58688 762.000
67.60683 743.000
67.62677 814.000
67.64672 830.000
67.66667 884.000
67.68661 940.000
67.70656 947.000
67.72651 969.000
67.74645 1044.000
67.76640 1111.000
67.78635 1045.000
67.80630 1132.000
67.82624 1200.000
67.84619 1214.000
67.86614 1261.000
67.88608 1190.000
67.90603 1308.000
67.92598 1307.000
67.94592 1373.000
67.96587 1478.000
67.98582 1482.000
68.00576 1433.000
68.02571 1429.000
68.04566 1480.000
68.06561 1328.000
68.08555 1345.000
68.10550 1346.000
68.12545 1301.000
68.14539 1294.000
68.16534 1290.000
68.18529 1241.000
68.20523 1177.000
68.22518 1080.000
68.24513 1118.000
68.26508 1062.000
68.28502 1007.000
68.30497 962.000
68.32492 911.000
68.34486 908.000
68.36481 844.000
68.38476 839.000
68.40470 745.000
68.42465 773.000
68.44460 754.000
68.46455 739.000
68.48449 658.000
68.50444 727.000
68.52439 692.000
68.54433 659.000
68.56428 701.000
68.58423 676.000
68.60417 688.000
68.62412 658.000
68.64407 669.000
68.66401 657.000
68.68396 677.000
68.70391 620.000
68.72386 665.000
68.74380 666.000
68.76375 646.000
68.78370 684.000
68.80364 648.000
68.82359 654.000
68.84354 665.000
68.86348 675.000
68.88343 646.000
68.90338 706.000
68.92333 676.000
68.94327 682.000
68.96322 661.000
68.98317 676.000
69.00311 679.000
69.02306 628.000
69.04301 655.000
69.06295 611.000
69.08290 704.000
69.10285 632.000
69.12279 685.000
69.14274 686.000
69.16269 636.000
69.18264 629.000
69.20258 682.000
69.22253 699.000
69.24248 676.000
69.26242 653.000
69.28237 649.000
69.30232 625.000
69.32226 675.000
69.34221 619.000
69.36216 626.000
69.38211 629.000
69.40205 678.000
69.42200 645.000
69.44195 627.000
69.46189 612.000
69.48184 652.000
69.50179 633.000
69.52173 685.000
69.54168 639.000
69.56163 686.000
69.58157 620.000
69.60152 609.000
69.62147 658.000
69.64142 672.000
69.66136 622.000
69.68131 617.000
69.70126 641.000
69.72120 684.000
69.74115 696.000
69.76110 663.000
69.78104 655.000
69.80099 598.000
69.82094 643.000
69.84089 641.000
69.86083 656.000
69.88078 707.000
69.90073 624.000
69.92067 665.000
69.94062 637.000
69.96057 660.000
69.98051 668.000
70.00046 603.000
70.02041 654.000
70.04035 638.000
70.06030 630.000
70.08025 651.000
70.10020 613.000
70.12014 632.000
70.14009 651.000
70.16004 666.000
70.17998 655.000
70.19993 648.000
70.21988 617.000
70.23982 642.000
70.25977 670.000
70.27972 633.000
70.29967 646.000
70.31961 595.000
70.33956 679.000
70.35951 655.000
70.37945 680.000
70.39940 631.000
70.41935 638.000
70.43929 654.000
70.45924 643.000
70.47919 646.000
70.49914 658.000
70.51908 682.000
70.53903 671.000
70.55898 642.000
70.57892 622.000
70.59887 642.000
70.61882 634.000
70.63876 617.000
70.65871 651.000
70.67866 594.000
70.69860 614.000
70.71855 655.000
70.73850 654.000
70.75845 632.000
70.77839 664.000
70.79834 640.000
70.81829 672.000
70.83823 627.000
70.85818 632.000
70.87813 678.000
70.89807 669.000
70.91802 650.000
70.93797 640.000
70.95792 630.000
70.97786 610.000
70.99781 626.000
71.01776 634.000
71.03770 644.000
71.05765 637.000
71.07760 685.000
71.09754 667.000
71.11749 611.000
71.13744 642.000
71.15738 670.000
71.17733 671.000
71.19728 657.000
71.21723 649.000
71.23717 636.000
71.25712 618.000
71.27707 639.000
71.29701 647.000
71.31696 627.000
71.33691 620.000
71.35685 655.000
71.37680 668.000
71.39675 645.000
71.41670 592.000
71.43664 645.000
71.45659 637.000
71.47654 628.000
71.49648 633.000
71.51643 680.000
71.53638 613.000
71.55632 677.000
71.57627 665.000
71.59622 660.000
71.61616 603.000
71.63611 664.000
71.65606 645.000
71.67601 656.000
71.69595 635.000
71.71590 677.000
71.73585 680.000
71.75579 658.000
71.77574 665.000
71.79569 663.000
71.81563 696.000
71.83558 610.000
71.85553 639.000
71.87548 696.000
71.89542 634.000
71.91537 663.000
71.93532 621.000
71.95526 665.000
71.97521 669.000
71.99516 657.000
72.01510 633.000
72.03505 702.000
72.05500 662.000
72.07495 618.000
72.09489 678.000
72.11484 671.000
72.13479 712.000
72.15473 704.000
72.17468 695.000
72.19463 726.000
72.21457 722.000
72.23452 730.000
72.25447 794.000
72.27441 872.000
72.29436 827.000
72.31431 896.000
72.33426 888.000
72.35420 967.000
72.37415 1023.000
72.39410 993.000
72.41404 1028.000
72.43399 1051.000
72.45394 944.000
72.47388 922.000
72.49383 904.000
72.51378 877.000
72.53373 849.000
72.55367 864.000
72.57362 872.000
72.59357 857.000
72.61351 846.000
72.63346 840.000
72.65341 769.000
72.67335 829.000
72.69330 724.000
72.71325 791.000
72.73319 663.000
72.75314 684.000
72.77309 688.000
72.79304 638.000
72.81298 701.000
72.83293 660.000
72.85288 670.000
72.87282 676.000
72.89277 672.000
72.91272 670.000
72.93266 657.000
72.95261 660.000
72.97256 666.000
72.99251 671.000
73.01245 652.000
73.03240 622.000
73.05235 675.000
73.07229 678.000
73.09224 623.000
73.11219 650.000
73.13213 660.000
73.15208 674.000
73.17203 699.000
73.19197 542.000
73.21192 637.000
73.23187 665.000
73.25182 647.000
73.27176 649.000
73.29171 622.000
73.31166 647.000
73.33160 706.000
73.35155 663.000
73.37150 635.000
73.39144 644.000
73.41139 699.000
73.43134 660.000
73.45129 678.000
73.47123 641.000
73.49118 644.000
73.51113 670.000
73.53107 667.000
73.55102 637.000
73.57097 665.000
73.59091 695.000
73.61086 680.000
73.63081 655.000
73.65076 634.000
73.67070 696.000
73.69065 707.000
73.71060 663.000
73.73054 662.000
73.75049 689.000
73.77044 676.000
73.79038 699.000
73.81033 723.000
73.83028 685.000
73.85022 671.000
73.87017 692.000
73.89012 698.000
73.91007 729.000
73.93001 691.000
73.94996 704.000
73.96991 695.000
73.98985 685.000
74.00980 676.000
74.02975 722.000
74.04969 659.000
74.06964 706.000
74.08959 726.000
74.10954 740.000
74.12948 660.000
74.14943 692.000
74.16938 696.000
74.18932 653.000
74.20927 657.000
74.22922 657.000
74.24916 688.000
74.26911 682.000
74.28906 639.000
74.30900 635.000
74.32895 711.000
74.34890 606.000
74.36885 712.000
74.38879 697.000
74.40874 598.000
74.42869 638.000
74.44863 631.000
74.46858 650.000
74.48853 701.000
74.50847 685.000
74.52842 652.000
74.54837 656.000
74.56832 654.000
74.58826 691.000
74.60821 707.000
74.62816 662.000
74.64810 691.000
74.66805 661.000
74.68800 698.000
74.70794 747.000
74.72789 661.000
74.74784 709.000
74.76778 707.000
74.78773 742.000
74.80768 773.000
74.82763 728.000
74.84757 815.000
74.86752 861.000
74.88747 815.000
74.90741 974.000
74.92736 918.000
74.94731 1054.000
74.96725 1049.000
74.98720 1044.000
75.00715 997.000
75.02710 1015.000
75.04704 962.000
75.06699 919.000
75.08694 924.000
75.10688 952.000
75.12683 994.000
75.14678 1042.000
75.16672 1151.000
75.18667 1136.000
75.20662 1131.000
75.22657 1081.000
75.24651 1028.000
75.26646 1000.000
75.28641 1010.000
75.30635 1031.000
75.32630 925.000
75.34625 983.000
75.36619 983.000
75.38614 917.000
75.40609 955.000
75.42603 927.000
75.44598 881.000
75.46593 842.000
75.48588 818.000
75.50582 830.000
75.52577 860.000
75.54572 760.000
75.56566 734.000
75.58561 740.000
75.60556 795.000
75.62550 710.000
75.64545 710.000
75.66540 702.000
75.68535 670.000
75.70529 680.000
75.72524 678.000
75.74519 660.000
75.76513 683.000
75.78508 645.000
75.80503 662.000
75.82497 622.000
75.84492 671.000
75.86487 634.000
75.88481 642.000
75.90476 654.000
75.92471 656.000
75.94466 708.000
75.96460 652.000
75.98455 684.000
76.00450 714.000
76.02444 688.000
76.04439 649.000
76.06434 671.000
76.08428 681.000
76.10423 653.000
76.12418 638.000
76.14413 664.000
76.16407 692.000
76.18402 651.000
76.20397 685.000
76.22391 663.000
76.24386 657.000
76.26381 620.000
76.28375 622.000
76.30370 666.000
76.32365 696.000
76.34359 675.000
76.36354 662.000
76.38349 666.000
76.40344 622.000
76.42338 658.000
76.44333 701.000
76.46328 633.000
76.48322 616.000
76.50317 625.000
76.52312 699.000
76.54306 678.000
76.56301 622.000
76.58296 638.000
76.60291 644.000
76.62285 667.000
76.64280 635.000
76.66275 657.000
76.68269 647.000
76.70264 639.000
76.72259 638.000
76.74253 573.000
76.76248 661.000
76.78243 625.000
76.80238 626.000
76.82232 651.000
76.84227 674.000
76.86222 610.000
76.88216 586.000
76.90211 646.000
76.92206 592.000
76.94200 661.000
76.96195 660.000
76.98190 632.000
77.00184 637.000
77.02179 625.000
77.04174 627.000
77.06169 640.000
77.08163 622.000
77.10158 588.000
77.12153 638.000
77.14147 667.000
77.16142 631.000
77.18137 654.000
77.20131 629.000
77.22126 609.000
77.24121 567.000
77.26116 655.000
77.28110 624.000
77.30105 621.000
77.32100 663.000
77.34094 645.000
77.36089 619.000
77.38084 681.000
77.40078 659.000
77.42073 628.000
77.44068 637.000
77.46062 692.000
77.48057 633.000
77.50052 613.000
77.52047 668.000
77.54041 669.000
77.56036 596.000
77.58031 669.000
77.60025 632.000
77.62020 643.000
77.64015 649.000
77.66009 620.000
77.68004 639.000
77.69999 631.000
77.71994 618.000
77.73988 643.000
77.75983 626.000
77.77978 691.000
77.79972 617.000
77.81967 640.000
77.83962 639.000
77.85956 619.000
77.87951 632.000
77.89946 636.000
77.91940 657.000
77.93935 624.000
77.95930 665.000
77.97925 679.000
77.99919 618.000
78.01914 655.000
78.03909 642.000
78.05903 621.000
78.07898 676.000
78.09893 622.000
78.11887 681.000
78.13882 690.000
78.15877 652.000
78.17872 702.000
78.19866 713.000
78.21861 715.000
78.23856 736.000
78.25850 670.000
78.27845 700.000
78.29840 717.000
78.31834 729.000
78.33829 727.000
78.35824 760.000
78.37819 745.000
78.39813 725.000
78.41808 765.000
78.43803 709.000
78.45797 737.000
78.47792 761.000
78.49787 713.000
78.51781 762.000
78.53776 723.000
78.55771 763.000
78.57765 735.000
78.59760 717.000
78.61755 721.000
78.63750 755.000
78.65744 698.000
78.67739 688.000
78.69734 718.000
78.71728 651.000
78.73723 689.000
78.75718 676.000
78.77712 645.000
78.79707 644.000
78.81702 653.000
78.83697 684.000
78.85691 694.000
78.87686 680.000
78.89681 636.000
78.91675 625.000
78.93670 680.000
78.95665 685.000
78.97659 657.000
78.99654 655.000
79.01649 627.000
79.03643 666.000
79.05638 719.000
79.07633 702.000
79.09628 678.000
79.11622 705.000
79.13617 692.000
79.15612 710.000
79.17606 695.000
79.19601 693.000
79.21596 699.000
79.23590 694.000
79.25585 694.000
79.27580 684.000
79.29575 696.000
79.31569 701.000
79.33564 684.000
79.35559 626.000
79.37553 691.000
79.39548 709.000
79.41543 621.000
79.43537 710.000
79.45532 659.000
79.47527 687.000
79.49521 664.000
79.51516 661.000
79.53511 662.000
79.55506 678.000
79.57500 680.000
79.59495 649.000
79.61490 657.000
79.63484 648.000
79.65479 688.000
79.67474 667.000
79.69468 663.000
79.71463 665.000
79.73458 635.000
79.75453 639.000
79.77447 639.000
79.79442 627.000
79.81437 624.000
79.83431 619.000
79.85426 666.000
79.87421 611.000
79.89415 601.000
79.91410 605.000
79.93405 608.000
79.95399 631.000
79.97394 584.000
79.99389 630.000
80.01384 673.000
80.03378 686.000
80.05373 637.000
80.07368 640.000
80.09362 664.000
80.11357 698.000
80.13352 691.000
80.15346 669.000
80.17341 695.000
80.19336 681.000
80.21331 674.000
80.23325 687.000
80.25320 708.000
80.27315 706.000
80.29309 749.000
80.31304 659.000
80.33299 779.000
80.35293 760.000
80.37288 769.000
80.39283 750.000
80.41278 787.000
80.43272 664.000
80.45267 719.000
80.47262 688.000
80.49256 725.000
80.51251 688.000
80.53246 719.000
80.55240 694.000
80.57235 743.000
80.59230 729.000
80.61224 694.000
80.63219 698.000
80.65214 677.000
80.67209 725.000
80.69203 638.000
80.71198 670.000
80.73193 604.000
80.75187 619.000
80.77182 644.000
80.79177 602.000
80.81171 603.000
80.83166 617.000
80.85161 640.000
80.87156 646.000
80.89150 660.000
80.91145 655.000
80.93140 592.000
80.95134 638.000
80.97129 588.000
80.99124 599.000
81.01118 654.000
81.03113 628.000
81.05108 617.000
81.07102 665.000
81.09097 588.000
81.11092 636.000
81.13087 683.000
81.15081 647.000
81.17076 664.000
81.19071 646.000
81.21065 670.000
81.23060 633.000
81.25055 668.000
81.27049 685.000
81.29044 673.000
81.31039 626.000
81.33034 659.000
81.35028 671.000
81.37023 631.000
81.39018 665.000
81.41012 640.000
81.43007 626.000
81.45002 614.000
81.46996 658.000
81.48991 647.000
81.50986 668.000
81.52980 610.000
81.54975 602.000
81.56970 677.000
81.58965 678.000
81.60959 652.000
81.62954 616.000
81.64949 673.000
81.66943 649.000
81.68938 638.000
81.70933 623.000
81.72927 543.000
81.74922 604.000
81.76917 602.000
81.78912 675.000
81.80906 640.000
81.82901 645.000
81.84896 661.000
81.86890 650.000
81.88885 635.000
81.90880 611.000
81.92874 645.000
81.94869 694.000
81.96864 633.000
81.98859 642.000
82.00853 683.000
82.02848 611.000
82.04843 664.000
82.06837 654.000
82.08832 679.000
82.10827 659.000
82.12821 657.000
82.14816 676.000
82.16811 655.000
82.18805 624.000
82.20800 650.000
82.22795 687.000
82.24790 676.000
82.26784 690.000
82.28779 689.000
82.30774 661.000
82.32768 678.000
82.34763 706.000
82.36758 718.000
82.38752 673.000
82.40747 709.000
82.42742 752.000
82.44737 738.000
82.46731 766.000
82.48726 800.000
82.50721 748.000
82.52715 802.000
82.54710 818.000
82.56705 836.000
82.58699 812.000
82.60694 828.000
82.62689 857.000
82.64683 889.000
82.66678 910.000
82.68673 858.000
82.70668 861.000
82.72662 813.000
82.74657 826.000
82.76652 831.000
82.78646 808.000
82.80641 890.000
82.82636 892.000
82.84630 853.000
82.86625 868.000
82.88620 847.000
82.90615 866.000
82.92609 800.000
82.94604 823.000
82.96599 845.000
82.98593 836.000
83.00588 769.000
83.02583 813.000
83.04577 780.000
83.06572 806.000
83.08567 774.000
83.10561 785.000
83.12556 762.000
83.14551 773.000
83.16546 767.000
83.18540 752.000
83.20535 727.000
83.22530 755.000
83.24524 752.000
83.26519 681.000
83.28514 757.000
83.30508 714.000
83.32503 755.000
83.34498 687.000
83.36493 704.000
83.38487 694.000
83.40482 700.000
83.42477 657.000
83.44471 674.000
83.46466 711.000
83.48461 718.000
83.50455 735.000
83.52450 733.000
83.54445 752.000
83.56440 725.000
83.58434 745.000
83.60429 764.000
83.62424 745.000
83.64418 756.000
83.66413 762.000
83.68408 746.000
83.70402 803.000
83.72397 822.000
83.74392 729.000
83.76386 804.000
83.78381 795.000
83.80376 784.000
83.82371 777.000
83.84365 762.000
83.86360 786.000
83.88355 767.000
83.90349 798.000
83.92344 720.000
83.94339 750.000
83.96333 722.000
83.98328 745.000
84.00323 720.000
84.02318 680.000
84.04312 726.000
84.06307 699.000
84.08302 669.000
84.10296 687.000
84.12291 690.000
84.14286 727.000
84.16280 707.000
84.18275 691.000
84.20270 649.000
84.22264 649.000
84.24259 631.000
84.26254 677.000
84.28249 656.000
84.30243 650.000
84.32238 651.000
84.34233 650.000
84.36227 660.000
84.38222 646.000
84.40217 662.000
84.42211 608.000
84.44206 641.000
84.46201 659.000
84.48196 624.000
84.50190 623.000
84.52185 668.000
84.54180 654.000
84.56174 646.000
84.58169 636.000
84.60164 657.000
84.62158 660.000
84.64153 674.000
84.66148 627.000
84.68142 594.000
84.70137 671.000
84.72132 673.000
84.74127 671.000
84.76121 654.000
84.78116 698.000
84.80111 707.000
84.82105 669.000
84.84100 689.000
84.86095 711.000
84.88089 723.000
84.90084 707.000
84.92079 725.000
84.94074 707.000
84.96068 722.000
84.98063 740.000
85.00058 768.000
85.02052 729.000
85.04047 713.000
85.06042 695.000
85.08036 679.000
85.10031 695.000
85.12026 698.000
85.14021 683.000
85.16015 736.000
85.18010 683.000
85.20005 709.000
85.21999 718.000
85.23994 662.000
85.25989 687.000
85.27983 666.000
85.29978 706.000
85.31973 688.000
85.33967 691.000
85.35962 675.000
85.37957 673.000
85.39952 671.000
85.41946 647.000
85.43941 666.000
85.45936 690.000
85.47930 638.000
85.49925 682.000
85.51920 647.000
85.53914 657.000
85.55909 644.000
85.57904 626.000
85.59899 593.000
85.61893 604.000
85.63888 677.000
85.65883 609.000
85.67877 666.000
85.69872 607.000
85.71867 661.000
85.73861 658.000
85.75856 662.000
85.77851 625.000
85.79845 639.000
85.81840 662.000
85.83835 670.000
85.85830 658.000
85.87824 653.000
85.89819 651.000
85.91814 612.000
85.93808 617.000
85.95803 645.000
85.97798 629.000
85.99792 654.000
86.01787 669.000
86.03782 651.000
86.05777 623.000
86.07771 621.000
86.09766 637.000
86.11761 643.000
86.13755 668.000
86.15750 648.000
86.17745 637.000
86.19739 640.000
86.21734 656.000
86.23729 634.000
86.25723 671.000
86.27718 619.000
86.29713 661.000
86.31708 636.000
86.33702 635.000
86.35697 663.000
86.37692 627.000
86.39686 631.000
86.41681 660.000
86.43676 688.000
86.45670 641.000
86.47665 701.000
86.49660 647.000
86.51655 629.000
86.53649 668.000
86.55644 692.000
86.57639 656.000
86.59633 715.000
86.61628 611.000
86.63623 635.000
86.65617 640.000
86.67612 691.000
86.69607 664.000
86.71602 629.000
86.73596 635.000
86.75591 678.000
86.77586 684.000
86.79580 683.000
86.81575 676.000
86.83570 673.000
86.85564 634.000
86.87559 649.000
86.89554 663.000
86.91548 681.000
86.93543 662.000
86.95538 672.000
86.97533 693.000
86.99527 677.000
87.01522 672.000
87.03517 702.000
87.05511 703.000
87.07506 652.000
87.09501 699.000
87.11495 627.000
87.13490 677.000
87.15485 669.000
87.17480 665.000
87.19474 652.000
87.21469 681.000
87.23464 659.000
87.25458 696.000
87.27453 675.000
87.29448 649.000
87.31442 681.000
87.33437 706.000
87.35432 687.000
87.37426 652.000
87.39421 650.000
87.41416 635.000
87.43411 589.000
87.45405 640.000
87.47400 653.000
87.49395 633.000
87.51389 668.000
87.53384 660.000
87.55379 640.000
87.57373 621.000
87.59368 603.000
87.61363 646.000
87.63358 614.000
87.65352 646.000
87.67347 662.000
87.69342 644.000
87.71336 665.000
87.73331 673.000
87.75326 628.000
87.77320 631.000
87.79315 639.000
87.81310 663.000
87.83304 643.000
87.85299 640.000
87.87294 682.000
87.89289 635.000
87.91283 690.000
87.93278 623.000
87.95273 641.000
87.97267 645.000
87.99262 644.000
88.01257 679.000
88.03251 639.000
88.05246 646.000
88.07241 602.000
88.09236 654.000
88.11230 649.000
88.13225 654.000
88.15220 630.000
88.17214 620.000
88.19209 646.000
88.21204 605.000
88.23198 656.000
88.25193 698.000
88.27188 688.000
88.29183 623.000
88.31177 666.000
88.33172 684.000
88.35167 623.000
88.37161 645.000
88.39156 647.000
88.41151 595.000
88.43145 640.000
88.45140 658.000
88.47135 690.000
88.49129 667.000
88.51124 649.000
88.53119 632.000
88.55114 666.000
88.57108 656.000
88.59103 622.000
88.61098 633.000
88.63092 684.000
88.65087 688.000
88.67082 625.000
88.69076 640.000
88.71071 649.000
88.73066 654.000
88.75061 619.000
88.77055 643.000
88.79050 652.000
88.81045 669.000
88.83039 622.000
88.85034 685.000
88.87029 634.000
88.89023 670.000
88.91018 655.000
88.93013 635.000
88.95007 638.000
88.97002 674.000
88.98997 641.000
89.00992 687.000
89.02986 651.000
89.04981 685.000
89.06976 654.000
89.08970 630.000
89.10965 687.000
89.12960 704.000
89.14954 709.000
89.16949 671.000
89.18944 681.000
89.20939 646.000
89.22933 677.000
89.24928 676.000
89.26923 714.000
89.28917 674.000
89.30912 690.000
89.32907 709.000
89.34901 739.000
89.36896 748.000
89.38891 761.000
89.40885 695.000
89.42880 720.000
89.44875 751.000
89.46870 770.000
89.48864 738.000
89.50859 743.000
89.52854 812.000
89.54848 744.000
89.56843 776.000
89.58838 758.000
89.60832 768.000
89.62827 737.000
89.64822 760.000
89.66817 765.000
89.68811 813.000
89.70806 819.000
89.72801 781.000
89.74795 730.000
89.76790 751.000
89.78785 710.000
89.80779 701.000
89.82774 707.000
89.84769 750.000
89.86764 743.000
89.88758 756.000
89.90753 731.000
89.92748 777.000
89.94742 773.000
89.96737 713.000
89.98732 693.000
90.00726 740.000
