10.00000 83.000
10.01995 102.000
10.03989 73.000
10.05984 79.000
10.07979 85.000
10.09973 96.000
10.11968 99.000
10.13963 96.000
10.15958 84.000
10.17952 82.000
10.19947 91.000
10.21942 76.000
10.23936 81.000
10.25931 86.000
10.27926 80.000
10.29920 111.000
10.31915 85.000
10.33910 81.000
10.35905 81.000
10.37899 82.000
10.39894 70.000
10.41889 90.000
10.43883 73.000
10.45878 61.000
10.47873 80.000
10.49867 87.000
10.51862 70.000
10.53857 75.000
10.55851 92.000
10.57846 94.000
10.59841 82.000
10.61836 93.000
10.63830 73.000
10.65825 84.000
10.67820 84.000
10.69814 81.000
10.71809 93.000
10.73804 92.000
10.75798 83.000
10.77793 87.000
10.79788 87.000
10.81783 74.000
10.83777 86.000
10.85772 70.000
10.87767 92.000
10.89761 84.000
10.91756 94.000
10.93751 88.000
10.95745 81.000
10.97740 85.000
10.99735 78.000
11.01730 95.000
11.03724 86.000
11.05719 90.000
11.07714 85.000
11.09708 65.000
11.11703 88.000
11.13698 77.000
11.15692 84.000
11.17687 95.000
11.19682 73.000
11.21676 70.000
11.23671 73.000
11.25666 87.000
11.27661 74.000
11.29655 81.000
11.31650 82.000
11.33645 98.000
11.35639 89.000
11.37634 79.000
11.39629 97.000
11.41623 82.000
11.43618 84.000
11.45613 89.000
11.47608 93.000
11.49602 71.000
11.51597 72.000
11.53592 61.000
11.55586 85.000
11.57581 77.000
11.59576 92.000
11.61570 77.000
11.63565 92.000
11.65560 103.000
11.67554 86.000
11.69549 71.000
11.71544 86.000
11.73539 62.000
11.75533 91.000
11.77528 87.000
11.79523 90.000
11.81517 76.000
11.83512 79.000
11.85507 97.000
11.87501 93.000
11.89496 80.000
11.91491 96.000
11.93486 87.000
11.95480 84.000
11.97475 94.000
11.99470 79.000
12.01464 93.000
12.03459 73.000
12.05454 74.000
12.07448 71.000
12.09443 84.000
12.11438 86.000
12.13432 91.000
12.15427 93.000
12.17422 83.000
12.19417 106.000
12.21411 88.000
12.23406 90.000
12.25401 87.000
12.27395 72.000
12.29390 83.000
12.31385 86.000
12.33379 83.000
12.35374 84.000
12.37369 94.000
12.39364 76.000
12.41358 79.000
12.43353 88.000
12.45348 69.000
12.47342 108.000
12.49337 87.000
12.51332 83.000
12.53326 77.000
12.55321 96.000
12.57316 79.000
12.59311 98.000
12.61305 83.000
12.63300 86.000
12.65295 85.000
12.67289 96.000
12.69284 96.000
12.71279 88.000
12.73273 88.000
12.75268 83.000
12.77263 87.000
12.79257 84.000
12.81252 97.000
12.83247 90.000
12.85242 87.000
12.87236 109.000
12.89231 104.000
12.91226 76.000
12.93220 83.000
12.95215 83.000
12.97210 83.000
12.99204 81.000
13.01199 96.000
13.03194 97.000
13.05189 88.000
13.07183 87.000
13.09178 85.000
13.11173 97.000
13.13167 101.000
13.15162 100.000
13.17157 89.000
13.19151 92.000
13.21146 79.000
13.23141 82.000
13.25135 86.000
13.27130 106.000
13.29125 84.000
13.31120 96.000
13.33114 82.000
13.35109 83.000
13.37104 78.000
13.39098 73.000
13.41093 93.000
13.43088 88.000
13.45082 80.000
13.47077 76.000
13.49072 102.000
13.51067 73.000
13.53061 103.000
13.55056 93.000
13.57051 85.000
13.59045 79.000
13.61040 91.000
13.63035 90.000
13.65029 83.000
13.67024 78.000
13.69019 81.000
13.71013 77.000
13.73008 94.000
13.75003 99.000
13.76998 98.000
13.78992 112.000
13.80987 84.000
13.82982 108.000
13.84976 89.000
13.86971 97.000
13.88966 83.000
13.90960 86.000
13.92955 97.000
13.94950 77.000
13.96945 84.000
13.98939 95.000
14.00934 97.000
14.02929 95.000
14.04923 87.000
14.06918 84.000
14.08913 84.000
14.10907 99.000
14.12902 96.000
14.14897 110.000
14.16892 99.000
14.18886 95.000
14.20881 106.000
14.22876 85.000
14.24870 82.000
14.26865 87.000
14.28860 87.000
14.30854 93.000
14.32849 84.000
14.34844 77.000
14.36838 94.000
14.38833 95.000
14.40828 87.000
14.42823 92.000
14.44817 117.000
14.46812 74.000
14.48807 88.000
14.50801 93.000
14.52796 91.000
14.54791 94.000
14.56785 78.000
14.58780 82.000
14.60775 91.000
14.62770 90.000
14.64764 100.000
14.66759 94.000
14.68754 100.000
14.70748 91.000
14.72743 82.000
14.74738 109.000
14.76732 90.000
14.78727 86.000
14.80722 72.000
14.82716 83.000
14.84711 78.000
14.86706 106.000
14.88701 110.000
14.90695 108.000
14.92690 98.000
14.94685 83.000
14.96679 82.000
14.98674 89.000
15.00669 95.000
15.02663 73.000
15.04658 94.000
15.06653 106.000
15.08648 93.000
15.10642 98.000
15.12637 107.000
15.14632 93.000
15.16626 102.000
15.18621 101.000
15.20616 100.000
15.22610 109.000
15.24605 94.000
15.26600 116.000
15.28594 91.000
15.30589 92.000
15.32584 115.000
15.34579 112.000
15.36573 99.000
15.38568 106.000
15.40563 97.000
15.42557 101.000
15.44552 114.000
15.46547 95.000
15.48541 100.000
15.50536 110.000
15.52531 107.000
15.54526 113.000
15.56520 99.000
15.58515 97.000
15.60510 106.000
15.62504 99.000
15.64499 128.000
15.66494 124.000
15.68488 111.000
15.70483 83.000
15.72478 107.000
15.74472 121.000
15.76467 117.000
15.78462 132.000
15.80457 148.000
15.82451 116.000
15.84446 111.000
15.86441 129.000
15.88435 126.000
15.90430 97.000
15.92425 115.000
15.94419 118.000
15.96414 108.000
15.98409 102.000
16.00404 111.000
16.02398 93.000
16.04393 130.000
16.06388 119.000
16.08382 133.000
16.10377 109.000
16.12372 106.000
16.14366 115.000
16.16361 141.000
16.18356 117.000
16.20351 146.000
16.22345 132.000
16.24340 111.000
16.26335 113.000
16.28329 126.000
16.30324 120.000
16.32319 107.000
16.34313 114.000
16.36308 124.000
16.38303 122.000
16.40297 111.000
16.42292 141.000
16.44287 132.000
16.46282 131.000
16.48276 115.000
16.50271 117.000
16.52266 114.000
16.54260 134.000
16.56255 124.000
16.58250 130.000
16.60244 158.000
16.62239 130.000
16.64234 151.000
16.66229 114.000
16.68223 143.000
16.70218 150.000
16.72213 141.000
16.74207 128.000
16.76202 162.000
16.78197 141.000
16.80191 138.000
16.82186 133.000
16.84181 122.000
16.86175 130.000
16.88170 154.000
16.90165 143.000
16.92160 155.000
16.94154 143.000
16.96149 148.000
16.98144 134.000
17.00138 137.000
17.02133 123.000
17.04128 129.000
17.06122 147.000
17.08117 128.000
17.10112 147.000
17.12107 162.000
17.14101 142.000
17.16096 141.000
17.18091 157.000
17.20085 155.000
17.22080 153.000
17.24075 140.000
17.26069 146.000
17.28064 126.000
17.30059 142.000
17.32053 149.000
17.34048 131.000
17.36043 135.000
17.38038 164.000
17.40032 161.000
17.42027 164.000
17.44022 164.000
17.46016 164.000
17.48011 150.000
17.50006 168.000
17.52000 143.000
17.53995 153.000
17.55990 144.000
17.57985 141.000
17.59979 118.000
17.61974 147.000
17.63969 143.000
17.65963 148.000
17.67958 151.000
17.69953 159.000
17.71947 154.000
17.73942 141.000
17.75937 150.000
17.77932 180.000
17.79926 174.000
17.81921 178.000
17.83916 165.000
17.85910 174.000
17.87905 150.000
17.89900 156.000
17.91894 188.000
17.93889 159.000
17.95884 183.000
17.97878 169.000
17.99873 179.000
18.01868 192.000
18.03863 191.000
18.05857 167.000
18.07852 155.000
18.09847 162.000
18.11841 194.000
18.13836 194.000
18.15831 191.000
18.17825 180.000
18.19820 146.000
18.21815 139.000
18.23810 154.000
18.25804 175.000
18.27799 165.000
18.29794 148.000
18.31788 179.000
18.33783 188.000
18.35778 180.000
18.37772 166.000
18.39767 162.000
18.41762 171.000
18.43756 165.000
18.45751 185.000
18.47746 175.000
18.49741 155.000
18.51735 166.000
18.53730 177.000
18.55725 153.000
18.57719 161.000
18.59714 167.000
18.61709 186.000
18.63703 184.000
18.65698 187.000
18.67693 175.000
18.69688 172.000
18.71682 196.000
18.73677 198.000
18.75672 183.000
18.77666 169.000
18.79661 202.000
18.81656 177.000
18.83650 189.000
18.85645 195.000
18.87640 158.000
18.89634 194.000
18.91629 206.000
18.93624 163.000
18.95619 185.000
18.97613 192.000
18.99608 205.000
19.01603 182.000
19.03597 155.000
19.05592 191.000
19.07587 182.000
19.09581 187.000
19.11576 172.000
19.13571 194.000
19.15566 190.000
19.17560 193.000
19.19555 199.000
19.21550 186.000
19.23544 203.000
19.25539 188.000
19.27534 199.000
19.29528 201.000
19.31523 211.000
19.33518 189.000
19.35513 211.000
19.37507 208.000
19.39502 215.000
19.41497 246.000
19.43491 207.000
19.45486 241.000
19.47481 231.000
19.49475 205.000
19.51470 239.000
19.53465 213.000
19.55459 235.000
19.57454 231.000
19.59449 277.000
19.61444 263.000
19.63438 227.000
19.65433 258.000
19.67428 253.000
19.69422 228.000
19.71417 248.000
19.73412 242.000
19.75406 274.000
19.77401 235.000
19.79396 228.000
19.81391 223.000
19.83385 247.000
19.85380 230.000
19.87375 224.000
19.89369 255.000
19.91364 219.000
19.93359 245.000
19.95353 272.000
19.97348 260.000
19.99343 271.000
20.01337 257.000
20.03332 268.000
20.05327 291.000
20.07322 270.000
20.09316 306.000
20.11311 302.000
20.13306 279.000
20.15300 327.000
20.17295 340.000
20.19290 334.000
20.21284 358.000
20.23279 310.000
20.25274 334.000
20.27269 336.000
20.29263 327.000
20.31258 299.000
20.33253 334.000
20.35247 280.000
20.37242 308.000
20.39237 280.000
20.41231 270.000
20.43226 246.000
20.45221 268.000
20.47215 237.000
20.49210 263.000
20.51205 245.000
20.53200 262.000
20.55194 233.000
20.57189 230.000
20.59184 255.000
20.61178 238.000
20.63173 231.000
20.65168 224.000
20.67162 226.000
20.69157 240.000
20.71152 206.000
20.73147 236.000
20.75141 206.000
20.77136 228.000
20.79131 208.000
20.81125 210.000
20.83120 220.000
20.85115 241.000
20.87109 215.000
20.89104 219.000
20.91099 229.000
20.93094 212.000
20.95088 245.000
20.97083 246.000
20.99078 200.000
21.01072 214.000
21.03067 226.000
21.05062 208.000
21.07056 218.000
21.09051 240.000
21.11046 251.000
21.13040 216.000
21.15035 245.000
21.17030 214.000
21.19025 235.000
21.21019 219.000
21.23014 246.000
21.25009 243.000
21.27003 209.000
21.28998 220.000
21.30993 182.000
21.32987 203.000
21.34982 244.000
21.36977 217.000
21.38972 225.000
21.40966 239.000
21.42961 228.000
21.44956 238.000
21.46950 220.000
21.48945 264.000
21.50940 207.000
21.52934 239.000
21.54929 207.000
21.56924 234.000
21.58918 219.000
21.60913 196.000
21.62908 227.000
21.64903 219.000
21.66897 252.000
21.68892 222.000
21.70887 247.000
21.72881 234.000
21.74876 237.000
21.76871 245.000
21.78865 219.000
21.80860 221.000
21.82855 245.000
21.84850 257.000
21.86844 256.000
21.88839 233.000
21.90834 220.000
21.92828 235.000
21.94823 244.000
21.96818 233.000
21.98812 218.000
22.00807 225.000
22.02802 234.000
22.04796 232.000
22.06791 239.000
22.08786 244.000
22.10781 228.000
22.12775 272.000
22.14770 256.000
22.16765 213.000
22.18759 278.000
22.20754 265.000
22.22749 267.000
22.24743 256.000
22.26738 214.000
22.28733 222.000
22.30728 232.000
22.32722 263.000
22.34717 232.000
22.36712 267.000
22.38706 237.000
22.40701 236.000
22.42696 256.000
22.44690 247.000
22.46685 213.000
22.48680 245.000
22.50675 231.000
22.52669 239.000
22.54664 255.000
22.56659 233.000
22.58653 240.000
22.60648 261.000
22.62643 259.000
22.64637 241.000
22.66632 263.000
22.68627 230.000
22.70621 261.000
22.72616 257.000
22.74611 229.000
22.76606 225.000
22.78600 246.000
22.80595 244.000
22.82590 245.000
22.84584 232.000
22.86579 225.000
22.88574 247.000
22.90568 256.000
22.92563 243.000
22.94558 232.000
22.96553 242.000
22.98547 260.000
23.00542 242.000
23.02537 251.000
23.04531 263.000
23.06526 254.000
23.08521 257.000
23.10515 257.000
23.12510 229.000
23.14505 257.000
23.16499 270.000
23.18494 267.000
23.20489 234.000
23.22484 264.000
23.24478 253.000
23.26473 283.000
23.28468 272.000
23.30462 281.000
23.32457 249.000
23.34452 259.000
23.36446 253.000
23.38441 285.000
23.40436 268.000
23.42431 284.000
23.44425 278.000
23.46420 287.000
23.48415 246.000
23.50409 240.000
23.52404 235.000
23.54399 275.000
23.56393 265.000
23.58388 241.000
23.60383 296.000
23.62377 264.000
23.64372 284.000
23.66367 273.000
23.68362 284.000
23.70356 263.000
23.72351 261.000
23.74346 271.000
23.76340 262.000
23.78335 274.000
23.80330 252.000
23.82324 293.000
23.84319 276.000
23.86314 267.000
23.88309 249.000
23.90303 254.000
23.92298 243.000
23.94293 290.000
23.96287 267.000
23.98282 279.000
24.00277 283.000
24.02271 274.000
24.04266 288.000
24.06261 288.000
24.08256 298.000
24.10250 315.000
24.12245 287.000
24.14240 291.000
24.16234 295.000
24.18229 280.000
24.20224 286.000
24.22218 240.000
24.24213 297.000
24.26208 281.000
24.28202 303.000
24.30197 292.000
24.32192 278.000
24.34187 243.000
24.36181 246.000
24.38176 283.000
24.40171 312.000
24.42165 270.000
24.44160 268.000
24.46155 278.000
24.48149 310.000
24.50144 294.000
24.52139 294.000
24.54134 305.000
24.56128 282.000
24.58123 273.000
24.60118 321.000
24.62112 288.000
24.64107 282.000
24.66102 262.000
24.68096 291.000
24.70091 278.000
24.72086 272.000
24.74080 292.000
24.76075 262.000
24.78070 309.000
24.80065 257.000
24.82059 247.000
24.84054 306.000
24.86049 283.000
24.88043 294.000
24.90038 295.000
24.92033 295.000
24.94027 288.000
24.96022 305.000
24.98017 317.000
25.00012 308.000
25.02006 301.000
25.04001 298.000
25.05996 299.000
25.07990 336.000
25.09985 297.000
25.11980 318.000
25.13974 316.000
25.15969 323.000
25.17964 299.000
25.19958 314.000
25.21953 309.000
25.23948 340.000
25.25943 317.000
25.27937 365.000
25.29932 320.000
25.31927 299.000
25.33921 367.000
25.35916 306.000
25.37911 294.000
25.39905 332.000
25.41900 342.000
25.43895 326.000
25.45890 318.000
25.47884 301.000
25.49879 370.000
25.51874 334.000
25.53868 319.000
25.55863 328.000
25.57858 342.000
25.59852 325.000
25.61847 338.000
25.63842 316.000
25.65837 351.000
25.67831 299.000
25.69826 326.000
25.71821 362.000
25.73815 359.000
25.75810 325.000
25.77805 325.000
25.79799 306.000
25.81794 332.000
25.83789 336.000
25.85783 318.000
25.87778 347.000
25.89773 318.000
25.91768 315.000
25.93762 340.000
25.95757 340.000
25.97752 340.000
25.99746 336.000
26.01741 334.000
26.03736 323.000
26.05730 340.000
26.07725 319.000
26.09720 358.000
26.11715 341.000
26.13709 347.000
26.15704 324.000
26.17699 349.000
26.19693 353.000
26.21688 334.000
26.23683 331.000
26.25677 344.000
26.27672 327.000
26.29667 320.000
26.31661 321.000
26.33656 336.000
26.35651 379.000
26.37646 375.000
26.39640 338.000
26.41635 350.000
26.43630 344.000
26.45624 386.000
26.47619 352.000
26.49614 381.000
26.51608 338.000
26.53603 349.000
26.55598 347.000
26.57593 355.000
26.59587 360.000
26.61582 314.000
26.63577 351.000
26.65571 330.000
26.67566 348.000
26.69561 321.000
26.71555 364.000
26.73550 367.000
26.75545 367.000
26.77539 345.000
26.79534 329.000
26.81529 391.000
26.83524 374.000
26.85518 358.000
26.87513 381.000
26.89508 394.000
26.91502 401.000
26.93497 409.000
26.95492 367.000
26.97486 346.000
26.99481 359.000
27.01476 350.000
27.03471 387.000
27.05465 379.000
27.07460 348.000
27.09455 377.000
27.11449 366.000
27.13444 349.000
27.15439 368.000
27.17433 358.000
27.19428 396.000
27.21423 373.000
27.23417 360.000
27.25412 374.000
27.27407 378.000
27.29402 405.000
27.31396 377.000
27.33391 361.000
27.35386 393.000
27.37380 377.000
27.39375 408.000
27.41370 378.000
27.43364 384.000
27.45359 390.000
27.47354 413.000
27.49349 397.000
27.51343 362.000
27.53338 378.000
27.55333 352.000
27.57327 361.000
27.59322 396.000
27.61317 380.000
27.63311 347.000
27.65306 391.000
27.67301 398.000
27.69296 407.000
27.71290 450.000
27.73285 376.000
27.75280 370.000
27.77274 388.000
27.79269 395.000
27.81264 410.000
27.83258 392.000
27.85253 375.000
27.87248 421.000
27.89242 366.000
27.91237 383.000
27.93232 412.000
27.95227 382.000
27.97221 392.000
27.99216 418.000
28.01211 394.000
28.03205 402.000
28.05200 371.000
28.07195 389.000
28.09189 373.000
28.11184 390.000
28.13179 384.000
28.15174 408.000
28.17168 410.000
28.19163 352.000
28.21158 413.000
28.23152 418.000
28.25147 385.000
28.27142 332.000
28.29136 380.000
28.31131 436.000
28.33126 390.000
28.35120 370.000
28.37115 394.000
28.39110 413.000
28.41105 407.000
28.43099 402.000
28.45094 430.000
28.47089 400.000
28.49083 386.000
28.51078 405.000
28.53073 406.000
28.55067 409.000
28.57062 400.000
28.59057 395.000
28.61052 430.000
28.63046 398.000
28.65041 398.000
28.67036 450.000
28.69030 449.000
28.71025 440.000
28.73020 402.000
28.75014 443.000
28.77009 416.000
28.79004 419.000
28.80998 430.000
28.82993 429.000
28.84988 435.000
28.86983 434.000
28.88977 453.000
28.90972 450.000
28.92967 453.000
28.94961 508.000
28.96956 508.000
28.98951 515.000
29.00945 444.000
29.02940 471.000
29.04935 526.000
29.06930 488.000
29.08924 509.000
29.10919 529.000
29.12914 496.000
29.14908 526.000
29.16903 492.000
29.18898 493.000
29.20892 481.000
29.22887 466.000
29.24882 466.000
29.26877 451.000
29.28871 449.000
29.30866 442.000
29.32861 426.000
29.34855 442.000
29.36850 454.000
29.38845 434.000
29.40839 464.000
29.42834 426.000
29.44829 426.000
29.46823 425.000
29.48818 436.000
29.50813 422.000
29.52808 415.000
29.54802 430.000
29.56797 426.000
29.58792 432.000
29.60786 453.000
29.62781 460.000
29.64776 420.000
29.66770 473.000
29.68765 531.000
29.70760 500.000
29.72755 553.000
29.74749 563.000
29.76744 540.000
29.78739 623.000
29.80733 614.000
29.82728 604.000
29.84723 629.000
29.86717 543.000
29.88712 549.000
29.90707 586.000
29.92701 509.000
29.94696 496.000
29.96691 500.000
29.98686 458.000
30.00680 437.000
30.02675 427.000
30.04670 442.000
30.06664 393.000
30.08659 414.000
30.10654 389.000
30.12648 420.000
30.14643 446.000
30.16638 405.000
30.18633 427.000
30.20627 389.000
30.22622 383.000
30.24617 416.000
30.26611 394.000
30.28606 395.000
30.30601 409.000
30.32595 409.000
30.34590 385.000
30.36585 424.000
30.38579 368.000
30.40574 396.000
30.42569 356.000
30.44564 396.000
30.46558 397.000
30.48553 380.000
30.50548 419.000
30.52542 423.000
30.54537 396.000
30.56532 424.000
30.58526 418.000
30.60521 352.000
30.62516 364.000
30.64511 437.000
30.66505 407.000
30.68500 373.000
30.70495 378.000
30.72489 361.000
30.74484 413.000
30.76479 407.000
30.78473 386.000
30.80468 385.000
30.82463 374.000
30.84458 407.000
30.86452 380.000
30.88447 382.000
30.90442 387.000
30.92436 395.000
30.94431 423.000
30.96426 416.000
30.98420 424.000
31.00415 413.000
31.02410 416.000
31.04404 413.000
31.06399 410.000
31.08394 385.000
31.10389 390.000
31.12383 401.000
31.14378 436.000
31.16373 400.000
31.18367 432.000
31.20362 421.000
31.22357 393.000
31.24351 435.000
31.26346 459.000
31.28341 402.000
31.30336 384.000
31.32330 402.000
31.34325 414.000
31.36320 433.000
31.38314 397.000
31.40309 409.000
31.42304 411.000
31.44298 432.000
31.46293 415.000
31.48288 407.000
31.50282 442.000
31.52277 430.000
31.54272 413.000
31.56267 440.000
31.58261 375.000
31.60256 407.000
31.62251 423.000
31.64245 411.000
31.66240 415.000
31.68235 399.000
31.70229 444.000
31.72224 367.000
31.74219 414.000
31.76214 389.000
31.78208 410.000
31.80203 366.000
31.82198 394.000
31.84192 391.000
31.86187 395.000
31.88182 402.000
31.90176 380.000
31.92171 366.000
31.94166 361.000
31.96160 363.000
31.98155 378.000
32.00150 352.000
32.02145 354.000
32.04139 362.000
32.06134 357.000
32.08129 369.000
32.10123 389.000
32.12118 364.000
32.14113 387.000
32.16107 371.000
32.18102 368.000
32.20097 397.000
32.22092 392.000
32.24086 332.000
32.26081 342.000
32.28076 349.000
32.30070 359.000
32.32065 341.000
32.34060 383.000
32.36054 363.000
32.38049 368.000
32.40044 339.000
32.42039 349.000
32.44033 361.000
32.46028 358.000
32.48023 312.000
32.50017 343.000
32.52012 355.000
32.54007 363.000
32.56001 361.000
32.57996 363.000
32.59991 376.000
32.61985 339.000
32.63980 369.000
32.65975 378.000
32.67970 392.000
32.69964 415.000
32.71959 424.000
32.73954 433.000
32.75948 451.000
32.77943 469.000
32.79938 477.000
32.81932 470.000
32.83927 481.000
32.85922 482.000
32.87917 476.000
32.89911 522.000
32.91906 492.000
32.93901 484.000
32.95895 469.000
32.97890 455.000
32.99885 480.000
33.01879 456.000
33.03874 428.000
33.05869 424.000
33.07863 421.000
33.09858 418.000
33.11853 406.000
33.13848 397.000
33.15842 420.000
33.17837 411.000
33.19832 404.000
33.21826 423.000
33.23821 394.000
33.25816 396.000
33.27810 396.000
33.29805 392.000
33.31800 399.000
33.33795 436.000
33.35789 438.000
33.37784 458.000
33.39779 463.000
33.41773 522.000
33.43768 593.000
33.45763 565.000
33.47757 558.000
33.49752 627.000
33.51747 625.000
33.53741 607.000
33.55736 630.000
33.57731 689.000
33.59726 628.000
33.61720 641.000
33.63715 669.000
33.65710 625.000
33.67704 576.000
33.69699 562.000
33.71694 514.000
33.73688 514.000
33.75683 514.000
33.77678 513.000
33.79673 500.000
33.81667 451.000
33.83662 459.000
33.85657 425.000
33.87651 412.000
33.89646 436.000
33.91641 414.000
33.93635 427.000
33.95630 378.000
33.97625 386.000
33.99620 402.000
34.01614 359.000
34.03609 387.000
34.05604 386.000
34.07598 359.000
34.09593 371.000
34.11588 352.000
34.13582 353.000
34.15577 347.000
34.17572 360.000
34.19566 364.000
34.21561 386.000
34.23556 356.000
34.25551 308.000
34.27545 360.000
34.29540 341.000
34.31535 350.000
34.33529 365.000
34.35524 339.000
34.37519 346.000
34.39513 321.000
34.41508 329.000
34.43503 347.000
34.45498 311.000
34.47492 328.000
34.49487 358.000
34.51482 297.000
34.53476 348.000
34.55471 345.000
34.57466 320.000
34.59460 318.000
34.61455 311.000
34.63450 340.000
34.65444 338.000
34.67439 315.000
34.69434 347.000
34.71429 335.000
34.73423 372.000
34.75418 386.000
34.77413 352.000
34.79407 377.000
34.81402 360.000
34.83397 396.000
34.85391 401.000
34.87386 397.000
34.89381 430.000
34.91376 394.000
34.93370 430.000
34.95365 493.000
34.97360 436.000
34.99354 515.000
35.01349 554.000
35.03344 614.000
35.05338 723.000
35.07333 778.000
35.09328 890.000
35.11322 949.000
35.13317 1139.000
35.15312 1127.000
35.17307 1227.000
35.19301 1176.000
35.21296 1250.000
35.23291 1297.000
35.25285 1182.000
35.27280 1111.000
35.29275 1010.000
35.31269 973.000
35.33264 869.000
35.35259 753.000
35.37254 595.000
35.39248 548.000
35.41243 481.000
35.43238 461.000
35.45232 415.000
35.47227 436.000
35.49222 362.000
35.51216 399.000
35.53211 350.000
35.55206 337.000
35.57201 361.000
35.59195 341.000
35.61190 352.000
35.63185 333.000
35.65179 339.000
35.67174 331.000
35.69169 354.000
35.71163 357.000
35.73158 339.000
35.75153 372.000
35.77147 382.000
35.79142 365.000
35.81137 395.000
35.83132 403.000
35.85126 369.000
35.87121 380.000
35.89116 378.000
35.91110 345.000
35.93105 356.000
35.95100 357.000
35.97094 350.000
35.99089 347.000
36.01084 282.000
36.03079 294.000
36.05073 289.000
36.07068 314.000
36.09063 280.000
36.11057 276.000
36.13052 286.000
36.15047 273.000
36.17041 297.000
36.19036 284.000
36.21031 258.000
36.23025 289.000
36.25020 293.000
36.27015 273.000
36.29010 291.000
36.31004 285.000
36.32999 298.000
36.34994 248.000
36.36988 263.000
36.38983 277.000
36.40978 274.000
36.42972 270.000
36.44967 251.000
36.46962 282.000
36.48957 267.000
36.50951 276.000
36.52946 262.000
36.54941 274.000
36.56935 281.000
36.58930 259.000
36.60925 271.000
36.62919 258.000
36.64914 285.000
36.66909 290.000
36.68903 282.000
36.70898 333.000
36.72893 323.000
36.74888 297.000
36.76882 314.000
36.78877 307.000
36.80872 294.000
36.82866 328.000
36.84861 350.000
36.86856 313.000
36.88850 324.000
36.90845 301.000
36.92840 310.000
36.94835 298.000
36.96829 264.000
36.98824 327.000
37.00819 280.000
37.02813 268.000
37.04808 261.000
37.06803 254.000
37.08797 266.000
37.10792 236.000
37.12787 260.000
37.14781 270.000
37.16776 254.000
37.18771 232.000
37.20766 255.000
37.22760 239.000
37.24755 265.000
37.26750 255.000
37.28744 266.000
37.30739 240.000
37.32734 248.000
37.34728 291.000
37.36723 255.000
37.38718 245.000
37.40713 248.000
37.42707 216.000
37.44702 245.000
37.46697 252.000
37.48691 286.000
37.50686 247.000
37.52681 256.000
37.54675 250.000
37.56670 249.000
37.58665 255.000
37.60660 251.000
37.62654 265.000
37.64649 241.000
37.66644 235.000
37.68638 259.000
37.70633 271.000
37.72628 254.000
37.74622 231.000
37.76617 239.000
37.78612 273.000
37.80606 270.000
37.82601 269.000
37.84596 254.000
37.86591 229.000
37.88585 247.000
37.90580 278.000
37.92575 283.000
37.94569 280.000
37.96564 268.000
37.98559 250.000
38.00553 294.000
38.02548 276.000
38.04543 263.000
38.06538 264.000
38.08532 278.000
38.10527 274.000
38.12522 279.000
38.14516 315.000
38.16511 323.000
38.18506 302.000
38.20500 327.000
38.22495 325.000
38.24490 345.000
38.26484 325.000
38.28479 304.000
38.30474 311.000
38.32469 373.000
38.34463 348.000
38.36458 318.000
38.38453 344.000
38.40447 323.000
38.42442 319.000
38.44437 297.000
38.46431 336.000
38.48426 308.000
38.50421 305.000
38.52416 298.000
38.54410 308.000
38.56405 285.000
38.58400 285.000
38.60394 306.000
38.62389 314.000
38.64384 293.000
38.66378 287.000
38.68373 262.000
38.70368 311.000
38.72362 283.000
38.74357 277.000
38.76352 217.000
38.78347 267.000
38.80341 265.000
38.82336 253.000
38.84331 280.000
38.86325 238.000
38.88320 279.000
38.90315 233.000
38.92309 255.000
38.94304 238.000
38.96299 251.000
38.98294 247.000
39.00288 257.000
39.02283 241.000
39.04278 259.000
39.06272 237.000
39.08267 261.000
39.10262 258.000
39.12256 247.000
39.14251 244.000
39.16246 236.000
39.18241 228.000
39.20235 243.000
39.22230 243.000
39.24225 263.000
39.26219 220.000
39.28214 242.000
39.30209 269.000
39.32203 240.000
39.34198 227.000
39.36193 230.000
39.38187 235.000
39.40182 220.000
39.42177 223.000
39.44172 214.000
39.46166 236.000
39.48161 232.000
39.50156 246.000
39.52150 217.000
39.54145 262.000
39.56140 238.000
39.58134 233.000
39.60129 254.000
39.62124 249.000
39.64119 247.000
39.66113 232.000
39.68108 236.000
39.70103 248.000
39.72097 234.000
39.74092 227.000
39.76087 234.000
39.78081 233.000
39.80076 244.000
39.82071 262.000
39.84065 230.000
39.86060 264.000
39.88055 253.000
39.90050 244.000
39.92044 232.000
39.94039 259.000
39.96034 242.000
39.98028 237.000
40.00023 244.000
40.02018 211.000
40.04012 227.000
40.06007 212.000
40.08002 225.000
40.09997 272.000
40.11991 207.000
40.13986 230.000
40.15981 271.000
40.17975 248.000
40.19970 257.000
40.21965 224.000
40.23959 252.000
40.25954 245.000
40.27949 263.000
40.29943 259.000
40.31938 255.000
40.33933 236.000
40.35928 239.000
40.37922 268.000
40.39917 230.000
40.41912 250.000
40.43906 252.000
40.45901 245.000
40.47896 235.000
40.49890 251.000
40.51885 239.000
40.53880 249.000
40.55875 246.000
40.57869 259.000
40.59864 303.000
40.61859 265.000
40.63853 285.000
40.65848 281.000
40.67843 258.000
40.69837 294.000
40.71832 290.000
40.73827 279.000
40.75822 294.000
40.77816 265.000
40.79811 285.000
40.81806 278.000
40.83800 299.000
40.85795 283.000
40.87790 288.000
40.89784 280.000
40.91779 292.000
40.93774 301.000
40.95768 290.000
40.97763 314.000
40.99758 338.000
41.01753 307.000
41.03747 308.000
41.05742 351.000
41.07737 366.000
41.09731 376.000
41.11726 387.000
41.13721 357.000
41.15715 377.000
41.17710 363.000
41.19705 438.000
41.21700 390.000
41.23694 430.000
41.25689 390.000
41.27684 411.000
41.29678 395.000
41.31673 418.000
41.33668 398.000
41.35662 414.000
41.37657 369.000
41.39652 358.000
41.41646 300.000
41.43641 365.000
41.45636 303.000
41.47631 309.000
41.49625 321.000
41.51620 274.000
41.53615 323.000
41.55609 302.000
41.57604 292.000
41.59599 288.000
41.61593 257.000
41.63588 286.000
41.65583 279.000
41.67578 276.000
41.69572 268.000
41.71567 240.000
41.73562 248.000
41.75556 265.000
41.77551 246.000
41.79546 240.000
41.81540 223.000
41.83535 241.000
41.85530 270.000
41.87524 246.000
41.89519 283.000
41.91514 245.000
41.93509 255.000
41.95503 250.000
41.97498 245.000
41.99493 263.000
42.01487 270.000
42.03482 271.000
42.05477 210.000
42.07471 238.000
42.09466 226.000
42.11461 234.000
42.13456 213.000
42.15450 261.000
42.17445 227.000
42.19440 256.000
42.21434 239.000
42.23429 262.000
42.25424 243.000
42.27418 230.000
42.29413 226.000
42.31408 260.000
42.33403 231.000
42.35397 210.000
42.37392 277.000
42.39387 267.000
42.41381 234.000
42.43376 234.000
42.45371 209.000
42.47365 264.000
42.49360 270.000
42.51355 231.000
42.53349 259.000
42.55344 283.000
42.57339 283.000
42.59334 263.000
42.61328 287.000
42.63323 286.000
42.65318 275.000
42.67312 261.000
42.69307 327.000
42.71302 298.000
42.73296 325.000
42.75291 336.000
42.77286 340.000
42.79281 388.000
42.81275 383.000
42.83270 386.000
42.85265 419.000
42.87259 440.000
42.89254 421.000
42.91249 444.000
42.93243 430.000
42.95238 456.000
42.97233 424.000
42.99227 416.000
43.01222 381.000
43.03217 337.000
43.05212 345.000
43.07206 330.000
43.09201 324.000
43.11196 267.000
43.13190 262.000
43.15185 313.000
43.17180 255.000
43.19174 219.000
43.21169 234.000
43.23164 230.000
43.25159 229.000
43.27153 229.000
43.29148 218.000
43.31143 213.000
43.33137 212.000
43.35132 218.000
43.37127 237.000
43.39121 216.000
43.41116 212.000
43.43111 223.000
43.45105 220.000
43.47100 228.000
43.49095 238.000
43.51090 204.000
43.53084 208.000
43.55079 207.000
43.57074 215.000
43.59068 218.000
43.61063 193.000
43.63058 230.000
43.65052 192.000
43.67047 233.000
43.69042 228.000
43.71037 222.000
43.73031 243.000
43.75026 188.000
43.77021 193.000
43.79015 194.000
43.81010 224.000
43.83005 201.000
43.84999 214.000
43.86994 222.000
43.88989 219.000
43.90984 240.000
43.92978 217.000
43.94973 201.000
43.96968 228.000
43.98962 202.000
44.00957 207.000
44.02952 240.000
44.04946 211.000
44.06941 215.000
44.08936 217.000
44.10930 208.000
44.12925 223.000
44.14920 204.000
44.16915 192.000
44.18909 229.000
44.20904 213.000
44.22899 192.000
44.24893 208.000
44.26888 217.000
44.28883 203.000
44.30877 223.000
44.32872 204.000
44.34867 205.000
44.36862 224.000
44.38856 210.000
44.40851 199.000
44.42846 242.000
44.44840 215.000
44.46835 227.000
44.48830 216.000
44.50824 214.000
44.52819 246.000
44.54814 222.000
44.56808 261.000
44.58803 215.000
44.60798 260.000
44.62793 242.000
44.64787 244.000
44.66782 240.000
44.68777 222.000
44.70771 258.000
44.72766 223.000
44.74761 236.000
44.76755 250.000
44.78750 239.000
44.80745 256.000
44.82740 245.000
44.84734 230.000
44.86729 220.000
44.88724 198.000
44.90718 200.000
44.92713 220.000
44.94708 216.000
44.96702 228.000
44.98697 199.000
45.00692 207.000
45.02686 173.000
45.04681 214.000
45.06676 187.000
45.08671 214.000
45.10665 196.000
45.12660 187.000
45.14655 210.000
45.16649 205.000
45.18644 222.000
45.20639 201.000
45.22633 198.000
45.24628 183.000
45.26623 209.000
45.28618 226.000
45.30612 187.000
45.32607 202.000
45.34602 164.000
45.36596 197.000
45.38591 185.000
45.40586 188.000
45.42580 198.000
45.44575 182.000
45.46570 193.000
45.48565 194.000
45.50559 187.000
45.52554 185.000
45.54549 175.000
45.56543 176.000
45.58538 173.000
45.60533 186.000
45.62527 203.000
45.64522 202.000
45.66517 202.000
45.68511 193.000
45.70506 181.000
45.72501 211.000
45.74496 197.000
45.76490 181.000
45.78485 190.000
45.80480 205.000
45.82474 215.000
45.84469 188.000
45.86464 198.000
45.88458 202.000
45.90453 193.000
45.92448 200.000
45.94443 186.000
45.96437 181.000
45.98432 179.000
46.00427 216.000
46.02421 194.000
46.04416 175.000
46.06411 184.000
46.08405 207.000
46.10400 183.000
46.12395 202.000
46.14389 215.000
46.16384 185.000
46.18379 248.000
46.20374 188.000
46.22368 196.000
46.24363 210.000
46.26358 192.000
46.28352 204.000
46.30347 194.000
46.32342 168.000
46.34336 197.000
46.36331 195.000
46.38326 185.000
46.40321 199.000
46.42315 214.000
46.44310 210.000
46.46305 197.000
46.48299 196.000
46.50294 193.000
46.52289 188.000
46.54283 168.000
46.56278 188.000
46.58273 192.000
46.60267 208.000
46.62262 183.000
46.64257 196.000
46.66252 174.000
46.68246 170.000
46.70241 216.000
46.72236 197.000
46.74230 213.000
46.76225 187.000
46.78220 181.000
46.80214 165.000
46.82209 183.000
46.84204 207.000
46.86199 194.000
46.88193 197.000
46.90188 187.000
46.92183 193.000
46.94177 165.000
46.96172 176.000
46.98167 190.000
47.00161 179.000
47.02156 206.000
47.04151 171.000
47.06146 195.000
47.08140 196.000
47.10135 189.000
47.12130 186.000
47.14124 193.000
47.16119 190.000
47.18114 187.000
47.20108 163.000
47.22103 216.000
47.24098 166.000
47.26092 175.000
47.28087 180.000
47.30082 183.000
47.32077 182.000
47.34071 190.000
47.36066 192.000
47.38061 182.000
47.40055 197.000
47.42050 164.000
47.44045 165.000
47.46039 195.000
47.48034 170.000
47.50029 175.000
47.52024 189.000
47.54018 167.000
47.56013 176.000
47.58008 169.000
47.60002 183.000
47.61997 190.000
47.63992 191.000
47.65986 182.000
47.67981 192.000
47.69976 182.000
47.71970 195.000
47.73965 174.000
47.75960 164.000
47.77955 204.000
47.79949 187.000
47.81944 189.000
47.83939 183.000
47.85933 160.000
47.87928 197.000
47.89923 166.000
47.91917 186.000
47.93912 173.000
47.95907 187.000
47.97902 164.000
47.99896 187.000
48.01891 169.000
48.03886 163.000
48.05880 174.000
48.07875 173.000
48.09870 196.000
48.11864 187.000
48.13859 167.000
48.15854 180.000
48.17848 211.000
48.19843 191.000
48.21838 202.000
48.23833 214.000
48.25827 195.000
48.27822 188.000
48.29817 211.000
48.31811 227.000
48.33806 197.000
48.35801 203.000
48.37795 168.000
48.39790 175.000
48.41785 192.000
48.43780 198.000
48.45774 203.000
48.47769 202.000
48.49764 193.000
48.51758 172.000
48.53753 201.000
48.55748 201.000
48.57742 200.000
48.59737 185.000
48.61732 184.000
48.63726 183.000
48.65721 191.000
48.67716 172.000
48.69711 194.000
48.71705 211.000
48.73700 168.000
48.75695 160.000
48.77689 174.000
48.79684 167.000
48.81679 173.000
48.83673 173.000
48.85668 184.000
48.87663 193.000
48.89658 191.000
48.91652 165.000
48.93647 200.000
48.95642 167.000
48.97636 170.000
48.99631 163.000
49.01626 168.000
49.03620 179.000
49.05615 192.000
49.07610 188.000
49.09605 171.000
49.11599 171.000
49.13594 181.000
49.15589 183.000
49.17583 163.000
49.19578 164.000
49.21573 160.000
49.23567 191.000
49.25562 159.000
49.27557 194.000
49.29551 171.000
49.31546 173.000
49.33541 164.000
49.35536 165.000
49.37530 211.000
49.39525 157.000
49.41520 172.000
49.43514 163.000
49.45509 157.000
49.47504 169.000
49.49498 163.000
49.51493 176.000
49.53488 175.000
49.55483 169.000
49.57477 191.000
49.59472 174.000
49.61467 166.000
49.63461 164.000
49.65456 188.000
49.67451 188.000
49.69445 179.000
49.71440 158.000
49.73435 178.000
49.75429 156.000
49.77424 175.000
49.79419 153.000
49.81414 161.000
49.83408 150.000
49.85403 196.000
49.87398 163.000
49.89392 184.000
49.91387 189.000
49.93382 167.000
49.95376 150.000
49.97371 188.000
49.99366 167.000
50.01361 177.000
50.03355 170.000
50.05350 179.000
50.07345 181.000
50.09339 160.000
50.11334 191.000
50.13329 179.000
50.15323 209.000
50.17318 180.000
50.19313 185.000
50.21307 180.000
50.23302 169.000
50.25297 170.000
50.27292 175.000
50.29286 197.000
50.31281 212.000
50.33276 165.000
50.35270 203.000
50.37265 181.000
50.39260 179.000
50.41254 202.000
50.43249 189.000
50.45244 187.000
50.47239 201.000
50.49233 185.000
50.51228 182.000
50.53223 189.000
50.55217 210.000
50.57212 208.000
50.59207 207.000
50.61201 220.000
50.63196 170.000
50.65191 185.000
50.67186 193.000
50.69180 186.000
50.71175 193.000
50.73170 181.000
50.75164 173.000
50.77159 179.000
50.79154 162.000
50.81148 184.000
50.83143 159.000
50.85138 193.000
50.87132 179.000
50.89127 196.000
50.91122 187.000
50.93117 136.000
50.95111 151.000
50.97106 146.000
50.99101 147.000
51.01095 161.000
51.03090 151.000
51.05085 181.000
51.07079 155.000
51.09074 151.000
51.11069 158.000
51.13064 155.000
51.15058 160.000
51.17053 147.000
51.19048 160.000
51.21042 147.000
51.23037 165.000
51.25032 162.000
51.27026 139.000
51.29021 156.000
51.31016 171.000
51.33010 163.000
51.35005 175.000
51.37000 172.000
51.38995 169.000
51.40989 175.000
51.42984 148.000
51.44979 153.000
51.46973 153.000
51.48968 144.000
51.50963 159.000
51.52957 157.000
51.54952 184.000
51.56947 135.000
51.58942 153.000
51.60936 167.000
51.62931 128.000
51.64926 127.000
51.66920 159.000
51.68915 166.000
51.70910 136.000
51.72904 172.000
51.74899 131.000
51.76894 148.000
51.78888 170.000
51.80883 145.000
51.82878 155.000
51.84873 164.000
51.86867 151.000
51.88862 174.000
51.90857 142.000
51.92851 179.000
51.94846 136.000
51.96841 169.000
51.98835 175.000
52.00830 160.000
52.02825 155.000
52.04820 160.000
52.06814 165.000
52.08809 156.000
52.10804 139.000
52.12798 153.000
52.14793 182.000
52.16788 184.000
52.18782 158.000
52.20777 177.000
52.22772 159.000
52.24767 161.000
52.26761 184.000
52.28756 174.000
52.30751 153.000
52.32745 189.000
52.34740 163.000
52.36735 194.000
52.38729 179.000
52.40724 172.000
52.42719 181.000
52.44713 177.000
52.46708 163.000
52.48703 188.000
52.50698 180.000
52.52692 170.000
52.54687 162.000
52.56682 186.000
52.58676 147.000
52.60671 165.000
52.62666 160.000
52.64660 181.000
52.66655 148.000
52.68650 167.000
52.70645 188.000
52.72639 188.000
52.74634 160.000
52.76629 158.000
52.78623 169.000
52.80618 181.000
52.82613 160.000
52.84607 159.000
52.86602 172.000
52.88597 147.000
52.90591 164.000
52.92586 162.000
52.94581 171.000
52.96576 192.000
52.98570 209.000
53.00565 172.000
53.02560 162.000
53.04554 158.000
53.06549 187.000
53.08544 178.000
53.10538 154.000
53.12533 177.000
53.14528 204.000
53.16523 209.000
53.18517 201.000
53.20512 192.000
53.22507 204.000
53.24501 227.000
53.26496 201.000
53.28491 253.000
53.30485 235.000
53.32480 240.000
53.34475 261.000
53.36469 236.000
53.38464 245.000
53.40459 240.000
53.42454 226.000
53.44448 224.000
53.46443 240.000
53.48438 208.000
53.50432 219.000
53.52427 233.000
53.54422 178.000
53.56416 174.000
53.58411 176.000
53.60406 183.000
53.62401 150.000
53.64395 192.000
53.66390 169.000
53.68385 189.000
53.70379 164.000
53.72374 183.000
53.74369 156.000
53.76363 169.000
53.78358 167.000
53.80353 146.000
53.82348 162.000
53.84342 158.000
53.86337 178.000
53.88332 154.000
53.90326 176.000
53.92321 149.000
53.94316 162.000
53.96310 180.000
53.98305 186.000
54.00300 149.000
54.02294 143.000
54.04289 151.000
54.06284 189.000
54.08279 162.000
54.10273 140.000
54.12268 155.000
54.14263 160.000
54.16257 185.000
54.18252 151.000
54.20247 166.000
54.22241 151.000
54.24236 157.000
54.26231 169.000
54.28226 159.000
54.30220 166.000
54.32215 141.000
54.34210 173.000
54.36204 159.000
54.38199 190.000
54.40194 183.000
54.42188 183.000
54.44183 184.000
54.46178 178.000
54.48172 147.000
54.50167 172.000
54.52162 161.000
54.54157 178.000
54.56151 199.000
54.58146 182.000
54.60141 171.000
54.62135 195.000
54.64130 168.000
54.66125 207.000
54.68119 172.000
54.70114 186.000
54.72109 179.000
54.74104 177.000
54.76098 165.000
54.78093 153.000
54.80088 196.000
54.82082 171.000
54.84077 195.000
54.86072 174.000
54.88066 176.000
54.90061 178.000
54.92056 174.000
54.94050 178.000
54.96045 201.000
54.98040 174.000
55.00035 177.000
55.02029 190.000
55.04024 170.000
55.06019 185.000
55.08013 187.000
55.10008 182.000
55.12003 177.000
55.13997 174.000
55.15992 181.000
55.17987 163.000
55.19982 173.000
55.21976 180.000
55.23971 163.000
55.25966 143.000
55.27960 183.000
55.29955 180.000
55.31950 157.000
55.33944 182.000
55.35939 184.000
55.37934 178.000
55.39929 168.000
55.41923 167.000
55.43918 144.000
55.45913 185.000
55.47907 171.000
55.49902 153.000
55.51897 162.000
55.53891 159.000
55.55886 176.000
55.57881 167.000
55.59875 138.000
55.61870 152.000
55.63865 168.000
55.65860 161.000
55.67854 151.000
55.69849 165.000
55.71844 154.000
55.73838 144.000
55.75833 139.000
55.77828 153.000
55.79822 129.000
55.81817 160.000
55.83812 147.000
55.85807 136.000
55.87801 167.000
55.89796 138.000
55.91791 160.000
55.93785 159.000
55.95780 164.000
55.97775 164.000
55.99769 132.000
56.01764 168.000
56.03759 151.000
56.05753 156.000
56.07748 172.000
56.09743 164.000
56.11738 176.000
56.13732 140.000
56.15727 157.000
56.17722 157.000
56.19716 148.000
56.21711 150.000
56.23706 168.000
56.25700 158.000
56.27695 150.000
56.29690 147.000
56.31685 142.000
56.33679 142.000
56.35674 176.000
56.37669 146.000
56.39663 167.000
56.41658 146.000
56.43653 167.000
56.45647 192.000
56.47642 169.000
56.49637 166.000
56.51631 171.000
56.53626 208.000
56.55621 167.000
56.57616 171.000
56.59610 173.000
56.61605 196.000
56.63600 205.000
56.65594 189.000
56.67589 201.000
56.69584 212.000
56.71578 197.000
56.73573 222.000
56.75568 250.000
56.77563 271.000
56.79557 320.000
56.81552 321.000
56.83547 347.000
56.85541 323.000
56.87536 434.000
56.89531 399.000
56.91525 407.000
56.93520 384.000
56.95515 412.000
56.97510 388.000
56.99504 369.000
57.01499 349.000
57.03494 323.000
57.05488 328.000
57.07483 301.000
57.09478 267.000
57.11472 277.000
57.13467 256.000
57.15462 232.000
57.17456 178.000
57.19451 202.000
57.21446 180.000
57.23441 192.000
57.25435 202.000
57.27430 202.000
57.29425 165.000
57.31419 169.000
57.33414 183.000
57.35409 173.000
57.37403 161.000
57.39398 181.000
57.41393 165.000
57.43388 162.000
57.45382 173.000
57.47377 161.000
57.49372 156.000
57.51366 161.000
57.53361 170.000
57.55356 163.000
57.57350 156.000
57.59345 184.000
57.61340 182.000
57.63334 178.000
57.65329 157.000
57.67324 183.000
57.69319 169.000
57.71313 158.000
57.73308 146.000
57.75303 158.000
57.77297 162.000
57.79292 140.000
57.81287 135.000
57.83281 170.000
57.85276 174.000
57.87271 175.000
57.89266 160.000
57.91260 179.000
57.93255 185.000
57.95250 175.000
57.97244 156.000
57.99239 189.000
58.01234 165.000
58.03228 179.000
58.05223 174.000
58.07218 155.000
58.09212 166.000
58.11207 198.000
58.13202 161.000
58.15197 153.000
58.17191 127.000
58.19186 166.000
58.21181 150.000
58.23175 181.000
58.25170 143.000
58.27165 153.000
58.29159 157.000
58.31154 168.000
58.33149 175.000
58.35144 160.000
58.37138 168.000
58.39133 175.000
58.41128 163.000
58.43122 143.000
58.45117 150.000
58.47112 177.000
58.49106 136.000
58.51101 146.000
58.53096 160.000
58.55090 159.000
58.57085 168.000
58.59080 163.000
58.61075 161.000
58.63069 157.000
58.65064 166.000
58.67059 137.000
58.69053 159.000
58.71048 161.000
58.73043 150.000
58.75037 169.000
58.77032 147.000
58.79027 158.000
58.81022 171.000
58.83016 150.000
58.85011 137.000
58.87006 158.000
58.89000 168.000
58.90995 170.000
58.92990 180.000
58.94984 148.000
58.96979 173.000
58.98974 156.000
59.00969 184.000
59.02963 151.000
59.04958 165.000
59.06953 174.000
59.08947 183.000
59.10942 181.000
59.12937 181.000
59.14931 174.000
59.16926 162.000
59.18921 172.000
59.20915 188.000
59.22910 197.000
59.24905 190.000
59.26900 173.000
59.28894 168.000
59.30889 176.000
59.32884 202.000
59.34878 180.000
59.36873 168.000
59.38868 194.000
59.40862 169.000
59.42857 183.000
59.44852 182.000
59.46847 233.000
59.48841 215.000
59.50836 226.000
59.52831 228.000
59.54825 216.000
59.56820 206.000
59.58815 200.000
59.60809 189.000
59.62804 234.000
59.64799 228.000
59.66793 221.000
59.68788 195.000
59.70783 187.000
59.72778 202.000
59.74772 192.000
59.76767 191.000
59.78762 189.000
59.80756 182.000
59.82751 193.000
59.84746 182.000
59.86740 162.000
59.88735 173.000
59.90730 170.000
59.92725 198.000
59.94719 194.000
59.96714 159.000
59.98709 185.000
60.00703 179.000
60.02698 168.000
60.04693 177.000
60.06687 167.000
60.08682 167.000
60.10677 173.000
60.12671 178.000
60.14666 165.000
60.16661 180.000
60.18656 147.000
60.20650 178.000
60.22645 184.000
60.24640 172.000
60.26634 180.000
60.28629 162.000
60.30624 186.000
60.32618 176.000
60.34613 164.000
60.36608 182.000
60.38603 157.000
60.40597 176.000
60.42592 199.000
60.44587 162.000
60.46581 186.000
60.48576 150.000
60.50571 174.000
60.52565 172.000
60.54560 174.000
60.56555 170.000
60.58550 186.000
60.60544 185.000
60.62539 185.000
60.64534 198.000
60.66528 209.000
60.68523 193.000
60.70518 195.000
60.72512 195.000
60.74507 214.000
60.76502 225.000
60.78496 214.000
60.80491 194.000
60.82486 222.000
60.84481 207.000
60.86475 203.000
60.88470 194.000
60.90465 211.000
60.92459 222.000
60.94454 252.000
60.96449 247.000
60.98443 231.000
61.00438 254.000
61.02433 230.000
61.04428 255.000
61.06422 248.000
61.08417 264.000
61.10412 263.000
61.12406 259.000
61.14401 262.000
61.16396 275.000
61.18390 246.000
61.20385 240.000
61.22380 221.000
61.24374 231.000
61.26369 247.000
61.28364 260.000
61.30359 241.000
61.32353 239.000
61.34348 214.000
61.36343 213.000
61.38337 191.000
61.40332 206.000
61.42327 178.000
61.44321 212.000
61.46316 207.000
61.48311 199.000
61.50306 209.000
61.52300 218.000
61.54295 202.000
61.56290 202.000
61.58284 194.000
61.60279 199.000
61.62274 175.000
61.64268 209.000
61.66263 200.000
61.68258 219.000
61.70252 205.000
61.72247 185.000
61.74242 197.000
61.76237 165.000
61.78231 203.000
61.80226 181.000
61.82221 194.000
61.84215 197.000
61.86210 197.000
61.88205 173.000
61.90199 200.000
61.92194 210.000
61.94189 204.000
61.96184 177.000
61.98178 152.000
62.00173 196.000
62.02168 200.000
62.04162 174.000
62.06157 175.000
62.08152 163.000
62.10146 179.000
62.12141 170.000
62.14136 192.000
62.16131 214.000
62.18125 188.000
62.20120 182.000
62.22115 198.000
62.24109 195.000
62.26104 217.000
62.28099 217.000
62.30093 208.000
62.32088 204.000
62.34083 246.000
62.36077 264.000
62.38072 272.000
62.40067 293.000
62.42062 335.000
62.44056 356.000
62.46051 406.000
62.48046 475.000
62.50040 496.000
62.52035 509.000
62.54030 525.000
62.56024 533.000
62.58019 476.000
62.60014 502.000
62.62009 462.000
62.64003 471.000
62.65998 417.000
62.67993 382.000
62.69987 411.000
62.71982 388.000
62.73977 332.000
62.75971 316.000
62.77966 308.000
62.79961 287.000
62.81955 220.000
62.83950 227.000
62.85945 220.000
62.87940 174.000
62.89934 192.000
62.91929 176.000
62.93924 178.000
62.95918 145.000
62.97913 159.000
62.99908 172.000
63.01902 161.000
63.03897 153.000
63.05892 167.000
63.07887 159.000
63.09881 144.000
63.11876 156.000
63.13871 153.000
63.15865 141.000
63.17860 148.000
63.19855 146.000
63.21849 158.000
63.23844 143.000
63.25839 133.000
63.27833 143.000
63.29828 138.000
63.31823 139.000
63.33818 156.000
63.35812 143.000
63.37807 148.000
63.39802 161.000
63.41796 168.000
63.43791 171.000
63.45786 169.000
63.47780 167.000
63.49775 178.000
63.51770 182.000
63.53765 171.000
63.55759 159.000
63.57754 172.000
63.59749 153.000
63.61743 143.000
63.63738 152.000
63.65733 144.000
63.67727 149.000
63.69722 142.000
63.71717 158.000
63.73712 167.000
63.75706 139.000
63.77701 152.000
63.79696 134.000
63.81690 159.000
63.83685 164.000
63.85680 153.000
63.87674 173.000
63.89669 139.000
63.91664 127.000
63.93658 123.000
63.95653 135.000
63.97648 162.000
63.99643 152.000
64.01637 116.000
64.03632 155.000
64.05627 131.000
64.07621 166.000
64.09616 151.000
64.11611 145.000
64.13605 166.000
64.15600 145.000
64.17595 148.000
64.19590 133.000
64.21584 161.000
64.23579 149.000
64.25574 139.000
64.27568 172.000
64.29563 152.000
64.31558 139.000
64.33552 147.000
64.35547 143.000
64.37542 142.000
64.39536 159.000
64.41531 142.000
64.43526 161.000
64.45521 165.000
64.47515 150.000
64.49510 152.000
64.51505 134.000
64.53499 145.000
64.55494 147.000
64.57489 162.000
64.59483 139.000
64.61478 159.000
64.63473 150.000
64.65468 135.000
64.67462 125.000
64.69457 155.000
64.71452 143.000
64.73446 152.000
64.75441 131.000
64.77436 147.000
64.79430 136.000
64.81425 142.000
64.83420 156.000
64.85414 159.000
64.87409 168.000
64.89404 163.000
64.91399 143.000
64.93393 154.000
64.95388 128.000
64.97383 125.000
64.99377 115.000
65.01372 154.000
65.03367 157.000
65.05361 127.000
65.07356 159.000
65.09351 159.000
65.11346 152.000
65.13340 151.000
65.15335 187.000
65.17330 157.000
65.19324 150.000
65.21319 180.000
65.23314 172.000
65.25308 177.000
65.27303 157.000
65.29298 174.000
65.31293 146.000
65.33287 178.000
65.35282 168.000
65.37277 185.000
65.39271 149.000
65.41266 167.000
65.43261 159.000
65.45255 166.000
65.47250 180.000
65.49245 173.000
65.51239 166.000
65.53234 180.000
65.55229 161.000
65.57224 193.000
65.59218 178.000
65.61213 160.000
65.63208 166.000
65.65202 168.000
65.67197 159.000
65.69192 172.000
65.71186 179.000
65.73181 160.000
65.75176 165.000
65.77171 194.000
65.79165 174.000
65.81160 179.000
65.83155 204.000
65.85149 182.000
65.87144 162.000
65.89139 185.000
65.91133 169.000
65.93128 205.000
65.95123 162.000
65.97117 175.000
65.99112 158.000
66.01107 201.000
66.03102 166.000
66.05096 174.000
66.07091 147.000
66.09086 171.000
66.11080 169.000
66.13075 166.000
66.15070 161.000
66.17064 162.000
66.19059 130.000
66.21054 159.000
66.23049 162.000
66.25043 151.000
66.27038 142.000
66.29033 157.000
66.31027 151.000
66.33022 145.000
66.35017 138.000
66.37011 152.000
66.39006 143.000
66.41001 136.000
66.42995 141.000
66.44990 160.000
66.46985 143.000
66.48980 120.000
66.50974 112.000
66.52969 151.000
66.54964 141.000
66.56958 132.000
66.58953 119.000
66.60948 158.000
66.62942 148.000
66.64937 143.000
66.66932 133.000
66.68927 139.000
66.70921 122.000
66.72916 162.000
66.74911 142.000
66.76905 133.000
66.78900 131.000
66.80895 154.000
66.82889 140.000
66.84884 136.000
66.86879 153.000
66.88874 124.000
66.90868 139.000
66.92863 113.000
66.94858 158.000
66.96852 147.000
66.98847 145.000
67.00842 146.000
67.02836 141.000
67.04831 152.000
67.06826 146.000
67.08820 162.000
67.10815 131.000
67.12810 153.000
67.14805 138.000
67.16799 132.000
67.18794 126.000
67.20789 159.000
67.22783 133.000
67.24778 129.000
67.26773 161.000
67.28767 144.000
67.30762 128.000
67.32757 125.000
67.34752 123.000
67.36746 135.000
67.38741 147.000
67.40736 136.000
67.42730 151.000
67.44725 132.000
67.46720 149.000
67.48714 140.000
67.50709 140.000
67.52704 164.000
67.54698 150.000
67.56693 151.000
67.58688 146.000
67.60683 148.000
67.62677 131.000
67.64672 139.000
67.66667 147.000
67.68661 161.000
67.70656 114.000
67.72651 138.000
67.74645 166.000
67.76640 147.000
67.78635 162.000
67.80630 150.000
67.82624 164.000
67.84619 157.000
67.86614 140.000
67.88608 131.000
67.90603 148.000
67.92598 158.000
67.94592 138.000
67.96587 148.000
67.98582 140.000
68.00576 126.000
68.02571 162.000
68.04566 150.000
68.06561 159.000
68.08555 138.000
68.10550 132.000
68.12545 131.000
68.14539 145.000
68.16534 139.000
68.18529 138.000
68.20523 158.000
68.22518 136.000
68.24513 152.000
68.26508 136.000
68.28502 128.000
68.30497 127.000
68.32492 137.000
68.34486 137.000
68.36481 141.000
68.38476 121.000
68.40470 147.000
68.42465 138.000
68.44460 156.000
68.46455 152.000
68.48449 129.000
68.50444 130.000
68.52439 145.000
68.54433 131.000
68.56428 157.000
68.58423 150.000
68.60417 139.000
68.62412 142.000
68.64407 111.000
68.66401 159.000
68.68396 137.000
68.70391 133.000
68.72386 137.000
68.74380 136.000
68.76375 137.000
68.78370 132.000
68.80364 142.000
68.82359 97.000
68.84354 135.000
68.86348 135.000
68.88343 139.000
68.90338 156.000
68.92333 144.000
68.94327 130.000
68.96322 144.000
68.98317 134.000
69.00311 164.000
69.02306 129.000
69.04301 137.000
69.06295 136.000
69.08290 132.000
69.10285 114.000
69.12279 149.000
69.14274 122.000
69.16269 143.000
69.18264 135.000
69.20258 136.000
69.22253 147.000
69.24248 132.000
69.26242 134.000
69.28237 132.000
69.30232 145.000
69.32226 144.000
69.34221 140.000
69.36216 119.000
69.38211 142.000
69.40205 119.000
69.42200 137.000
69.44195 129.000
69.46189 128.000
69.48184 141.000
69.50179 133.000
69.52173 136.000
69.54168 141.000
69.56163 143.000
69.58157 160.000
69.60152 139.000
69.62147 133.000
69.64142 144.000
69.66136 143.000
69.68131 117.000
69.70126 115.000
69.72120 134.000
69.74115 135.000
69.76110 116.000
69.78104 143.000
69.80099 128.000
69.82094 140.000
69.84089 137.000
69.86083 135.000
69.88078 115.000
69.90073 129.000
69.92067 149.000
69.94062 128.000
69.96057 125.000
69.98051 117.000
70.00046 133.000
70.02041 127.000
70.04035 128.000
70.06030 127.000
70.08025 123.000
70.10020 123.000
70.12014 133.000
70.14009 141.000
70.16004 123.000
70.17998 141.000
70.19993 134.000
70.21988 163.000
70.23982 122.000
70.25977 143.000
70.27972 137.000
70.29967 152.000
70.31961 132.000
70.33956 145.000
70.35951 127.000
70.37945 124.000
70.39940 140.000
70.41935 123.000
70.43929 112.000
70.45924 127.000
70.47919 149.000
70.49914 138.000
70.51908 157.000
70.53903 131.000
70.55898 137.000
70.57892 140.000
70.59887 146.000
70.61882 143.000
70.63876 139.000
70.65871 149.000
70.67866 115.000
70.69860 130.000
70.71855 142.000
70.73850 139.000
70.75845 148.000
70.77839 157.000
70.79834 134.000
70.81829 139.000
70.83823 166.000
70.85818 148.000
70.87813 153.000
70.89807 150.000
70.91802 157.000
70.93797 169.000
70.95792 152.000
70.97786 158.000
70.99781 175.000
71.01776 144.000
71.03770 147.000
71.05765 165.000
71.07760 182.000
71.09754 175.000
71.11749 160.000
71.13744 149.000
71.15738 180.000
71.17733 161.000
71.19728 148.000
71.21723 163.000
71.23717 181.000
71.25712 160.000
71.27707 164.000
71.29701 162.000
71.31696 154.000
71.33691 163.000
71.35685 159.000
71.37680 129.000
71.39675 132.000
71.41670 165.000
71.43664 152.000
71.45659 149.000
71.47654 131.000
71.49648 135.000
71.51643 147.000
71.53638 149.000
71.55632 134.000
71.57627 146.000
71.59622 144.000
71.61616 140.000
71.63611 129.000
71.65606 135.000
71.67601 147.000
71.69595 144.000
71.71590 137.000
71.73585 142.000
71.75579 127.000
71.77574 138.000
71.79569 136.000
71.81563 152.000
71.83558 136.000
71.85553 143.000
71.87548 135.000
71.89542 125.000
71.91537 143.000
71.93532 170.000
71.95526 165.000
71.97521 143.000
71.99516 141.000
72.01510 147.000
72.03505 169.000
72.05500 128.000
72.07495 134.000
72.09489 173.000
72.11484 156.000
72.13479 136.000
72.15473 143.000
72.17468 135.000
72.19463 149.000
72.21457 130.000
72.23452 146.000
72.25447 130.000
72.27441 157.000
72.29436 132.000
72.31431 142.000
72.33426 113.000
72.35420 181.000
72.37415 151.000
72.39410 124.000
72.41404 146.000
72.43399 155.000
72.45394 146.000
72.47388 149.000
72.49383 138.000
72.51378 140.000
72.53373 158.000
72.55367 106.000
72.57362 140.000
72.59357 128.000
72.61351 108.000
72.63346 118.000
72.65341 124.000
72.67335 126.000
72.69330 133.000
72.71325 116.000
72.73319 126.000
72.75314 141.000
72.77309 142.000
72.79304 125.000
72.81298 143.000
72.83293 150.000
72.85288 128.000
72.87282 130.000
72.89277 123.000
72.91272 112.000
72.93266 148.000
72.95261 142.000
72.97256 139.000
72.99251 117.000
73.01245 143.000
73.03240 127.000
73.05235 159.000
73.07229 143.000
73.09224 125.000
73.11219 151.000
73.13213 147.000
73.15208 122.000
73.17203 145.000
73.19197 140.000
73.21192 166.000
73.23187 130.000
73.25182 149.000
73.27176 115.000
73.29171 124.000
73.31166 121.000
73.33160 145.000
73.35155 124.000
73.37150 139.000
73.39144 137.000
73.41139 122.000
73.43134 142.000
73.45129 147.000
73.47123 125.000
73.49118 145.000
73.51113 151.000
73.53107 135.000
73.55102 143.000
73.57097 134.000
73.59091 120.000
73.61086 144.000
73.63081 167.000
73.65076 123.000
73.67070 134.000
73.69065 139.000
73.71060 138.000
73.73054 112.000
73.75049 147.000
73.77044 155.000
73.79038 128.000
73.81033 138.000
73.83028 140.000
73.85022 151.000
73.87017 161.000
73.89012 159.000
73.91007 153.000
73.93001 162.000
73.94996 157.000
73.96991 163.000
73.98985 136.000
74.00980 181.000
74.02975 173.000
74.04969 206.000
74.06964 217.000
74.08959 195.000
74.10954 212.000
74.12948 214.000
74.14943 208.000
74.16938 198.000
74.18932 190.000
74.20927 162.000
74.22922 180.000
74.24916 170.000
74.26911 189.000
74.28906 146.000
74.30900 201.000
74.32895 185.000
74.34890 161.000
74.36885 198.000
74.38879 156.000
74.40874 162.000
74.42869 146.000
74.44863 156.000
74.46858 151.000
74.48853 136.000
74.50847 153.000
74.52842 145.000
74.54837 162.000
74.56832 136.000
74.58826 123.000
74.60821 129.000
74.62816 141.000
74.64810 138.000
74.66805 127.000
74.68800 136.000
74.70794 149.000
74.72789 144.000
74.74784 137.000
74.76778 127.000
74.78773 138.000
74.80768 153.000
74.82763 144.000
74.84757 153.000
74.86752 139.000
74.88747 144.000
74.90741 147.000
74.92736 138.000
74.94731 139.000
74.96725 144.000
74.98720 135.000
75.00715 146.000
75.02710 147.000
75.04704 148.000
75.06699 164.000
75.08694 171.000
75.10688 183.000
75.12683 192.000
75.14678 156.000
75.16672 138.000
75.18667 157.000
75.20662 132.000
75.22657 162.000
75.24651 148.000
75.26646 159.000
75.28641 135.000
75.30635 146.000
75.32630 169.000
75.34625 142.000
75.36619 142.000
75.38614 142.000
75.40609 135.000
75.42603 133.000
75.44598 124.000
75.46593 126.000
75.48588 143.000
75.50582 138.000
75.52577 141.000
75.54572 133.000
75.56566 115.000
75.58561 141.000
75.60556 120.000
75.62550 116.000
75.64545 148.000
75.66540 145.000
75.68535 142.000
75.70529 127.000
75.72524 122.000
75.74519 117.000
75.76513 122.000
75.78508 115.000
75.80503 138.000
75.82497 147.000
75.84492 117.000
75.86487 106.000
75.88481 126.000
75.90476 115.000
75.92471 136.000
75.94466 142.000
75.96460 130.000
75.98455 142.000
76.00450 141.000
76.02444 111.000
76.04439 127.000
76.06434 125.000
76.08428 135.000
76.10423 118.000
76.12418 135.000
76.14413 138.000
76.16407 138.000
76.18402 155.000
76.20397 130.000
76.22391 134.000
76.24386 131.000
76.26381 143.000
76.28375 158.000
76.30370 111.000
76.32365 109.000
76.34359 162.000
76.36354 135.000
76.38349 114.000
76.40344 131.000
76.42338 132.000
76.44333 149.000
76.46328 109.000
76.48322 140.000
76.50317 143.000
76.52312 130.000
76.54306 132.000
76.56301 134.000
76.58296 128.000
76.60291 129.000
76.62285 139.000
76.64280 130.000
76.66275 127.000
76.68269 135.000
76.70264 127.000
76.72259 132.000
76.74253 140.000
76.76248 156.000
76.78243 158.000
76.80238 131.000
76.82232 128.000
76.84227 138.000
76.86222 134.000
76.88216 124.000
76.90211 139.000
76.92206 129.000
76.94200 159.000
76.96195 135.000
76.98190 134.000
77.00184 112.000
77.02179 145.000
77.04174 121.000
77.06169 129.000
77.08163 132.000
77.10158 142.000
77.12153 151.000
77.14147 134.000
77.16142 130.000
77.18137 147.000
77.20131 115.000
77.22126 123.000
77.24121 120.000
77.26116 130.000
77.28110 122.000
77.30105 129.000
77.32100 120.000
77.34094 136.000
77.36089 138.000
77.38084 108.000
77.40078 130.000
77.42073 120.000
77.44068 121.000
77.46062 147.000
77.48057 121.000
77.50052 127.000
77.52047 133.000
77.54041 122.000
77.56036 125.000
77.58031 127.000
77.60025 136.000
77.62020 125.000
77.64015 126.000
77.66009 125.000
77.68004 130.000
77.69999 141.000
77.71994 106.000
77.73988 122.000
77.75983 131.000
77.77978 135.000
77.79972 122.000
77.81967 133.000
77.83962 131.000
77.85956 118.000
77.87951 122.000
77.89946 130.000
77.91940 127.000
77.93935 128.000
77.95930 113.000
77.97925 122.000
77.99919 142.000
78.01914 110.000
78.03909 130.000
78.05903 117.000
78.07898 141.000
78.09893 122.000
78.11887 135.000
78.13882 121.000
78.15877 109.000
78.17872 115.000
78.19866 123.000
78.21861 141.000
78.23856 147.000
78.25850 113.000
78.27845 120.000
78.29840 117.000
78.31834 125.000
78.33829 144.000
78.35824 136.000
78.37819 125.000
78.39813 111.000
78.41808 130.000
78.43803 122.000
78.45797 129.000
78.47792 123.000
78.49787 128.000
78.51781 109.000
78.53776 112.000
78.55771 114.000
78.57765 117.000
78.59760 124.000
78.61755 123.000
78.63750 147.000
78.65744 149.000
78.67739 126.000
78.69734 122.000
78.71728 128.000
78.73723 138.000
78.75718 132.000
78.77712 117.000
78.79707 123.000
78.81702 130.000
78.83697 125.000
78.85691 134.000
78.87686 122.000
78.89681 135.000
78.91675 124.000
78.93670 134.000
78.95665 126.000
78.97659 150.000
78.99654 136.000
79.01649 141.000
79.03643 134.000
79.05638 140.000
79.07633 143.000
79.09628 127.000
79.11622 137.000
79.13617 149.000
79.15612 139.000
79.17606 155.000
79.19601 127.000
79.21596 136.000
79.23590 130.000
79.25585 138.000
79.27580 116.000
79.29575 134.000
79.31569 147.000
79.33564 151.000
79.35559 134.000
79.37553 119.000
79.39548 115.000
79.41543 140.000
79.43537 128.000
79.45532 116.000
79.47527 116.000
79.49521 124.000
79.51516 132.000
79.53511 145.000
79.55506 132.000
79.57500 138.000
79.59495 138.000
79.61490 121.000
79.63484 143.000
79.65479 122.000
79.67474 100.000
79.69468 114.000
79.71463 132.000
79.73458 97.000
79.75453 145.000
79.77447 140.000
79.79442 146.000
79.81437 100.000
79.83431 129.000
79.85426 128.000
79.87421 150.000
79.89415 128.000
79.91410 134.000
79.93405 131.000
79.95399 124.000
79.97394 105.000
79.99389 108.000
80.01384 122.000
80.03378 115.000
80.05373 119.000
80.07368 111.000
80.09362 135.000
80.11357 134.000
80.13352 114.000
80.15346 134.000
80.17341 100.000
80.19336 133.000
80.21331 127.000
80.23325 139.000
80.25320 117.000
80.27315 121.000
80.29309 124.000
80.31304 139.000
80.33299 116.000
80.35293 135.000
80.37288 113.000
80.39283 119.000
80.41278 127.000
80.43272 118.000
80.45267 128.000
80.47262 119.000
80.49256 130.000
80.51251 105.000
80.53246 127.000
80.55240 136.000
80.57235 141.000
80.59230 133.000
80.61224 114.000
80.63219 124.000
80.65214 128.000
80.67209 143.000
80.69203 131.000
80.71198 140.000
80.73193 136.000
80.75187 113.000
80.77182 142.000
80.79177 133.000
80.81171 136.000
80.83166 152.000
80.85161 116.000
80.87156 116.000
80.89150 123.000
80.91145 107.000
80.93140 118.000
80.95134 118.000
80.97129 120.000
80.99124 126.000
81.01118 129.000
81.03113 132.000
81.05108 120.000
81.07102 112.000
81.09097 111.000
81.11092 126.000
81.13087 119.000
81.15081 141.000
81.17076 137.000
81.19071 130.000
81.21065 137.000
81.23060 132.000
81.25055 103.000
81.27049 133.000
81.29044 115.000
81.31039 121.000
81.33034 135.000
81.35028 121.000
81.37023 124.000
81.39018 124.000
81.41012 131.000
81.43007 104.000
81.45002 108.000
81.46996 103.000
81.48991 109.000
81.50986 119.000
81.52980 114.000
81.54975 127.000
81.56970 130.000
81.58965 121.000
81.60959 132.000
81.62954 132.000
81.64949 140.000
81.66943 142.000
81.68938 108.000
81.70933 133.000
81.72927 132.000
81.74922 134.000
81.76917 130.000
81.78912 120.000
81.80906 123.000
81.82901 148.000
81.84896 138.000
81.86890 103.000
81.88885 139.000
81.90880 135.000
81.92874 135.000
81.94869 121.000
81.96864 113.000
81.98859 129.000
82.00853 156.000
82.02848 133.000
82.04843 132.000
82.06837 134.000
82.08832 142.000
82.10827 138.000
82.12821 125.000
82.14816 144.000
82.16811 136.000
82.18805 115.000
82.20800 122.000
82.22795 131.000
82.24790 146.000
82.26784 134.000
82.28779 121.000
82.30774 129.000
82.32768 135.000
82.34763 131.000
82.36758 125.000
82.38752 120.000
82.40747 121.000
82.42742 144.000
82.44737 151.000
82.46731 118.000
82.48726 137.000
82.50721 129.000
82.52715 116.000
82.54710 124.000
82.56705 126.000
82.58699 130.000
82.60694 136.000
82.62689 130.000
82.64683 120.000
82.66678 140.000
82.68673 121.000
82.70668 131.000
82.72662 145.000
82.74657 120.000
82.76652 126.000
82.78646 109.000
82.80641 142.000
82.82636 146.000
82.84630 150.000
82.86625 129.000
82.88620 131.000
82.90615 116.000
82.92609 131.000
82.94604 101.000
82.96599 120.000
82.98593 129.000
83.00588 138.000
83.02583 120.000
83.04577 123.000
83.06572 149.000
83.08567 138.000
83.10561 124.000
83.12556 143.000
83.14551 141.000
83.16546 140.000
83.18540 141.000
83.20535 135.000
83.22530 132.000
83.24524 122.000
83.26519 122.000
83.28514 133.000
83.30508 129.000
83.32503 135.000
83.34498 132.000
83.36493 120.000
83.38487 133.000
83.40482 134.000
83.42477 134.000
83.44471 135.000
83.46466 124.000
83.48461 120.000
83.50455 122.000
83.52450 130.000
83.54445 121.000
83.56440 121.000
83.58434 124.000
83.60429 155.000
83.62424 117.000
83.64418 141.000
83.66413 130.000
83.68408 129.000
83.70402 156.000
83.72397 129.000
83.74392 140.000
83.76386 139.000
83.78381 132.000
83.80376 135.000
83.82371 127.000
83.84365 157.000
83.86360 122.000
83.88355 141.000
83.90349 126.000
83.92344 126.000
83.94339 125.000
83.96333 117.000
83.98328 145.000
84.00323 144.000
84.02318 129.000
84.04312 133.000
84.06307 141.000
84.08302 115.000
84.10296 127.000
84.12291 122.000
84.14286 134.000
84.16280 131.000
84.18275 130.000
84.20270 135.000
84.22264 147.000
84.24259 131.000
84.26254 128.000
84.28249 140.000
84.30243 152.000
84.32238 121.000
84.34233 147.000
84.36227 122.000
84.38222 109.000
84.40217 114.000
84.42211 144.000
84.44206 138.000
84.46201 133.000
84.48196 156.000
84.50190 124.000
84.52185 145.000
84.54180 133.000
84.56174 133.000
84.58169 142.000
84.60164 146.000
84.62158 113.000
84.64153 120.000
84.66148 140.000
84.68142 149.000
84.70137 116.000
84.72132 122.000
84.74127 137.000
84.76121 130.000
84.78116 148.000
84.80111 138.000
84.82105 135.000
84.84100 130.000
84.86095 109.000
84.88089 142.000
84.90084 140.000
84.92079 102.000
84.94074 132.000
84.96068 142.000
84.98063 105.000
85.00058 116.000
85.02052 119.000
85.04047 125.000
85.06042 122.000
85.08036 120.000
85.10031 123.000
85.12026 135.000
85.14021 113.000
85.16015 110.000
85.18010 117.000
85.20005 114.000
85.21999 115.000
85.23994 120.000
85.25989 128.000
85.27983 115.000
85.29978 136.000
85.31973 126.000
85.33967 134.000
85.35962 127.000
85.37957 106.000
85.39952 137.000
85.41946 113.000
85.43941 121.000
85.45936 137.000
85.47930 119.000
85.49925 126.000
85.51920 139.000
85.53914 138.000
85.55909 123.000
85.57904 133.000
85.59899 97.000
85.61893 130.000
85.63888 140.000
85.65883 113.000
85.67877 115.000
85.69872 129.000
85.71867 122.000
85.73861 118.000
85.75856 132.000
85.77851 122.000
85.79845 120.000
85.81840 113.000
85.83835 121.000
85.85830 112.000
85.87824 131.000
85.89819 119.000
85.91814 114.000
85.93808 109.000
85.95803 125.000
85.97798 112.000
85.99792 124.000
86.01787 74.000
86.03782 143.000
86.05777 123.000
86.07771 139.000
86.09766 127.000
86.11761 126.000
86.13755 123.000
86.15750 128.000
86.17745 94.000
86.19739 129.000
86.21734 117.000
86.23729 126.000
86.25723 113.000
86.27718 134.000
86.29713 117.000
86.31708 95.000
86.33702 117.000
86.35697 120.000
86.37692 125.000
86.39686 126.000
86.41681 134.000
86.43676 109.000
86.45670 136.000
86.47665 126.000
86.49660 114.000
86.51655 134.000
86.53649 132.000
86.55644 125.000
86.57639 142.000
86.59633 140.000
86.61628 102.000
86.63623 112.000
86.65617 138.000
86.67612 132.000
86.69607 149.000
86.71602 134.000
86.73596 134.000
86.75591 140.000
86.77586 126.000
86.79580 111.000
86.81575 127.000
86.83570 133.000
86.85564 149.000
86.87559 132.000
86.89554 146.000
86.91548 130.000
86.93543 121.000
86.95538 146.000
86.97533 161.000
86.99527 160.000
87.01522 157.000
87.03517 171.000
87.05511 152.000
87.07506 154.000
87.09501 157.000
87.11495 162.000
87.13490 114.000
87.15485 140.000
87.17480 156.000
87.19474 148.000
87.21469 134.000
87.23464 135.000
87.25458 148.000
87.27453 140.000
87.29448 137.000
87.31442 131.000
87.33437 137.000
87.35432 129.000
87.37426 143.000
87.39421 136.000
87.41416 136.000
87.43411 136.000
87.45405 131.000
87.47400 117.000
87.49395 119.000
87.51389 132.000
87.53384 121.000
87.55379 103.000
87.57373 130.000
87.59368 107.000
87.61363 117.000
87.63358 113.000
87.65352 134.000
87.67347 137.000
87.69342 131.000
87.71336 121.000
87.73331 118.000
87.75326 134.000
87.77320 91.000
87.79315 106.000
87.81310 116.000
87.83304 126.000
87.85299 122.000
87.87294 136.000
87.89289 129.000
87.91283 124.000
87.93278 128.000
87.95273 141.000
87.97267 128.000
87.99262 122.000
88.01257 145.000
88.03251 131.000
88.05246 112.000
88.07241 112.000
88.09236 129.000
88.11230 110.000
88.13225 126.000
88.15220 132.000
88.17214 131.000
88.19209 118.000
88.21204 118.000
88.23198 142.000
88.25193 137.000
88.27188 111.000
88.29183 119.000
88.31177 121.000
88.33172 119.000
88.35167 144.000
88.37161 122.000
88.39156 130.000
88.41151 121.000
88.43145 141.000
88.45140 124.000
88.47135 134.000
88.49129 128.000
88.51124 133.000
88.53119 108.000
88.55114 125.000
88.57108 118.000
88.59103 119.000
88.61098 112.000
88.63092 122.000
88.65087 126.000
88.67082 119.000
88.69076 144.000
88.71071 139.000
88.73066 106.000
88.75061 115.000
88.77055 115.000
88.79050 133.000
88.81045 102.000
88.83039 116.000
88.85034 127.000
88.87029 128.000
88.89023 135.000
88.91018 129.000
88.93013 135.000
88.95007 121.000
88.97002 124.000
88.98997 121.000
89.00992 127.000
89.02986 120.000
89.04981 130.000
89.06976 123.000
89.08970 117.000
89.10965 138.000
89.12960 102.000
89.14954 123.000
89.16949 127.000
89.18944 124.000
89.20939 126.000
89.22933 126.000
89.24928 127.000
89.26923 145.000
89.28917 107.000
89.30912 118.000
89.32907 120.000
89.34901 129.000
89.36896 127.000
89.38891 136.000
89.40885 130.000
89.42880 141.000
89.44875 128.000
89.46870 119.000
89.48864 103.000
89.50859 145.000
89.52854 127.000
89.54848 119.000
89.56843 148.000
89.58838 143.000
89.60832 147.000
89.62827 139.000
89.64822 154.000
89.66817 163.000
89.68811 150.000
89.70806 148.000
89.72801 136.000
89.74795 144.000
89.76790 163.000
89.78785 152.000
89.80779 166.000
89.82774 189.000
89.84769 183.000
89.86764 172.000
89.88758 212.000
89.90753 227.000
89.92748 225.000
89.94742 238.000
89.96737 217.000
89.98732 219.000
90.00726 204.000
