10.00000 162.000
10.01995 159.000
10.03989 116.000
10.05984 132.000
10.07979 145.000
10.09973 146.000
10.11968 146.000
10.13963 130.000
10.15958 117.000
10.17952 146.000
10.19947 143.000
10.21942 153.000
10.23936 112.000
10.25931 116.000
10.27926 138.000
10.29920 138.000
10.31915 116.000
10.33910 137.000
10.35905 133.000
10.37899 150.000
10.39894 109.000
10.41889 144.000
10.43883 139.000
10.45878 141.000
10.47873 137.000
10.49867 127.000
10.51862 125.000
10.53857 127.000
10.55851 132.000
10.57846 128.000
10.59841 132.000
10.61836 117.000
10.63830 125.000
10.65825 150.000
10.67820 149.000
10.69814 133.000
10.71809 171.000
10.73804 143.000
10.75798 143.000
10.77793 148.000
10.79788 150.000
10.81783 137.000
10.83777 144.000
10.85772 140.000
10.87767 150.000
10.89761 151.000
10.91756 154.000
10.93751 147.000
10.95745 158.000
10.97740 124.000
10.99735 122.000
11.01730 146.000
11.03724 146.000
11.05719 139.000
11.07714 150.000
11.09708 149.000
11.11703 137.000
11.13698 147.000
11.15692 152.000
11.17687 146.000
11.19682 143.000
11.21676 132.000
11.23671 133.000
11.25666 131.000
11.27661 136.000
11.29655 152.000
11.31650 132.000
11.33645 158.000
11.35639 142.000
11.37634 160.000
11.39629 150.000
11.41623 137.000
11.43618 146.000
11.45613 142.000
11.47608 140.000
11.49602 150.000
11.51597 145.000
11.53592 136.000
11.55586 145.000
11.57581 125.000
11.59576 138.000
11.61570 127.000
11.63565 142.000
11.65560 129.000
11.67554 154.000
11.69549 140.000
11.71544 138.000
11.73539 144.000
11.75533 145.000
11.77528 141.000
11.79523 149.000
11.81517 147.000
11.83512 128.000
11.85507 175.000
11.87501 140.000
11.89496 141.000
11.91491 139.000
11.93486 162.000
11.95480 132.000
11.97475 150.000
11.99470 148.000
12.01464 148.000
12.03459 125.000
12.05454 142.000
12.07448 141.000
12.09443 149.000
12.11438 165.000
12.13432 139.000
12.15427 124.000
12.17422 144.000
12.19417 135.000
12.21411 139.000
12.23406 134.000
12.25401 133.000
12.27395 166.000
12.29390 153.000
12.31385 158.000
12.33379 133.000
12.35374 136.000
12.37369 164.000
12.39364 158.000
12.41358 169.000
12.43353 153.000
12.45348 129.000
12.47342 164.000
12.49337 155.000
12.51332 140.000
12.53326 145.000
12.55321 137.000
12.57316 129.000
12.59311 147.000
12.61305 131.000
12.63300 173.000
12.65295 138.000
12.67289 141.000
12.69284 130.000
12.71279 122.000
12.73273 155.000
12.75268 137.000
12.77263 130.000
12.79257 164.000
12.81252 149.000
12.83247 144.000
12.85242 168.000
12.87236 155.000
12.89231 146.000
12.91226 140.000
12.93220 151.000
12.95215 175.000
12.97210 140.000
12.99204 171.000
13.01199 162.000
13.03194 135.000
13.05189 140.000
13.07183 151.000
13.09178 144.000
13.11173 144.000
13.13167 136.000
13.15162 156.000
13.17157 141.000
13.19151 144.000
13.21146 145.000
13.23141 121.000
13.25135 165.000
13.27130 126.000
13.29125 147.000
13.31120 163.000
13.33114 164.000
13.35109 151.000
13.37104 168.000
13.39098 156.000
13.41093 156.000
13.43088 144.000
13.45082 137.000
13.47077 157.000
13.49072 164.000
13.51067 132.000
13.53061 170.000
13.55056 155.000
13.57051 154.000
13.59045 135.000
13.61040 158.000
13.63035 140.000
13.65029 133.000
13.67024 150.000
13.69019 144.000
13.71013 128.000
13.73008 152.000
13.75003 143.000
13.76998 144.000
13.78992 139.000
13.80987 180.000
13.82982 131.000
13.84976 193.000
13.86971 153.000
13.88966 146.000
13.90960 149.000
13.92955 184.000
13.94950 144.000
13.96945 181.000
13.98939 191.000
14.00934 129.000
14.02929 156.000
14.04923 171.000
14.06918 165.000
14.08913 157.000
14.10907 165.000
14.12902 157.000
14.14897 171.000
14.16892 172.000
14.18886 171.000
14.20881 148.000
14.22876 151.000
14.24870 159.000
14.26865 161.000
14.28860 172.000
14.30854 149.000
14.32849 179.000
14.34844 173.000
14.36838 155.000
14.38833 164.000
14.40828 162.000
14.42823 168.000
14.44817 178.000
14.46812 153.000
14.48807 162.000
14.50801 173.000
14.52796 195.000
14.54791 187.000
14.56785 172.000
14.58780 172.000
14.60775 187.000
14.62770 201.000
14.64764 187.000
14.66759 204.000
14.68754 173.000
14.70748 211.000
14.72743 216.000
14.74738 207.000
14.76732 220.000
14.78727 230.000
14.80722 230.000
14.82716 257.000
14.84711 243.000
14.86706 269.000
14.88701 257.000
14.90695 231.000
14.92690 268.000
14.94685 264.000
14.96679 292.000
14.98674 285.000
15.00669 319.000
15.02663 301.000
15.04658 341.000
15.06653 331.000
15.08648 358.000
15.10642 357.000
15.12637 406.000
15.14632 392.000
15.16626 447.000
15.18621 468.000
15.20616 549.000
15.22610 549.000
15.24605 705.000
15.26600 789.000
15.28594 855.000
15.30589 1061.000
15.32584 1260.000
15.34579 1612.000
15.36573 2103.000
15.38568 2832.000
15.40563 3620.000
15.42557 5130.000
15.44552 6523.000
15.46547 8374.000
15.48541 10080.000
15.50536 11914.000
15.52531 13263.000
15.54526 13364.000
15.56520 12491.000
15.58515 10597.000
15.60510 8663.000
15.62504 6846.000
15.64499 5188.000
15.66494 3887.000
15.68488 2718.000
15.70483 1914.000
15.72478 1277.000
15.74472 950.000
15.76467 651.000
15.78462 577.000
15.80457 472.000
15.82451 461.000
15.84446 407.000
15.86441 383.000
15.88435 355.000
15.90430 344.000
15.92425 325.000
15.94419 313.000
15.96414 285.000
15.98409 268.000
16.00404 307.000
16.02398 306.000
16.04393 268.000
16.06388 282.000
16.08382 264.000
16.10377 235.000
16.12372 259.000
16.14366 199.000
16.16361 236.000
16.18356 226.000
16.20351 232.000
16.22345 199.000
16.24340 214.000
16.26335 198.000
16.28329 188.000
16.30324 188.000
16.32319 217.000
16.34313 212.000
16.36308 175.000
16.38303 188.000
16.40297 173.000
16.42292 200.000
16.44287 181.000
16.46282 188.000
16.48276 178.000
16.50271 182.000
16.52266 177.000
16.54260 170.000
16.56255 174.000
16.58250 172.000
16.60244 159.000
16.62239 163.000
16.64234 161.000
16.66229 171.000
16.68223 176.000
16.70218 182.000
16.72213 159.000
16.74207 153.000
16.76202 182.000
16.78197 155.000
16.80191 166.000
16.82186 157.000
16.84181 164.000
16.86175 150.000
16.88170 135.000
16.90165 127.000
16.92160 157.000
16.94154 163.000
16.96149 197.000
16.98144 149.000
17.00138 164.000
17.02133 131.000
17.04128 157.000
17.06122 155.000
17.08117 124.000
17.10112 165.000
17.12107 137.000
17.14101 157.000
17.16096 161.000
17.18091 168.000
17.20085 162.000
17.22080 162.000
17.24075 129.000
17.26069 142.000
17.28064 121.000
17.30059 139.000
17.32053 145.000
17.34048 128.000
17.36043 135.000
17.38038 142.000
17.40032 139.000
17.42027 123.000
17.44022 152.000
17.46016 135.000
17.48011 146.000
17.50006 141.000
17.52000 145.000
17.53995 156.000
17.55990 144.000
17.57985 140.000
17.59979 164.000
17.61974 141.000
17.63969 132.000
17.65963 165.000
17.67958 131.000
17.69953 146.000
17.71947 139.000
17.73942 161.000
17.75937 143.000
17.77932 155.000
17.79926 149.000
17.81921 132.000
17.83916 128.000
17.85910 152.000
17.87905 118.000
17.89900 153.000
17.91894 171.000
17.93889 143.000
17.95884 127.000
17.97878 141.000
17.99873 139.000
18.01868 137.000
18.03863 144.000
18.05857 135.000
18.07852 138.000
18.09847 154.000
18.11841 150.000
18.13836 155.000
18.15831 144.000
18.17825 149.000
18.19820 162.000
18.21815 168.000
18.23810 160.000
18.25804 151.000
18.27799 136.000
18.29794 162.000
18.31788 151.000
18.33783 147.000
18.35778 134.000
18.37772 151.000
18.39767 146.000
18.41762 126.000
18.43756 132.000
18.45751 159.000
18.47746 160.000
18.49741 143.000
18.51735 149.000
18.53730 144.000
18.55725 151.000
18.57719 126.000
18.59714 154.000
18.61709 150.000
18.63703 120.000
18.65698 141.000
18.67693 128.000
18.69688 135.000
18.71682 137.000
18.73677 124.000
18.75672 143.000
18.77666 148.000
18.79661 150.000
18.81656 139.000
18.83650 131.000
18.85645 138.000
18.87640 132.000
18.89634 144.000
18.91629 154.000
18.93624 152.000
18.95619 135.000
18.97613 132.000
18.99608 111.000
19.01603 131.000
19.03597 148.000
19.05592 137.000
19.07587 139.000
19.09581 149.000
19.11576 146.000
19.13571 160.000
19.15566 138.000
19.17560 145.000
19.19555 129.000
19.21550 144.000
19.23544 150.000
19.25539 142.000
19.27534 140.000
19.29528 128.000
19.31523 158.000
19.33518 127.000
19.35513 142.000
19.37507 147.000
19.39502 123.000
19.41497 132.000
19.43491 133.000
19.45486 138.000
19.47481 121.000
19.49475 131.000
19.51470 154.000
19.53465 143.000
19.55459 134.000
19.57454 138.000
19.59449 122.000
19.61444 128.000
19.63438 124.000
19.65433 138.000
19.67428 125.000
19.69422 134.000
19.71417 142.000
19.73412 148.000
19.75406 145.000
19.77401 154.000
19.79396 142.000
19.81391 128.000
19.83385 139.000
19.85380 154.000
19.87375 128.000
19.89369 115.000
19.91364 126.000
19.93359 139.000
19.95353 131.000
19.97348 120.000
19.99343 130.000
20.01337 117.000
20.03332 123.000
20.05327 131.000
20.07322 133.000
20.09316 114.000
20.11311 124.000
20.13306 139.000
20.15300 147.000
20.17295 142.000
20.19290 148.000
20.21284 142.000
20.23279 131.000
20.25274 142.000
20.27269 130.000
20.29263 138.000
20.31258 144.000
20.33253 141.000
20.35247 174.000
20.37242 144.000
20.39237 128.000
20.41231 145.000
20.43226 165.000
20.45221 137.000
20.47215 134.000
20.49210 156.000
20.51205 128.000
20.53200 144.000
20.55194 151.000
20.57189 148.000
20.59184 124.000
20.61178 135.000
20.63173 146.000
20.65168 127.000
20.67162 129.000
20.69157 129.000
20.71152 125.000
20.73147 131.000
20.75141 147.000
20.77136 146.000
20.79131 128.000
20.81125 147.000
20.83120 142.000
20.85115 146.000
20.87109 167.000
20.89104 184.000
20.91099 143.000
20.93094 175.000
20.95088 145.000
20.97083 146.000
20.99078 158.000
21.01072 138.000
21.03067 133.000
21.05062 128.000
21.07056 127.000
21.09051 136.000
21.11046 143.000
21.13040 138.000
21.15035 141.000
21.17030 156.000
21.19025 116.000
21.21019 149.000
21.23014 129.000
21.25009 110.000
21.27003 135.000
21.28998 146.000
21.30993 143.000
21.32987 155.000
21.34982 128.000
21.36977 139.000
21.38972 132.000
21.40966 124.000
21.42961 139.000
21.44956 125.000
21.46950 147.000
21.48945 154.000
21.50940 137.000
21.52934 148.000
21.54929 147.000
21.56924 138.000
21.58918 142.000
21.60913 136.000
21.62908 144.000
21.64903 126.000
21.66897 123.000
21.68892 126.000
21.70887 126.000
21.72881 145.000
21.74876 146.000
21.76871 140.000
21.78865 134.000
21.80860 142.000
21.82855 146.000
21.84850 114.000
21.86844 124.000
21.88839 142.000
21.90834 128.000
21.92828 129.000
21.94823 154.000
21.96818 122.000
21.98812 133.000
22.00807 137.000
22.02802 155.000
22.04796 150.000
22.06791 133.000
22.08786 126.000
22.10781 142.000
22.12775 135.000
22.14770 123.000
22.16765 147.000
22.18759 119.000
22.20754 140.000
22.22749 135.000
22.24743 136.000
22.26738 146.000
22.28733 128.000
22.30728 111.000
22.32722 138.000
22.34717 116.000
22.36712 138.000
22.38706 140.000
22.40701 136.000
22.42696 143.000
22.44690 149.000
22.46685 152.000
22.48680 145.000
22.50675 118.000
22.52669 127.000
22.54664 141.000
22.56659 129.000
22.58653 113.000
22.60648 137.000
22.62643 142.000
22.64637 128.000
22.66632 147.000
22.68627 140.000
22.70621 120.000
22.72616 120.000
22.74611 141.000
22.76606 125.000
22.78600 124.000
22.80595 141.000
22.82590 132.000
22.84584 132.000
22.86579 123.000
22.88574 150.000
22.90568 124.000
22.92563 148.000
22.94558 132.000
22.96553 144.000
22.98547 141.000
23.00542 128.000
23.02537 133.000
23.04531 130.000
23.06526 140.000
23.08521 138.000
23.10515 148.000
23.12510 129.000
23.14505 135.000
23.16499 152.000
23.18494 143.000
23.20489 138.000
23.22484 136.000
23.24478 136.000
23.26473 124.000
23.28468 131.000
23.30462 137.000
23.32457 135.000
23.34452 147.000
23.36446 142.000
23.38441 119.000
23.40436 131.000
23.42431 129.000
23.44425 156.000
23.46420 168.000
23.48415 143.000
23.50409 165.000
23.52404 145.000
23.54399 144.000
23.56393 128.000
23.58388 122.000
23.60383 121.000
23.62377 165.000
23.64372 147.000
23.66367 145.000
23.68362 138.000
23.70356 137.000
23.72351 143.000
23.74346 152.000
23.76340 122.000
23.78335 165.000
23.80330 141.000
23.82324 145.000
23.84319 139.000
23.86314 140.000
23.88309 145.000
23.90303 117.000
23.92298 134.000
23.94293 132.000
23.96287 135.000
23.98282 150.000
24.00277 144.000
24.02271 161.000
24.04266 124.000
24.06261 125.000
24.08256 121.000
24.10250 135.000
24.12245 140.000
24.14240 146.000
24.16234 124.000
24.18229 134.000
24.20224 112.000
24.22218 122.000
24.24213 128.000
24.26208 144.000
24.28202 139.000
24.30197 130.000
24.32192 131.000
24.34187 143.000
24.36181 116.000
24.38176 129.000
24.40171 143.000
24.42165 136.000
24.44160 128.000
24.46155 155.000
24.48149 136.000
24.50144 126.000
24.52139 153.000
24.54134 132.000
24.56128 133.000
24.58123 149.000
24.60118 142.000
24.62112 116.000
24.64107 129.000
24.66102 149.000
24.68096 140.000
24.70091 134.000
24.72086 144.000
24.74080 142.000
24.76075 137.000
24.78070 126.000
24.80065 139.000
24.82059 142.000
24.84054 129.000
24.86049 162.000
24.88043 146.000
24.90038 145.000
24.92033 135.000
24.94027 156.000
24.96022 140.000
24.98017 150.000
25.00012 140.000
25.02006 144.000
25.04001 130.000
25.05996 135.000
25.07990 138.000
25.09985 158.000
25.11980 148.000
25.13974 130.000
25.15969 136.000
25.17964 144.000
25.19958 141.000
25.21953 141.000
25.23948 139.000
25.25943 144.000
25.27937 152.000
25.29932 125.000
25.31927 167.000
25.33921 149.000
25.35916 142.000
25.37911 135.000
25.39905 129.000
25.41900 155.000
25.43895 168.000
25.45890 149.000
25.47884 127.000
25.49879 164.000
25.51874 143.000
25.53868 160.000
25.55863 122.000
25.57858 142.000
25.59852 142.000
25.61847 158.000
25.63842 149.000
25.65837 145.000
25.67831 148.000
25.69826 143.000
25.71821 137.000
25.73815 168.000
25.75810 128.000
25.77805 145.000
25.79799 129.000
25.81794 152.000
25.83789 148.000
25.85783 170.000
25.87778 160.000
25.89773 146.000
25.91768 147.000
25.93762 140.000
25.95757 167.000
25.97752 143.000
25.99746 140.000
26.01741 146.000
26.03736 159.000
26.05730 161.000
26.07725 134.000
26.09720 145.000
26.11715 145.000
26.13709 150.000
26.15704 142.000
26.17699 157.000
26.19693 143.000
26.21688 133.000
26.23683 162.000
26.25677 136.000
26.27672 159.000
26.29667 166.000
26.31661 143.000
26.33656 141.000
26.35651 138.000
26.37646 131.000
26.39640 132.000
26.41635 144.000
26.43630 149.000
26.45624 139.000
26.47619 163.000
26.49614 180.000
26.51608 155.000
26.53603 156.000
26.55598 170.000
26.57593 133.000
26.59587 144.000
26.61582 146.000
26.63577 161.000
26.65571 148.000
26.67566 144.000
26.69561 166.000
26.71555 126.000
26.73550 158.000
26.75545 156.000
26.77539 156.000
26.79534 131.000
26.81529 132.000
26.83524 145.000
26.85518 143.000
26.87513 137.000
26.89508 136.000
26.91502 131.000
26.93497 124.000
26.95492 153.000
26.97486 142.000
26.99481 153.000
27.01476 147.000
27.03471 143.000
27.05465 163.000
27.07460 140.000
27.09455 147.000
27.11449 121.000
27.13444 128.000
27.15439 131.000
27.17433 140.000
27.19428 134.000
27.21423 145.000
27.23417 150.000
27.25412 135.000
27.27407 172.000
27.29402 149.000
27.31396 150.000
27.33391 154.000
27.35386 128.000
27.37380 131.000
27.39375 160.000
27.41370 133.000
27.43364 141.000
27.45359 138.000
27.47354 136.000
27.49349 146.000
27.51343 165.000
27.53338 127.000
27.55333 144.000
27.57327 117.000
27.59322 124.000
27.61317 131.000
27.63311 152.000
27.65306 125.000
27.67301 127.000
27.69296 142.000
27.71290 134.000
27.73285 145.000
27.75280 143.000
27.77274 132.000
27.79269 132.000
27.81264 142.000
27.83258 132.000
27.85253 128.000
27.87248 126.000
27.89242 153.000
27.91237 159.000
27.93232 120.000
27.95227 146.000
27.97221 158.000
27.99216 132.000
28.01211 124.000
28.03205 140.000
28.05200 150.000
28.07195 148.000
28.09189 161.000
28.11184 144.000
28.13179 133.000
28.15174 154.000
28.17168 148.000
28.19163 151.000
28.21158 140.000
28.23152 144.000
28.25147 133.000
28.27142 121.000
28.29136 144.000
28.31131 126.000
28.33126 159.000
28.35120 119.000
28.37115 125.000
28.39110 149.000
28.41105 148.000
28.43099 172.000
28.45094 147.000
28.47089 148.000
28.49083 144.000
28.51078 160.000
28.53073 140.000
28.55067 130.000
28.57062 129.000
28.59057 134.000
28.61052 137.000
28.63046 145.000
28.65041 144.000
28.67036 154.000
28.69030 122.000
28.71025 119.000
28.73020 145.000
28.75014 154.000
28.77009 145.000
28.79004 151.000
28.80998 156.000
28.82993 138.000
28.84988 132.000
28.86983 132.000
28.88977 158.000
28.90972 128.000
28.92967 138.000
28.94961 144.000
28.96956 125.000
28.98951 134.000
29.00945 159.000
29.02940 172.000
29.04935 130.000
29.06930 138.000
29.08924 142.000
29.10919 147.000
29.12914 133.000
29.14908 153.000
29.16903 144.000
29.18898 149.000
29.20892 159.000
29.22887 149.000
29.24882 144.000
29.26877 137.000
29.28871 146.000
29.30866 168.000
29.32861 145.000
29.34855 154.000
29.36850 130.000
29.38845 135.000
29.40839 153.000
29.42834 132.000
29.44829 132.000
29.46823 163.000
29.48818 145.000
29.50813 159.000
29.52808 157.000
29.54802 142.000
29.56797 151.000
29.58792 180.000
29.60786 146.000
29.62781 131.000
29.64776 138.000
29.66770 163.000
29.68765 157.000
29.70760 148.000
29.72755 152.000
29.74749 139.000
29.76744 158.000
29.78739 151.000
29.80733 144.000
29.82728 148.000
29.84723 149.000
29.86717 153.000
29.88712 171.000
29.90707 165.000
29.92701 160.000
29.94696 165.000
29.96691 151.000
29.98686 155.000
30.00680 177.000
30.02675 159.000
30.04670 175.000
30.06664 179.000
30.08659 180.000
30.10654 171.000
30.12648 145.000
30.14643 176.000
30.16638 184.000
30.18633 168.000
30.20627 167.000
30.22622 164.000
30.24617 174.000
30.26611 160.000
30.28606 171.000
30.30601 168.000
30.32595 163.000
30.34590 171.000
30.36585 158.000
30.38579 162.000
30.40574 154.000
30.42569 164.000
30.44564 145.000
30.46558 145.000
30.48553 153.000
30.50548 156.000
30.52542 154.000
30.54537 156.000
30.56532 163.000
30.58526 152.000
30.60521 141.000
30.62516 163.000
30.64511 137.000
30.66505 151.000
30.68500 164.000
30.70495 154.000
30.72489 151.000
30.74484 163.000
30.76479 147.000
30.78473 136.000
30.80468 149.000
30.82463 150.000
30.84458 165.000
30.86452 152.000
30.88447 152.000
30.90442 128.000
30.92436 133.000
30.94431 148.000
30.96426 160.000
30.98420 156.000
31.00415 164.000
31.02410 177.000
31.04404 152.000
31.06399 154.000
31.08394 147.000
31.10389 174.000
31.12383 166.000
31.14378 149.000
31.16373 165.000
31.18367 167.000
31.20362 186.000
31.22357 161.000
31.24351 197.000
31.26346 157.000
31.28341 210.000
31.30336 171.000
31.32330 204.000
31.34325 193.000
31.36320 199.000
31.38314 191.000
31.40309 237.000
31.42304 259.000
31.44298 281.000
31.46293 344.000
31.48288 411.000
31.50282 501.000
31.52277 608.000
31.54272 782.000
31.56267 919.000
31.58261 1071.000
31.60256 1118.000
31.62251 1154.000
31.64245 1140.000
31.66240 1109.000
31.68235 1058.000
31.70229 984.000
31.72224 861.000
31.74219 703.000
31.76214 664.000
31.78208 511.000
31.80203 426.000
31.82198 379.000
31.84192 307.000
31.86187 259.000
31.88182 261.000
31.90176 203.000
31.92171 230.000
31.94166 181.000
31.96160 161.000
31.98155 175.000
32.00150 157.000
32.02145 174.000
32.04139 161.000
32.06134 175.000
32.08129 152.000
32.10123 145.000
32.12118 149.000
32.14113 170.000
32.16107 139.000
32.18102 180.000
32.20097 173.000
32.22092 155.000
32.24086 180.000
32.26081 159.000
32.28076 146.000
32.30070 182.000
32.32065 157.000
32.34060 156.000
32.36054 159.000
32.38049 187.000
32.40044 164.000
32.42039 156.000
32.44033 127.000
32.46028 155.000
32.48023 154.000
32.50017 168.000
32.52012 146.000
32.54007 140.000
32.56001 171.000
32.57996 162.000
32.59991 143.000
32.61985 149.000
32.63980 137.000
32.65975 152.000
32.67970 147.000
32.69964 150.000
32.71959 133.000
32.73954 142.000
32.75948 135.000
32.77943 141.000
32.79938 163.000
32.81932 155.000
32.83927 136.000
32.85922 143.000
32.87917 134.000
32.89911 144.000
32.91906 153.000
32.93901 146.000
32.95895 148.000
32.97890 164.000
32.99885 161.000
33.01879 152.000
33.03874 155.000
33.05869 134.000
33.07863 142.000
33.09858 142.000
33.11853 146.000
33.13848 132.000
33.15842 176.000
33.17837 148.000
33.19832 144.000
33.21826 148.000
33.23821 139.000
33.25816 160.000
33.27810 140.000
33.29805 154.000
33.31800 129.000
33.33795 151.000
33.35789 147.000
33.37784 123.000
33.39779 150.000
33.41773 141.000
33.43768 133.000
33.45763 148.000
33.47757 144.000
33.49752 164.000
33.51747 134.000
33.53741 148.000
33.55736 141.000
33.57731 149.000
33.59726 142.000
33.61720 154.000
33.63715 151.000
33.65710 147.000
33.67704 168.000
33.69699 149.000
33.71694 127.000
33.73688 141.000
33.75683 134.000
33.77678 148.000
33.79673 139.000
33.81667 154.000
33.83662 140.000
33.85657 167.000
33.87651 168.000
33.89646 148.000
33.91641 155.000
33.93635 145.000
33.95630 133.000
33.97625 138.000
33.99620 149.000
34.01614 144.000
34.03609 155.000
34.05604 160.000
34.07598 161.000
34.09593 160.000
34.11588 157.000
34.13582 143.000
34.15577 162.000
34.17572 144.000
34.19566 143.000
34.21561 140.000
34.23556 149.000
34.25551 159.000
34.27545 154.000
34.29540 158.000
34.31535 143.000
34.33529 149.000
34.35524 168.000
34.37519 139.000
34.39513 144.000
34.41508 155.000
34.43503 150.000
34.45498 150.000
34.47492 167.000
34.49487 155.000
34.51482 155.000
34.53476 151.000
34.55471 160.000
34.57466 149.000
34.59460 153.000
34.61455 170.000
34.63450 157.000
34.65444 181.000
34.67439 158.000
34.69434 144.000
34.71429 182.000
34.73423 130.000
34.75418 153.000
34.77413 165.000
34.79407 151.000
34.81402 146.000
34.83397 160.000
34.85391 159.000
34.87386 132.000
34.89381 151.000
34.91376 148.000
34.93370 146.000
34.95365 158.000
34.97360 173.000
34.99354 141.000
35.01349 149.000
35.03344 186.000
35.05338 175.000
35.07333 156.000
35.09328 166.000
35.11322 189.000
35.13317 174.000
35.15312 202.000
35.17307 187.000
35.19301 242.000
35.21296 215.000
35.23291 229.000
35.25285 275.000
35.27280 278.000
35.29275 255.000
35.31269 305.000
35.33264 335.000
35.35259 340.000
35.37254 340.000
35.39248 348.000
35.41243 338.000
35.43238 313.000
35.45232 324.000
35.47227 324.000
35.49222 335.000
35.51216 289.000
35.53211 273.000
35.55206 334.000
35.57201 355.000
35.59195 368.000
35.61190 422.000
35.63185 466.000
35.65179 536.000
35.67174 655.000
35.69169 765.000
35.71163 980.000
35.73158 1190.000
35.75153 1222.000
35.77147 1232.000
35.79142 1150.000
35.81137 1098.000
35.83132 1035.000
35.85126 835.000
35.87121 804.000
35.89116 641.000
35.91110 520.000
35.93105 438.000
35.95100 348.000
35.97094 304.000
35.99089 251.000
36.01084 249.000
36.03079 230.000
36.05073 201.000
36.07068 220.000
36.09063 203.000
36.11057 185.000
36.13052 186.000
36.15047 177.000
36.17041 198.000
36.19036 193.000
36.21031 184.000
36.23025 192.000
36.25020 189.000
36.27015 190.000
36.29010 179.000
36.31004 174.000
36.32999 178.000
36.34994 191.000
36.36988 185.000
36.38983 166.000
36.40978 159.000
36.42972 164.000
36.44967 173.000
36.46962 170.000
36.48957 170.000
36.50951 143.000
36.52946 168.000
36.54941 203.000
36.56935 187.000
36.58930 190.000
36.60925 219.000
36.62919 219.000
36.64914 269.000
36.66909 249.000
36.68903 271.000
36.70898 221.000
36.72893 230.000
36.74888 238.000
36.76882 216.000
36.78877 211.000
36.80872 217.000
36.82866 191.000
36.84861 184.000
36.86856 196.000
36.88850 170.000
36.90845 164.000
36.92840 175.000
36.94835 188.000
36.96829 187.000
36.98824 192.000
37.00819 194.000
37.02813 194.000
37.04808 209.000
37.06803 169.000
37.08797 198.000
37.10792 169.000
37.12787 183.000
37.14781 167.000
37.16776 154.000
37.18771 188.000
37.20766 171.000
37.22760 167.000
37.24755 161.000
37.26750 154.000
37.28744 157.000
37.30739 188.000
37.32734 169.000
37.34728 159.000
37.36723 188.000
37.38718 177.000
37.40713 163.000
37.42707 170.000
37.44702 168.000
37.46697 188.000
37.48691 169.000
37.50686 163.000
37.52681 163.000
37.54675 174.000
37.56670 148.000
37.58665 155.000
37.60660 159.000
37.62654 155.000
37.64649 182.000
37.66644 164.000
37.68638 157.000
37.70633 147.000
37.72628 134.000
37.74622 164.000
37.76617 149.000
37.78612 163.000
37.80606 155.000
37.82601 158.000
37.84596 150.000
37.86591 168.000
37.88585 172.000
37.90580 167.000
37.92575 139.000
37.94569 160.000
37.96564 144.000
37.98559 146.000
38.00553 163.000
38.02548 163.000
38.04543 139.000
38.06538 161.000
38.08532 160.000
38.10527 154.000
38.12522 144.000
38.14516 185.000
38.16511 153.000
38.18506 163.000
38.20500 143.000
38.22495 151.000
38.24490 184.000
38.26484 145.000
38.28479 180.000
38.30474 159.000
38.32469 194.000
38.34463 193.000
38.36458 193.000
38.38453 222.000
38.40447 223.000
38.42442 227.000
38.44437 265.000
38.46431 264.000
38.48426 288.000
38.50421 305.000
38.52416 313.000
38.54410 281.000
38.56405 284.000
38.58400 269.000
38.60394 236.000
38.62389 214.000
38.64384 235.000
38.66378 223.000
38.68373 223.000
38.70368 192.000
38.72362 221.000
38.74357 198.000
38.76352 224.000
38.78347 230.000
38.80341 253.000
38.82336 215.000
38.84331 213.000
38.86325 241.000
38.88320 251.000
38.90315 247.000
38.92309 251.000
38.94304 253.000
38.96299 252.000
38.98294 230.000
39.00288 310.000
39.02283 324.000
39.04278 347.000
39.06272 367.000
39.08267 410.000
39.10262 454.000
39.12256 548.000
39.14251 624.000
39.16246 724.000
39.18241 909.000
39.20235 1137.000
39.22230 1357.000
39.24225 1692.000
39.26219 2040.000
39.28214 2325.000
39.30209 2114.000
39.32203 2047.000
39.34198 1817.000
39.36193 1719.000
39.38187 1574.000
39.40182 1358.000
39.42177 1155.000
39.44172 929.000
39.46166 752.000
39.48161 596.000
39.50156 540.000
39.52150 414.000
39.54145 336.000
39.56140 336.000
39.58134 307.000
39.60129 284.000
39.62124 257.000
39.64119 243.000
39.66113 224.000
39.68108 227.000
39.70103 213.000
39.72097 217.000
39.74092 216.000
39.76087 200.000
39.78081 170.000
39.80076 180.000
39.82071 181.000
39.84065 174.000
39.86060 200.000
39.88055 188.000
39.90050 181.000
39.92044 162.000
39.94039 156.000
39.96034 176.000
39.98028 164.000
40.00023 150.000
40.02018 171.000
40.04012 182.000
40.06007 148.000
40.08002 160.000
40.09997 175.000
40.11991 125.000
40.13986 166.000
40.15981 163.000
40.17975 174.000
40.19970 151.000
40.21965 185.000
40.23959 158.000
40.25954 160.000
40.27949 141.000
40.29943 141.000
40.31938 140.000
40.33933 169.000
40.35928 137.000
40.37922 172.000
40.39917 140.000
40.41912 144.000
40.43906 152.000
40.45901 145.000
40.47896 117.000
40.49890 122.000
40.51885 137.000
40.53880 132.000
40.55875 149.000
40.57869 142.000
40.59864 151.000
40.61859 125.000
40.63853 151.000
40.65848 153.000
40.67843 120.000
40.69837 158.000
40.71832 155.000
40.73827 144.000
40.75822 140.000
40.77816 158.000
40.79811 134.000
40.81806 166.000
40.83800 134.000
40.85795 134.000
40.87790 140.000
40.89784 147.000
40.91779 138.000
40.93774 150.000
40.95768 129.000
40.97763 132.000
40.99758 138.000
41.01753 164.000
41.03747 139.000
41.05742 138.000
41.07737 139.000
41.09731 145.000
41.11726 123.000
41.13721 143.000
41.15715 123.000
41.17710 130.000
41.19705 150.000
41.21700 150.000
41.23694 141.000
41.25689 162.000
41.27684 137.000
41.29678 143.000
41.31673 149.000
41.33668 133.000
41.35662 134.000
41.37657 153.000
41.39652 168.000
41.41646 178.000
41.43641 151.000
41.45636 134.000
41.47631 155.000
41.49625 144.000
41.51620 141.000
41.53615 109.000
41.55609 150.000
41.57604 157.000
41.59599 132.000
41.61593 140.000
41.63588 145.000
41.65583 152.000
41.67578 126.000
41.69572 142.000
41.71567 133.000
41.73562 139.000
41.75556 138.000
41.77551 128.000
41.79546 130.000
41.81540 138.000
41.83535 155.000
41.85530 134.000
41.87524 157.000
41.89519 117.000
41.91514 122.000
41.93509 137.000
41.95503 131.000
41.97498 160.000
41.99493 151.000
42.01487 131.000
42.03482 144.000
42.05477 139.000
42.07471 143.000
42.09466 145.000
42.11461 140.000
42.13456 150.000
42.15450 135.000
42.17445 129.000
42.19440 158.000
42.21434 140.000
42.23429 165.000
42.25424 131.000
42.27418 158.000
42.29413 151.000
42.31408 176.000
42.33403 136.000
42.35397 152.000
42.37392 146.000
42.39387 133.000
42.41381 162.000
42.43376 143.000
42.45371 129.000
42.47365 158.000
42.49360 143.000
42.51355 158.000
42.53349 149.000
42.55344 124.000
42.57339 159.000
42.59334 141.000
42.61328 139.000
42.63323 137.000
42.65318 165.000
42.67312 159.000
42.69307 162.000
42.71302 155.000
42.73296 178.000
42.75291 162.000
42.77286 179.000
42.79281 175.000
42.81275 182.000
42.83270 175.000
42.85265 169.000
42.87259 169.000
42.89254 183.000
42.91249 198.000
42.93243 164.000
42.95238 210.000
42.97233 208.000
42.99227 241.000
43.01222 227.000
43.03217 224.000
43.05212 250.000
43.07206 274.000
43.09201 256.000
43.11196 259.000
43.13190 270.000
43.15185 287.000
43.17180 289.000
43.19174 307.000
43.21169 338.000
43.23164 381.000
43.25159 464.000
43.27153 583.000
43.29148 626.000
43.31143 763.000
43.33137 828.000
43.35132 889.000
43.37127 840.000
43.39121 788.000
43.41116 759.000
43.43111 768.000
43.45105 652.000
43.47100 644.000
43.49095 539.000
43.51090 470.000
43.53084 410.000
43.55079 352.000
43.57074 317.000
43.59068 253.000
43.61063 236.000
43.63058 241.000
43.65052 211.000
43.67047 209.000
43.69042 183.000
43.71037 187.000
43.73031 171.000
43.75026 194.000
43.77021 152.000
43.79015 189.000
43.81010 162.000
43.83005 172.000
43.84999 155.000
43.86994 124.000
43.88989 137.000
43.90984 131.000
43.92978 131.000
43.94973 142.000
43.96968 135.000
43.98962 144.000
44.00957 157.000
44.02952 166.000
44.04946 161.000
44.06941 155.000
44.08936 148.000
44.10930 157.000
44.12925 145.000
44.14920 127.000
44.16915 135.000
44.18909 138.000
44.20904 154.000
44.22899 125.000
44.24893 140.000
44.26888 139.000
44.28883 133.000
44.30877 151.000
44.32872 141.000
44.34867 148.000
44.36862 134.000
44.38856 129.000
44.40851 123.000
44.42846 141.000
44.44840 151.000
44.46835 143.000
44.48830 135.000
44.50824 130.000
44.52819 143.000
44.54814 155.000
44.56808 159.000
44.58803 141.000
44.60798 132.000
44.62793 150.000
44.64787 134.000
44.66782 141.000
44.68777 144.000
44.70771 160.000
44.72766 136.000
44.74761 122.000
44.76755 137.000
44.78750 156.000
44.80745 137.000
44.82740 157.000
44.84734 153.000
44.86729 151.000
44.88724 132.000
44.90718 153.000
44.92713 146.000
44.94708 174.000
44.96702 146.000
44.98697 154.000
45.00692 165.000
45.02686 150.000
45.04681 158.000
45.06676 157.000
45.08671 153.000
45.10665 147.000
45.12660 145.000
45.14655 128.000
45.16649 154.000
45.18644 136.000
45.20639 152.000
45.22633 138.000
45.24628 149.000
45.26623 141.000
45.28618 129.000
45.30612 133.000
45.32607 148.000
45.34602 134.000
45.36596 151.000
45.38591 163.000
45.40586 137.000
45.42580 137.000
45.44575 132.000
45.46570 129.000
45.48565 130.000
45.50559 120.000
45.52554 143.000
45.54549 127.000
45.56543 149.000
45.58538 113.000
45.60533 153.000
45.62527 167.000
45.64522 131.000
45.66517 127.000
45.68511 150.000
45.70506 111.000
45.72501 159.000
45.74496 126.000
45.76490 147.000
45.78485 137.000
45.80480 137.000
45.82474 145.000
45.84469 142.000
45.86464 147.000
45.88458 137.000
45.90453 151.000
45.92448 124.000
45.94443 150.000
45.96437 122.000
45.98432 122.000
46.00427 142.000
46.02421 132.000
46.04416 137.000
46.06411 126.000
46.08405 112.000
46.10400 127.000
46.12395 142.000
46.14389 136.000
46.16384 147.000
46.18379 153.000
46.20374 124.000
46.22368 131.000
46.24363 122.000
46.26358 113.000
46.28352 143.000
46.30347 140.000
46.32342 129.000
46.34336 157.000
46.36331 116.000
46.38326 129.000
46.40321 129.000
46.42315 128.000
46.44310 144.000
46.46305 133.000
46.48299 124.000
46.50294 146.000
46.52289 125.000
46.54283 151.000
46.56278 125.000
46.58273 147.000
46.60267 129.000
46.62262 140.000
46.64257 118.000
46.66252 141.000
46.68246 131.000
46.70241 141.000
46.72236 135.000
46.74230 124.000
46.76225 152.000
46.78220 129.000
46.80214 136.000
46.82209 126.000
46.84204 133.000
46.86199 115.000
46.88193 153.000
46.90188 130.000
46.92183 150.000
46.94177 139.000
46.96172 125.000
46.98167 117.000
47.00161 138.000
47.02156 159.000
47.04151 160.000
47.06146 157.000
47.08140 133.000
47.10135 169.000
47.12130 122.000
47.14124 142.000
47.16119 117.000
47.18114 140.000
47.20108 155.000
47.22103 141.000
47.24098 136.000
47.26092 143.000
47.28087 150.000
47.30082 136.000
47.32077 134.000
47.34071 134.000
47.36066 149.000
47.38061 136.000
47.40055 153.000
47.42050 155.000
47.44045 164.000
47.46039 141.000
47.48034 153.000
47.50029 142.000
47.52024 159.000
47.54018 169.000
47.56013 126.000
47.58008 135.000
47.60002 144.000
47.61997 147.000
47.63992 131.000
47.65986 177.000
47.67981 176.000
47.69976 142.000
47.71970 157.000
47.73965 144.000
47.75960 160.000
47.77955 142.000
47.79949 128.000
47.81944 168.000
47.83939 142.000
47.85933 172.000
47.87928 168.000
47.89923 177.000
47.91917 156.000
47.93912 172.000
47.95907 154.000
47.97902 169.000
47.99896 152.000
48.01891 168.000
48.03886 202.000
48.05880 176.000
48.07875 192.000
48.09870 196.000
48.11864 190.000
48.13859 220.000
48.15854 230.000
48.17848 223.000
48.19843 237.000
48.21838 265.000
48.23833 292.000
48.25827 274.000
48.27822 294.000
48.29817 330.000
48.31811 361.000
48.33806 353.000
48.35801 402.000
48.37795 463.000
48.39790 529.000
48.41785 600.000
48.43780 673.000
48.45774 814.000
48.47769 940.000
48.49764 1140.000
48.51758 1316.000
48.53753 1578.000
48.55748 1693.000
48.57742 1836.000
48.59737 1795.000
48.61732 1779.000
48.63726 1686.000
48.65721 1580.000
48.67716 1525.000
48.69711 1423.000
48.71705 1349.000
48.73700 1095.000
48.75695 1023.000
48.77689 873.000
48.79684 753.000
48.81679 605.000
48.83673 551.000
48.85668 439.000
48.87663 417.000
48.89658 388.000
48.91652 313.000
48.93647 315.000
48.95642 273.000
48.97636 289.000
48.99631 220.000
49.01626 255.000
49.03620 241.000
49.05615 225.000
49.07610 205.000
49.09605 232.000
49.11599 179.000
49.13594 163.000
49.15589 183.000
49.17583 195.000
49.19578 195.000
49.21573 186.000
49.23567 202.000
49.25562 169.000
49.27557 154.000
49.29551 165.000
49.31546 182.000
49.33541 152.000
49.35536 141.000
49.37530 141.000
49.39525 158.000
49.41520 155.000
49.43514 167.000
49.45509 149.000
49.47504 156.000
49.49498 161.000
49.51493 136.000
49.53488 150.000
49.55483 139.000
49.57477 127.000
49.59472 170.000
49.61467 140.000
49.63461 151.000
49.65456 152.000
49.67451 137.000
49.69445 147.000
49.71440 159.000
49.73435 128.000
49.75429 114.000
49.77424 162.000
49.79419 148.000
49.81414 144.000
49.83408 137.000
49.85403 141.000
49.87398 130.000
49.89392 144.000
49.91387 126.000
49.93382 154.000
49.95376 144.000
49.97371 135.000
49.99366 126.000
50.01361 142.000
50.03355 140.000
50.05350 148.000
50.07345 107.000
50.09339 119.000
50.11334 128.000
50.13329 130.000
50.15323 140.000
50.17318 129.000
50.19313 148.000
50.21307 149.000
50.23302 124.000
50.25297 153.000
50.27292 151.000
50.29286 140.000
50.31281 132.000
50.33276 132.000
50.35270 139.000
50.37265 146.000
50.39260 136.000
50.41254 137.000
50.43249 139.000
50.45244 133.000
50.47239 140.000
50.49233 124.000
50.51228 147.000
50.53223 118.000
50.55217 126.000
50.57212 134.000
50.59207 120.000
50.61201 138.000
50.63196 126.000
50.65191 128.000
50.67186 131.000
50.69180 126.000
50.71175 140.000
50.73170 120.000
50.75164 145.000
50.77159 140.000
50.79154 158.000
50.81148 131.000
50.83143 143.000
50.85138 129.000
50.87132 121.000
50.89127 116.000
50.91122 126.000
50.93117 130.000
50.95111 133.000
50.97106 139.000
50.99101 122.000
51.01095 124.000
51.03090 115.000
51.05085 143.000
51.07079 122.000
51.09074 118.000
51.11069 143.000
51.13064 123.000
51.15058 126.000
51.17053 122.000
51.19048 127.000
51.21042 127.000
51.23037 121.000
51.25032 126.000
51.27026 131.000
51.29021 116.000
51.31016 130.000
51.33010 108.000
51.35005 123.000
51.37000 129.000
51.38995 109.000
51.40989 130.000
51.42984 125.000
51.44979 110.000
51.46973 119.000
51.48968 152.000
51.50963 112.000
51.52957 131.000
51.54952 118.000
51.56947 134.000
51.58942 131.000
51.60936 115.000
51.62931 125.000
51.64926 108.000
51.66920 123.000
51.68915 115.000
51.70910 141.000
51.72904 108.000
51.74899 132.000
51.76894 138.000
51.78888 113.000
51.80883 113.000
51.82878 116.000
51.84873 128.000
51.86867 111.000
51.88862 129.000
51.90857 138.000
51.92851 124.000
51.94846 126.000
51.96841 129.000
51.98835 136.000
52.00830 134.000
52.02825 116.000
52.04820 143.000
52.06814 115.000
52.08809 107.000
52.10804 100.000
52.12798 118.000
52.14793 126.000
52.16788 142.000
52.18782 130.000
52.20777 146.000
52.22772 127.000
52.24767 107.000
52.26761 136.000
52.28756 153.000
52.30751 135.000
52.32745 127.000
52.34740 136.000
52.36735 125.000
52.38729 123.000
52.40724 140.000
52.42719 118.000
52.44713 133.000
52.46708 127.000
52.48703 141.000
52.50698 125.000
52.52692 120.000
52.54687 128.000
52.56682 126.000
52.58676 126.000
52.60671 130.000
52.62666 125.000
52.64660 115.000
52.66655 126.000
52.68650 134.000
52.70645 129.000
52.72639 117.000
52.74634 119.000
52.76629 126.000
52.78623 128.000
52.80618 98.000
52.82613 144.000
52.84607 143.000
52.86602 128.000
52.88597 127.000
52.90591 127.000
52.92586 121.000
52.94581 137.000
52.96576 120.000
52.98570 139.000
53.00565 134.000
53.02560 117.000
53.04554 140.000
53.06549 128.000
53.08544 135.000
53.10538 150.000
53.12533 134.000
53.14528 126.000
53.16523 122.000
53.18517 125.000
53.20512 151.000
53.22507 143.000
53.24501 125.000
53.26496 123.000
53.28491 137.000
53.30485 130.000
53.32480 144.000
53.34475 124.000
53.36469 120.000
53.38464 134.000
53.40459 124.000
53.42454 122.000
53.44448 128.000
53.46443 143.000
53.48438 111.000
53.50432 130.000
53.52427 154.000
53.54422 147.000
53.56416 130.000
53.58411 140.000
53.60406 129.000
53.62401 113.000
53.64395 118.000
53.66390 138.000
53.68385 152.000
53.70379 128.000
53.72374 104.000
53.74369 119.000
53.76363 124.000
53.78358 131.000
53.80353 126.000
53.82348 140.000
53.84342 105.000
53.86337 131.000
53.88332 127.000
53.90326 127.000
53.92321 117.000
53.94316 122.000
53.96310 136.000
53.98305 114.000
54.00300 125.000
54.02294 119.000
54.04289 96.000
54.06284 119.000
54.08279 126.000
54.10273 144.000
54.12268 123.000
54.14263 130.000
54.16257 129.000
54.18252 110.000
54.20247 124.000
54.22241 144.000
54.24236 119.000
54.26231 107.000
54.28226 119.000
54.30220 125.000
54.32215 109.000
54.34210 138.000
54.36204 134.000
54.38199 121.000
54.40194 123.000
54.42188 115.000
54.44183 149.000
54.46178 137.000
54.48172 111.000
54.50167 128.000
54.52162 130.000
54.54157 136.000
54.56151 104.000
54.58146 118.000
54.60141 137.000
54.62135 138.000
54.64130 130.000
54.66125 124.000
54.68119 132.000
54.70114 129.000
54.72109 123.000
54.74104 102.000
54.76098 142.000
54.78093 134.000
54.80088 111.000
54.82082 101.000
54.84077 124.000
54.86072 128.000
54.88066 118.000
54.90061 134.000
54.92056 114.000
54.94050 120.000
54.96045 124.000
54.98040 117.000
55.00035 109.000
55.02029 124.000
55.04024 114.000
55.06019 122.000
55.08013 118.000
55.10008 105.000
55.12003 114.000
55.13997 144.000
55.15992 127.000
55.17987 133.000
55.19982 147.000
55.21976 139.000
55.23971 113.000
55.25966 130.000
55.27960 127.000
55.29955 133.000
55.31950 122.000
55.33944 113.000
55.35939 138.000
55.37934 117.000
55.39929 125.000
55.41923 128.000
55.43918 122.000
55.45913 116.000
55.47907 138.000
55.49902 113.000
55.51897 139.000
55.53891 115.000
55.55886 124.000
55.57881 129.000
55.59875 136.000
55.61870 112.000
55.63865 111.000
55.65860 117.000
55.67854 116.000
55.69849 108.000
55.71844 117.000
55.73838 106.000
55.75833 132.000
55.77828 109.000
55.79822 116.000
55.81817 128.000
55.83812 143.000
55.85807 139.000
55.87801 116.000
55.89796 104.000
55.91791 129.000
55.93785 109.000
55.95780 120.000
55.97775 118.000
55.99769 127.000
56.01764 132.000
56.03759 107.000
56.05753 117.000
56.07748 123.000
56.09743 106.000
56.11738 130.000
56.13732 138.000
56.15727 125.000
56.17722 111.000
56.19716 114.000
56.21711 129.000
56.23706 131.000
56.25700 119.000
56.27695 109.000
56.29690 121.000
56.31685 139.000
56.33679 131.000
56.35674 129.000
56.37669 102.000
56.39663 114.000
56.41658 129.000
56.43653 123.000
56.45647 109.000
56.47642 136.000
56.49637 98.000
56.51631 145.000
56.53626 109.000
56.55621 114.000
56.57616 100.000
56.59610 111.000
56.61605 131.000
56.63600 128.000
56.65594 127.000
56.67589 104.000
56.69584 135.000
56.71578 131.000
56.73573 118.000
56.75568 120.000
56.77563 115.000
56.79557 139.000
56.81552 150.000
56.83547 118.000
56.85541 125.000
56.87536 147.000
56.89531 135.000
56.91525 140.000
56.93520 144.000
56.95515 136.000
56.97510 118.000
56.99504 114.000
57.01499 146.000
57.03494 120.000
57.05488 118.000
57.07483 148.000
57.09478 127.000
57.11472 124.000
57.13467 149.000
57.15462 133.000
57.17456 144.000
57.19451 155.000
57.21446 146.000
57.23441 131.000
57.25435 133.000
57.27430 159.000
57.29425 150.000
57.31419 155.000
57.33414 151.000
57.35409 131.000
57.37403 140.000
57.39398 153.000
57.41393 116.000
57.43388 132.000
57.45382 159.000
57.47377 133.000
57.49372 131.000
57.51366 142.000
57.53361 143.000
57.55356 139.000
57.57350 134.000
57.59345 136.000
57.61340 143.000
57.63334 129.000
57.65329 134.000
57.67324 148.000
57.69319 122.000
57.71313 149.000
57.73308 144.000
57.75303 108.000
57.77297 129.000
57.79292 147.000
57.81287 134.000
57.83281 123.000
57.85276 150.000
57.87271 129.000
57.89266 143.000
57.91260 120.000
57.93255 100.000
57.95250 138.000
57.97244 127.000
57.99239 156.000
58.01234 154.000
58.03228 139.000
58.05223 124.000
58.07218 150.000
58.09212 116.000
58.11207 129.000
58.13202 155.000
58.15197 146.000
58.17191 135.000
58.19186 142.000
58.21181 121.000
58.23175 129.000
58.25170 125.000
58.27165 125.000
58.29159 106.000
58.31154 148.000
58.33149 124.000
58.35144 126.000
58.37138 114.000
58.39133 123.000
58.41128 124.000
58.43122 120.000
58.45117 118.000
58.47112 142.000
58.49106 125.000
58.51101 146.000
58.53096 128.000
58.55090 127.000
58.57085 118.000
58.59080 139.000
58.61075 124.000
58.63069 117.000
58.65064 132.000
58.67059 100.000
58.69053 106.000
58.71048 134.000
58.73043 133.000
58.75037 124.000
58.77032 128.000
58.79027 116.000
58.81022 134.000
58.83016 127.000
58.85011 128.000
58.87006 121.000
58.89000 126.000
58.90995 121.000
58.92990 124.000
58.94984 141.000
58.96979 136.000
58.98974 130.000
59.00969 130.000
59.02963 137.000
59.04958 133.000
59.06953 118.000
59.08947 147.000
59.10942 127.000
59.12937 108.000
59.14931 137.000
59.16926 133.000
59.18921 138.000
59.20915 134.000
59.22910 112.000
59.24905 135.000
59.26900 146.000
59.28894 101.000
59.30889 111.000
59.32884 109.000
59.34878 133.000
59.36873 133.000
59.38868 114.000
59.40862 126.000
59.42857 132.000
59.44852 112.000
59.46847 137.000
59.48841 121.000
59.50836 128.000
59.52831 111.000
59.54825 117.000
59.56820 111.000
59.58815 130.000
59.60809 138.000
59.62804 118.000
59.64799 135.000
59.66793 108.000
59.68788 122.000
59.70783 120.000
59.72778 140.000
59.74772 116.000
59.76767 127.000
59.78762 147.000
59.80756 144.000
59.82751 117.000
59.84746 125.000
59.86740 134.000
59.88735 130.000
59.90730 125.000
59.92725 116.000
59.94719 119.000
59.96714 121.000
59.98709 127.000
60.00703 137.000
60.02698 124.000
60.04693 123.000
60.06687 130.000
60.08682 135.000
60.10677 141.000
60.12671 122.000
60.14666 112.000
60.16661 137.000
60.18656 115.000
60.20650 110.000
60.22645 129.000
60.24640 125.000
60.26634 134.000
60.28629 129.000
60.30624 147.000
60.32618 121.000
60.34613 123.000
60.36608 134.000
60.38603 131.000
60.40597 143.000
60.42592 119.000
60.44587 159.000
60.46581 129.000
60.48576 103.000
60.50571 125.000
60.52565 116.000
60.54560 137.000
60.56555 134.000
60.58550 152.000
60.60544 138.000
60.62539 121.000
60.64534 121.000
60.66528 119.000
60.68523 140.000
60.70518 153.000
60.72512 137.000
60.74507 144.000
60.76502 129.000
60.78496 132.000
60.80491 139.000
60.82486 115.000
60.84481 158.000
60.86475 144.000
60.88470 106.000
60.90465 146.000
60.92459 131.000
60.94454 132.000
60.96449 148.000
60.98443 147.000
61.00438 144.000
61.02433 162.000
61.04428 137.000
61.06422 159.000
61.08417 144.000
61.10412 164.000
61.12406 143.000
61.14401 158.000
61.16396 156.000
61.18390 169.000
61.20385 158.000
61.22380 177.000
61.24374 177.000
61.26369 177.000
61.28364 160.000
61.30359 192.000
61.32353 192.000
61.34348 218.000
61.36343 210.000
61.38337 216.000
61.40332 245.000
61.42327 229.000
61.44321 260.000
61.46316 277.000
61.48311 302.000
61.50306 287.000
61.52300 323.000
61.54295 368.000
61.56290 409.000
61.58284 433.000
61.60279 504.000
61.62274 531.000
61.64268 604.000
61.66263 685.000
61.68258 677.000
61.70252 682.000
61.72247 710.000
61.74242 736.000
61.76237 728.000
61.78231 740.000
61.80226 707.000
61.82221 631.000
61.84215 617.000
61.86210 584.000
61.88205 575.000
61.90199 507.000
61.92194 469.000
61.94189 421.000
61.96184 427.000
61.98178 411.000
62.00173 347.000
62.02168 319.000
62.04162 297.000
62.06157 261.000
62.08152 259.000
62.10146 263.000
62.12141 207.000
62.14136 198.000
62.16131 202.000
62.18125 203.000
62.20120 188.000
62.22115 165.000
62.24109 155.000
62.26104 167.000
62.28099 155.000
62.30093 163.000
62.32088 168.000
62.34083 178.000
62.36077 160.000
62.38072 177.000
62.40067 150.000
62.42062 161.000
62.44056 146.000
62.46051 161.000
62.48046 162.000
62.50040 145.000
62.52035 159.000
62.54030 177.000
62.56024 172.000
62.58019 184.000
62.60014 147.000
62.62009 164.000
62.64003 170.000
62.65998 165.000
62.67993 175.000
62.69987 179.000
62.71982 206.000
62.73977 157.000
62.75971 179.000
62.77966 179.000
62.79961 151.000
62.81955 162.000
62.83950 171.000
62.85945 163.000
62.87940 154.000
62.89934 151.000
62.91929 140.000
62.93924 146.000
62.95918 140.000
62.97913 132.000
62.99908 155.000
63.01902 155.000
63.03897 153.000
63.05892 153.000
63.07887 154.000
63.09881 148.000
63.11876 152.000
63.13871 155.000
63.15865 157.000
63.17860 147.000
63.19855 167.000
63.21849 167.000
63.23844 152.000
63.25839 145.000
63.27833 161.000
63.29828 140.000
63.31823 152.000
63.33818 125.000
63.35812 147.000
63.37807 136.000
63.39802 168.000
63.41796 144.000
63.43791 135.000
63.45786 144.000
63.47780 119.000
63.49775 168.000
63.51770 138.000
63.53765 131.000
63.55759 158.000
63.57754 139.000
63.59749 128.000
63.61743 135.000
63.63738 139.000
63.65733 147.000
63.67727 133.000
63.69722 132.000
63.71717 137.000
63.73712 165.000
63.75706 138.000
63.77701 138.000
63.79696 151.000
63.81690 121.000
63.83685 141.000
63.85680 144.000
63.87674 123.000
63.89669 142.000
63.91664 158.000
63.93658 147.000
63.95653 153.000
63.97648 135.000
63.99643 137.000
64.01637 166.000
64.03632 167.000
64.05627 140.000
64.07621 153.000
64.09616 153.000
64.11611 175.000
64.13605 151.000
64.15600 170.000
64.17595 177.000
64.19590 176.000
64.21584 201.000
64.23579 179.000
64.25574 223.000
64.27568 238.000
64.29563 243.000
64.31558 285.000
64.33552 307.000
64.35547 408.000
64.37542 455.000
64.39536 542.000
64.41531 631.000
64.43526 628.000
64.45521 654.000
64.47515 666.000
64.49510 634.000
64.51505 567.000
64.53499 519.000
64.55494 472.000
64.57489 495.000
64.59483 463.000
64.61478 475.000
64.63473 507.000
64.65468 459.000
64.67462 399.000
64.69457 364.000
64.71452 315.000
64.73446 285.000
64.75441 251.000
64.77436 236.000
64.79430 208.000
64.81425 206.000
64.83420 188.000
64.85414 181.000
64.87409 170.000
64.89404 170.000
64.91399 175.000
64.93393 157.000
64.95388 167.000
64.97383 157.000
64.99377 150.000
65.01372 148.000
65.03367 160.000
65.05361 166.000
65.07356 142.000
65.09351 145.000
65.11346 153.000
65.13340 145.000
65.15335 139.000
65.17330 160.000
65.19324 162.000
65.21319 128.000
65.23314 159.000
65.25308 132.000
65.27303 163.000
65.29298 125.000
65.31293 137.000
65.33287 120.000
65.35282 138.000
65.37277 145.000
65.39271 137.000
65.41266 147.000
65.43261 145.000
65.45255 166.000
65.47250 120.000
65.49245 116.000
65.51239 128.000
65.53234 159.000
65.55229 124.000
65.57224 156.000
65.59218 150.000
65.61213 131.000
65.63208 139.000
65.65202 148.000
65.67197 123.000
65.69192 155.000
65.71186 134.000
65.73181 146.000
65.75176 165.000
65.77171 143.000
65.79165 133.000
65.81160 144.000
65.83155 136.000
65.85149 149.000
65.87144 153.000
65.89139 143.000
65.91133 129.000
65.93128 137.000
65.95123 143.000
65.97117 159.000
65.99112 155.000
66.01107 158.000
66.03102 143.000
66.05096 163.000
66.07091 184.000
66.09086 144.000
66.11080 189.000
66.13075 198.000
66.15070 196.000
66.17064 214.000
66.19059 216.000
66.21054 245.000
66.23049 223.000
66.25043 230.000
66.27038 238.000
66.29033 218.000
66.31027 224.000
66.33022 251.000
66.35017 233.000
66.37011 245.000
66.39006 248.000
66.41001 229.000
66.42995 235.000
66.44990 245.000
66.46985 232.000
66.48980 220.000
66.50974 239.000
66.52969 258.000
66.54964 248.000
66.56958 217.000
66.58953 224.000
66.60948 236.000
66.62942 251.000
66.64937 247.000
66.66932 251.000
66.68927 282.000
66.70921 307.000
66.72916 372.000
66.74911 383.000
66.76905 408.000
66.78900 473.000
66.80895 519.000
66.82889 473.000
66.84884 448.000
66.86879 460.000
66.88874 387.000
66.90868 367.000
66.92863 389.000
66.94858 358.000
66.96852 395.000
66.98847 359.000
67.00842 335.000
67.02836 370.000
67.04831 321.000
67.06826 260.000
67.08820 272.000
67.10815 261.000
67.12810 189.000
67.14805 203.000
67.16799 195.000
67.18794 178.000
67.20789 176.000
67.22783 167.000
67.24778 152.000
67.26773 151.000
67.28767 149.000
67.30762 158.000
67.32757 166.000
67.34752 160.000
67.36746 136.000
67.38741 151.000
67.40736 125.000
67.42730 143.000
67.44725 124.000
67.46720 153.000
67.48714 137.000
67.50709 132.000
67.52704 130.000
67.54698 148.000
67.56693 149.000
67.58688 144.000
67.60683 143.000
67.62677 141.000
67.64672 139.000
67.66667 156.000
67.68661 143.000
67.70656 128.000
67.72651 132.000
67.74645 172.000
67.76640 140.000
67.78635 156.000
67.80630 140.000
67.82624 156.000
67.84619 163.000
67.86614 117.000
67.88608 158.000
67.90603 146.000
67.92598 145.000
67.94592 146.000
67.96587 152.000
67.98582 119.000
68.00576 135.000
68.02571 125.000
68.04566 152.000
68.06561 140.000
68.08555 123.000
68.10550 119.000
68.12545 138.000
68.14539 107.000
68.16534 149.000
68.18529 135.000
68.20523 118.000
68.22518 122.000
68.24513 115.000
68.26508 131.000
68.28502 116.000
68.30497 123.000
68.32492 140.000
68.34486 117.000
68.36481 98.000
68.38476 136.000
68.40470 112.000
68.42465 121.000
68.44460 125.000
68.46455 106.000
68.48449 121.000
68.50444 118.000
68.52439 117.000
68.54433 120.000
68.56428 103.000
68.58423 114.000
68.60417 119.000
68.62412 104.000
68.64407 124.000
68.66401 117.000
68.68396 122.000
68.70391 118.000
68.72386 121.000
68.74380 120.000
68.76375 130.000
68.78370 116.000
68.80364 132.000
68.82359 134.000
68.84354 125.000
68.86348 137.000
68.88343 123.000
68.90338 127.000
68.92333 123.000
68.94327 114.000
68.96322 129.000
68.98317 143.000
69.00311 139.000
69.02306 115.000
69.04301 120.000
69.06295 136.000
69.08290 121.000
69.10285 121.000
69.12279 118.000
69.14274 118.000
69.16269 110.000
69.18264 135.000
69.20258 121.000
69.22253 122.000
69.24248 113.000
69.26242 131.000
69.28237 111.000
69.30232 141.000
69.32226 115.000
69.34221 111.000
69.36216 125.000
69.38211 120.000
69.40205 122.000
69.42200 133.000
69.44195 120.000
69.46189 118.000
69.48184 125.000
69.50179 125.000
69.52173 128.000
69.54168 123.000
69.56163 122.000
69.58157 130.000
69.60152 124.000
69.62147 125.000
69.64142 114.000
69.66136 124.000
69.68131 118.000
69.70126 132.000
69.72120 148.000
69.74115 108.000
69.76110 138.000
69.78104 108.000
69.80099 103.000
69.82094 152.000
69.84089 144.000
69.86083 125.000
69.88078 110.000
69.90073 119.000
69.92067 113.000
69.94062 117.000
69.96057 105.000
69.98051 112.000
70.00046 127.000
70.02041 122.000
70.04035 104.000
70.06030 127.000
70.08025 112.000
70.10020 118.000
70.12014 143.000
70.14009 131.000
70.16004 94.000
70.17998 109.000
70.19993 130.000
70.21988 122.000
70.23982 135.000
70.25977 111.000
70.27972 108.000
70.29967 131.000
70.31961 124.000
70.33956 110.000
70.35951 102.000
70.37945 110.000
70.39940 113.000
70.41935 115.000
70.43929 105.000
70.45924 146.000
70.47919 117.000
70.49914 123.000
70.51908 124.000
70.53903 116.000
70.55898 143.000
70.57892 131.000
70.59887 104.000
70.61882 123.000
70.63876 133.000
70.65871 140.000
70.67866 122.000
70.69860 120.000
70.71855 115.000
70.73850 114.000
70.75845 130.000
70.77839 118.000
70.79834 117.000
70.81829 109.000
70.83823 130.000
70.85818 130.000
70.87813 128.000
70.89807 112.000
70.91802 115.000
70.93797 108.000
70.95792 121.000
70.97786 99.000
70.99781 126.000
71.01776 108.000
71.03770 111.000
71.05765 115.000
71.07760 112.000
71.09754 109.000
71.11749 114.000
71.13744 128.000
71.15738 132.000
71.17733 117.000
71.19728 126.000
71.21723 115.000
71.23717 126.000
71.25712 117.000
71.27707 99.000
71.29701 110.000
71.31696 144.000
71.33691 127.000
71.35685 115.000
71.37680 143.000
71.39675 128.000
71.41670 120.000
71.43664 112.000
71.45659 111.000
71.47654 116.000
71.49648 127.000
71.51643 137.000
71.53638 119.000
71.55632 113.000
71.57627 117.000
71.59622 114.000
71.61616 142.000
71.63611 137.000
71.65606 97.000
71.67601 108.000
71.69595 113.000
71.71590 101.000
71.73585 126.000
71.75579 129.000
71.77574 129.000
71.79569 112.000
71.81563 127.000
71.83558 118.000
71.85553 116.000
71.87548 139.000
71.89542 101.000
71.91537 125.000
71.93532 117.000
71.95526 112.000
71.97521 130.000
71.99516 115.000
72.01510 115.000
72.03505 120.000
72.05500 121.000
72.07495 114.000
72.09489 103.000
72.11484 128.000
72.13479 122.000
72.15473 125.000
72.17468 140.000
72.19463 148.000
72.21457 125.000
72.23452 115.000
72.25447 122.000
72.27441 122.000
72.29436 137.000
72.31431 124.000
72.33426 118.000
72.35420 121.000
72.37415 107.000
72.39410 131.000
72.41404 116.000
72.43399 138.000
72.45394 129.000
72.47388 131.000
72.49383 127.000
72.51378 133.000
72.53373 115.000
72.55367 123.000
72.57362 118.000
72.59357 124.000
72.61351 116.000
72.63346 121.000
72.65341 115.000
72.67335 107.000
72.69330 111.000
72.71325 113.000
72.73319 126.000
72.75314 112.000
72.77309 123.000
72.79304 116.000
72.81298 82.000
72.83293 130.000
72.85288 110.000
72.87282 131.000
72.89277 104.000
72.91272 116.000
72.93266 130.000
72.95261 117.000
72.97256 117.000
72.99251 131.000
73.01245 121.000
73.03240 118.000
73.05235 115.000
73.07229 109.000
73.09224 133.000
73.11219 121.000
73.13213 99.000
73.15208 109.000
73.17203 132.000
73.19197 121.000
73.21192 113.000
73.23187 150.000
73.25182 120.000
73.27176 113.000
73.29171 111.000
73.31166 123.000
73.33160 146.000
73.35155 143.000
73.37150 143.000
73.39144 139.000
73.41139 146.000
73.43134 137.000
73.45129 148.000
73.47123 167.000
73.49118 172.000
73.51113 133.000
73.53107 154.000
73.55102 164.000
73.57097 200.000
73.59091 236.000
73.61086 221.000
73.63081 246.000
73.65076 272.000
73.67070 275.000
73.69065 246.000
73.71060 265.000
73.73054 248.000
73.75049 264.000
73.77044 246.000
73.79038 220.000
73.81033 230.000
73.83028 234.000
73.85022 247.000
73.87017 228.000
73.89012 202.000
73.91007 189.000
73.93001 221.000
73.94996 191.000
73.96991 182.000
73.98985 196.000
74.00980 165.000
74.02975 156.000
74.04969 158.000
74.06964 166.000
74.08959 159.000
74.10954 151.000
74.12948 128.000
74.14943 109.000
74.16938 120.000
74.18932 116.000
74.20927 133.000
74.22922 148.000
74.24916 131.000
74.26911 134.000
74.28906 121.000
74.30900 122.000
74.32895 116.000
74.34890 98.000
74.36885 127.000
74.38879 142.000
74.40874 142.000
74.42869 121.000
74.44863 133.000
74.46858 146.000
74.48853 127.000
74.50847 133.000
74.52842 134.000
74.54837 134.000
74.56832 115.000
74.58826 101.000
74.60821 119.000
74.62816 141.000
74.64810 113.000
74.66805 134.000
74.68800 137.000
74.70794 128.000
74.72789 136.000
74.74784 134.000
74.76778 139.000
74.78773 128.000
74.80768 118.000
74.82763 130.000
74.84757 128.000
74.86752 140.000
74.88747 138.000
74.90741 112.000
74.92736 157.000
74.94731 143.000
74.96725 124.000
74.98720 117.000
75.00715 134.000
75.02710 137.000
75.04704 131.000
75.06699 108.000
75.08694 137.000
75.10688 133.000
75.12683 133.000
75.14678 151.000
75.16672 115.000
75.18667 120.000
75.20662 119.000
75.22657 143.000
75.24651 111.000
75.26646 136.000
75.28641 139.000
75.30635 130.000
75.32630 136.000
75.34625 121.000
75.36619 134.000
75.38614 142.000
75.40609 148.000
75.42603 125.000
75.44598 119.000
75.46593 130.000
75.48588 128.000
75.50582 105.000
75.52577 130.000
75.54572 105.000
75.56566 117.000
75.58561 109.000
75.60556 129.000
75.62550 109.000
75.64545 127.000
75.66540 132.000
75.68535 108.000
75.70529 108.000
75.72524 129.000
75.74519 136.000
75.76513 126.000
75.78508 111.000
75.80503 117.000
75.82497 125.000
75.84492 114.000
75.86487 129.000
75.88481 140.000
75.90476 121.000
75.92471 132.000
75.94466 139.000
75.96460 174.000
75.98455 168.000
76.00450 173.000
76.02444 173.000
76.04439 211.000
76.06434 173.000
76.08428 183.000
76.10423 192.000
76.12418 150.000
76.14413 155.000
76.16407 167.000
76.18402 159.000
76.20397 165.000
76.22391 172.000
76.24386 169.000
76.26381 155.000
76.28375 175.000
76.30370 148.000
76.32365 147.000
76.34359 152.000
76.36354 135.000
76.38349 138.000
76.40344 135.000
76.42338 135.000
76.44333 140.000
76.46328 118.000
76.48322 144.000
76.50317 121.000
76.52312 128.000
76.54306 124.000
76.56301 111.000
76.58296 136.000
76.60291 119.000
76.62285 134.000
76.64280 127.000
76.66275 117.000
76.68269 111.000
76.70264 131.000
76.72259 125.000
76.74253 113.000
76.76248 133.000
76.78243 146.000
76.80238 133.000
76.82232 109.000
76.84227 121.000
76.86222 126.000
76.88216 135.000
76.90211 121.000
76.92206 118.000
76.94200 136.000
76.96195 134.000
76.98190 104.000
77.00184 130.000
77.02179 123.000
77.04174 114.000
77.06169 110.000
77.08163 121.000
77.10158 117.000
77.12153 114.000
77.14147 131.000
77.16142 143.000
77.18137 141.000
77.20131 129.000
77.22126 147.000
77.24121 118.000
77.26116 141.000
77.28110 138.000
77.30105 148.000
77.32100 124.000
77.34094 134.000
77.36089 131.000
77.38084 129.000
77.40078 155.000
77.42073 136.000
77.44068 139.000
77.46062 155.000
77.48057 175.000
77.50052 178.000
77.52047 162.000
77.54041 152.000
77.56036 153.000
77.58031 165.000
77.60025 170.000
77.62020 176.000
77.64015 179.000
77.66009 221.000
77.68004 226.000
77.69999 242.000
77.71994 256.000
77.73988 276.000
77.75983 263.000
77.77978 260.000
77.79972 269.000
77.81967 285.000
77.83962 262.000
77.85956 269.000
77.87951 267.000
77.89946 292.000
77.91940 270.000
77.93935 263.000
77.95930 274.000
77.97925 263.000
77.99919 250.000
78.01914 260.000
78.03909 243.000
78.05903 263.000
78.07898 241.000
78.09893 271.000
78.11887 252.000
78.13882 263.000
78.15877 248.000
78.17872 275.000
78.19866 281.000
78.21861 301.000
78.23856 304.000
78.25850 313.000
78.27845 307.000
78.29840 288.000
78.31834 323.000
78.33829 245.000
78.35824 249.000
78.37819 244.000
78.39813 214.000
78.41808 190.000
78.43803 224.000
78.45797 228.000
78.47792 212.000
78.49787 233.000
78.51781 206.000
78.53776 227.000
78.55771 214.000
78.57765 187.000
78.59760 192.000
78.61755 156.000
78.63750 158.000
78.65744 173.000
78.67739 152.000
78.69734 114.000
78.71728 124.000
78.73723 140.000
78.75718 123.000
78.77712 114.000
78.79707 136.000
78.81702 134.000
78.83697 128.000
78.85691 130.000
78.87686 121.000
78.89681 139.000
78.91675 146.000
78.93670 122.000
78.95665 129.000
78.97659 121.000
78.99654 151.000
79.01649 122.000
79.03643 126.000
79.05638 128.000
79.07633 135.000
79.09628 135.000
79.11622 122.000
79.13617 120.000
79.15612 118.000
79.17606 144.000
79.19601 121.000
79.21596 118.000
79.23590 123.000
79.25585 127.000
79.27580 128.000
79.29575 127.000
79.31569 112.000
79.33564 106.000
79.35559 124.000
79.37553 111.000
79.39548 132.000
79.41543 108.000
79.43537 121.000
79.45532 105.000
79.47527 128.000
79.49521 132.000
79.51516 132.000
79.53511 122.000
79.55506 126.000
79.57500 114.000
79.59495 126.000
79.61490 107.000
79.63484 108.000
79.65479 121.000
79.67474 101.000
79.69468 120.000
79.71463 103.000
79.73458 102.000
79.75453 131.000
79.77447 122.000
79.79442 146.000
79.81437 109.000
79.83431 126.000
79.85426 115.000
79.87421 107.000
79.89415 128.000
79.91410 116.000
79.93405 110.000
79.95399 123.000
79.97394 119.000
79.99389 115.000
80.01384 121.000
80.03378 130.000
80.05373 124.000
80.07368 124.000
80.09362 113.000
80.11357 127.000
80.13352 131.000
80.15346 112.000
80.17341 124.000
80.19336 128.000
80.21331 124.000
80.23325 112.000
80.25320 130.000
80.27315 143.000
80.29309 127.000
80.31304 115.000
80.33299 108.000
80.35293 114.000
80.37288 124.000
80.39283 143.000
80.41278 120.000
80.43272 116.000
80.45267 123.000
80.47262 136.000
80.49256 107.000
80.51251 98.000
80.53246 133.000
80.55240 119.000
80.57235 130.000
80.59230 121.000
80.61224 118.000
80.63219 123.000
80.65214 126.000
80.67209 131.000
80.69203 135.000
80.71198 116.000
80.73193 131.000
80.75187 110.000
80.77182 133.000
80.79177 110.000
80.81171 137.000
80.83166 136.000
80.85161 108.000
80.87156 149.000
80.89150 119.000
80.91145 123.000
80.93140 147.000
80.95134 150.000
80.97129 138.000
80.99124 131.000
81.01118 151.000
81.03113 163.000
81.05108 127.000
81.07102 148.000
81.09097 151.000
81.11092 137.000
81.13087 132.000
81.15081 130.000
81.17076 124.000
81.19071 127.000
81.21065 124.000
81.23060 110.000
81.25055 116.000
81.27049 120.000
81.29044 123.000
81.31039 114.000
81.33034 125.000
81.35028 124.000
81.37023 133.000
81.39018 119.000
81.41012 110.000
81.43007 133.000
81.45002 129.000
81.46996 100.000
81.48991 118.000
81.50986 107.000
81.52980 147.000
81.54975 94.000
81.56970 111.000
81.58965 118.000
81.60959 106.000
81.62954 124.000
81.64949 122.000
81.66943 119.000
81.68938 113.000
81.70933 104.000
81.72927 109.000
81.74922 119.000
81.76917 112.000
81.78912 142.000
81.80906 95.000
81.82901 134.000
81.84896 100.000
81.86890 107.000
81.88885 123.000
81.90880 134.000
81.92874 105.000
81.94869 107.000
81.96864 123.000
81.98859 120.000
82.00853 119.000
82.02848 121.000
82.04843 119.000
82.06837 110.000
82.08832 134.000
82.10827 103.000
82.12821 118.000
82.14816 122.000
82.16811 115.000
82.18805 129.000
82.20800 102.000
82.22795 104.000
82.24790 131.000
82.26784 126.000
82.28779 103.000
82.30774 122.000
82.32768 121.000
82.34763 111.000
82.36758 106.000
82.38752 120.000
82.40747 141.000
82.42742 115.000
82.44737 114.000
82.46731 118.000
82.48726 123.000
82.50721 110.000
82.52715 132.000
82.54710 116.000
82.56705 120.000
82.58699 117.000
82.60694 118.000
82.62689 131.000
82.64683 126.000
82.66678 112.000
82.68673 108.000
82.70668 131.000
82.72662 139.000
82.74657 101.000
82.76652 122.000
82.78646 120.000
82.80641 135.000
82.82636 113.000
82.84630 113.000
82.86625 118.000
82.88620 118.000
82.90615 128.000
82.92609 111.000
82.94604 120.000
82.96599 111.000
82.98593 101.000
83.00588 125.000
83.02583 96.000
83.04577 116.000
83.06572 118.000
83.08567 106.000
83.10561 131.000
83.12556 119.000
83.14551 110.000
83.16546 99.000
83.18540 118.000
83.20535 123.000
83.22530 118.000
83.24524 108.000
83.26519 113.000
83.28514 135.000
83.30508 126.000
83.32503 106.000
83.34498 133.000
83.36493 104.000
83.38487 99.000
83.40482 110.000
83.42477 121.000
83.44471 112.000
83.46466 128.000
83.48461 116.000
83.50455 120.000
83.52450 110.000
83.54445 114.000
83.56440 117.000
83.58434 134.000
83.60429 111.000
83.62424 115.000
83.64418 116.000
83.66413 123.000
83.68408 111.000
83.70402 127.000
83.72397 114.000
83.74392 109.000
83.76386 108.000
83.78381 128.000
83.80376 121.000
83.82371 136.000
83.84365 120.000
83.86360 146.000
83.88355 102.000
83.90349 103.000
83.92344 109.000
83.94339 108.000
83.96333 130.000
83.98328 118.000
84.00323 107.000
84.02318 108.000
84.04312 127.000
84.06307 118.000
84.08302 148.000
84.10296 100.000
84.12291 125.000
84.14286 116.000
84.16280 114.000
84.18275 124.000
84.20270 120.000
84.22264 119.000
84.24259 116.000
84.26254 113.000
84.28249 136.000
84.30243 133.000
84.32238 146.000
84.34233 117.000
84.36227 129.000
84.38222 135.000
84.40217 126.000
84.42211 161.000
84.44206 109.000
84.46201 141.000
84.48196 126.000
84.50190 146.000
84.52185 152.000
84.54180 139.000
84.56174 147.000
84.58169 183.000
84.60164 174.000
84.62158 178.000
84.64153 199.000
84.66148 211.000
84.68142 198.000
84.70137 228.000
84.72132 251.000
84.74127 255.000
84.76121 227.000
84.78116 274.000
84.80111 302.000
84.82105 282.000
84.84100 311.000
84.86095 263.000
84.88089 267.000
84.90084 274.000
84.92079 199.000
84.94074 216.000
84.96068 236.000
84.98063 242.000
85.00058 216.000
85.02052 206.000
85.04047 215.000
85.06042 229.000
85.08036 259.000
85.10031 219.000
85.12026 208.000
85.14021 195.000
85.16015 187.000
85.18010 157.000
85.20005 166.000
85.21999 148.000
85.23994 141.000
85.25989 126.000
85.27983 139.000
85.29978 152.000
85.31973 148.000
85.33967 152.000
85.35962 134.000
85.37957 144.000
85.39952 130.000
85.41946 115.000
85.43941 125.000
85.45936 132.000
85.47930 113.000
85.49925 121.000
85.51920 130.000
85.53914 118.000
85.55909 122.000
85.57904 119.000
85.59899 103.000
85.61893 117.000
85.63888 116.000
85.65883 134.000
85.67877 117.000
85.69872 139.000
85.71867 115.000
85.73861 136.000
85.75856 125.000
85.77851 103.000
85.79845 123.000
85.81840 120.000
85.83835 139.000
85.85830 116.000
85.87824 124.000
85.89819 108.000
85.91814 119.000
85.93808 112.000
85.95803 125.000
85.97798 114.000
85.99792 121.000
86.01787 124.000
86.03782 102.000
86.05777 116.000
86.07771 120.000
86.09766 129.000
86.11761 125.000
86.13755 137.000
86.15750 147.000
86.17745 124.000
86.19739 138.000
86.21734 135.000
86.23729 121.000
86.25723 143.000
86.27718 143.000
86.29713 142.000
86.31708 131.000
86.33702 137.000
86.35697 130.000
86.37692 115.000
86.39686 128.000
86.41681 114.000
86.43676 142.000
86.45670 140.000
86.47665 134.000
86.49660 114.000
86.51655 116.000
86.53649 117.000
86.55644 142.000
86.57639 133.000
86.59633 129.000
86.61628 121.000
86.63623 129.000
86.65617 120.000
86.67612 130.000
86.69607 123.000
86.71602 140.000
86.73596 122.000
86.75591 110.000
86.77586 117.000
86.79580 146.000
86.81575 132.000
86.83570 124.000
86.85564 138.000
86.87559 142.000
86.89554 121.000
86.91548 135.000
86.93543 137.000
86.95538 127.000
86.97533 123.000
86.99527 118.000
87.01522 118.000
87.03517 112.000
87.05511 130.000
87.07506 134.000
87.09501 146.000
87.11495 162.000
87.13490 139.000
87.15485 141.000
87.17480 128.000
87.19474 124.000
87.21469 94.000
87.23464 127.000
87.25458 131.000
87.27453 135.000
87.29448 113.000
87.31442 118.000
87.33437 151.000
87.35432 132.000
87.37426 126.000
87.39421 140.000
87.41416 114.000
87.43411 132.000
87.45405 121.000
87.47400 106.000
87.49395 126.000
87.51389 107.000
87.53384 103.000
87.55379 132.000
87.57373 113.000
87.59368 114.000
87.61363 117.000
87.63358 127.000
87.65352 122.000
87.67347 130.000
87.69342 116.000
87.71336 125.000
87.73331 127.000
87.75326 135.000
87.77320 113.000
87.79315 121.000
87.81310 124.000
87.83304 129.000
87.85299 111.000
87.87294 107.000
87.89289 111.000
87.91283 113.000
87.93278 126.000
87.95273 143.000
87.97267 118.000
87.99262 131.000
88.01257 94.000
88.03251 113.000
88.05246 102.000
88.07241 93.000
88.09236 103.000
88.11230 114.000
88.13225 122.000
88.15220 108.000
88.17214 134.000
88.19209 100.000
88.21204 119.000
88.23198 127.000
88.25193 126.000
88.27188 128.000
88.29183 120.000
88.31177 109.000
88.33172 111.000
88.35167 111.000
88.37161 114.000
88.39156 92.000
88.41151 112.000
88.43145 110.000
88.45140 109.000
88.47135 108.000
88.49129 107.000
88.51124 102.000
88.53119 134.000
88.55114 122.000
88.57108 90.000
88.59103 118.000
88.61098 126.000
88.63092 96.000
88.65087 123.000
88.67082 108.000
88.69076 102.000
88.71071 97.000
88.73066 115.000
88.75061 127.000
88.77055 107.000
88.79050 96.000
88.81045 101.000
88.83039 127.000
88.85034 91.000
88.87029 100.000
88.89023 124.000
88.91018 111.000
88.93013 122.000
88.95007 110.000
88.97002 95.000
88.98997 138.000
89.00992 113.000
89.02986 105.000
89.04981 111.000
89.06976 112.000
89.08970 105.000
89.10965 126.000
89.12960 120.000
89.14954 133.000
89.16949 111.000
89.18944 120.000
89.20939 110.000
89.22933 106.000
89.24928 109.000
89.26923 103.000
89.28917 93.000
89.30912 118.000
89.32907 97.000
89.34901 120.000
89.36896 114.000
89.38891 109.000
89.40885 143.000
89.42880 103.000
89.44875 114.000
89.46870 120.000
89.48864 114.000
89.50859 111.000
89.52854 107.000
89.54848 122.000
89.56843 113.000
89.58838 126.000
89.60832 115.000
89.62827 111.000
89.64822 120.000
89.66817 111.000
89.68811 99.000
89.70806 101.000
89.72801 113.000
89.74795 114.000
89.76790 94.000
89.78785 115.000
89.80779 108.000
89.82774 103.000
89.84769 110.000
89.86764 115.000
89.88758 125.000
89.90753 127.000
89.92748 115.000
89.94742 119.000
89.96737 114.000
89.98732 108.000
90.00726 125.000
