10.00000 251.000
10.01995 237.000
10.03989 241.000
10.05984 262.000
10.07979 230.000
10.09973 236.000
10.11968 232.000
10.13963 243.000
10.15958 276.000
10.17952 264.000
10.19947 248.000
10.21942 284.000
10.23936 242.000
10.25931 262.000
10.27926 270.000
10.29920 295.000
10.31915 285.000
10.33910 238.000
10.35905 263.000
10.37899 237.000
10.39894 253.000
10.41889 269.000
10.43883 264.000
10.45878 252.000
10.47873 283.000
10.49867 286.000
10.51862 263.000
10.53857 254.000
10.55851 254.000
10.57846 252.000
10.59841 269.000
10.61836 254.000
10.63830 279.000
10.65825 262.000
10.67820 245.000
10.69814 305.000
10.71809 277.000
10.73804 283.000
10.75798 283.000
10.77793 272.000
10.79788 272.000
10.81783 255.000
10.83777 270.000
10.85772 276.000
10.87767 256.000
10.89761 318.000
10.91756 267.000
10.93751 266.000
10.95745 260.000
10.97740 234.000
10.99735 264.000
11.01730 267.000
11.03724 252.000
11.05719 262.000
11.07714 276.000
11.09708 288.000
11.11703 262.000
11.13698 287.000
11.15692 268.000
11.17687 269.000
11.19682 287.000
11.21676 285.000
11.23671 238.000
11.25666 236.000
11.27661 255.000
11.29655 300.000
11.31650 275.000
11.33645 286.000
11.35639 269.000
11.37634 279.000
11.39629 244.000
11.41623 283.000
11.43618 299.000
11.45613 263.000
11.47608 274.000
11.49602 242.000
11.51597 285.000
11.53592 272.000
11.55586 280.000
11.57581 295.000
11.59576 282.000
11.61570 248.000
11.63565 277.000
11.65560 250.000
11.67554 275.000
11.69549 267.000
11.71544 275.000
11.73539 304.000
11.75533 271.000
11.77528 299.000
11.79523 275.000
11.81517 252.000
11.83512 262.000
11.85507 304.000
11.87501 267.000
11.89496 286.000
11.91491 269.000
11.93486 303.000
11.95480 283.000
11.97475 280.000
11.99470 286.000
12.01464 256.000
12.03459 311.000
12.05454 304.000
12.07448 255.000
12.09443 295.000
12.11438 270.000
12.13432 282.000
12.15427 284.000
12.17422 287.000
12.19417 260.000
12.21411 281.000
12.23406 286.000
12.25401 291.000
12.27395 253.000
12.29390 258.000
12.31385 291.000
12.33379 268.000
12.35374 286.000
12.37369 321.000
12.39364 288.000
12.41358 258.000
12.43353 279.000
12.45348 275.000
12.47342 287.000
12.49337 270.000
12.51332 274.000
12.53326 279.000
12.55321 279.000
12.57316 288.000
12.59311 273.000
12.61305 286.000
12.63300 296.000
12.65295 298.000
12.67289 312.000
12.69284 296.000
12.71279 294.000
12.73273 309.000
12.75268 288.000
12.77263 288.000
12.79257 261.000
12.81252 295.000
12.83247 309.000
12.85242 292.000
12.87236 292.000
12.89231 299.000
12.91226 279.000
12.93220 295.000
12.95215 277.000
12.97210 307.000
12.99204 273.000
13.01199 305.000
13.03194 279.000
13.05189 294.000
13.07183 311.000
13.09178 287.000
13.11173 265.000
13.13167 307.000
13.15162 289.000
13.17157 315.000
13.19151 328.000
13.21146 256.000
13.23141 306.000
13.25135 324.000
13.27130 316.000
13.29125 310.000
13.31120 298.000
13.33114 301.000
13.35109 278.000
13.37104 300.000
13.39098 281.000
13.41093 277.000
13.43088 299.000
13.45082 296.000
13.47077 318.000
13.49072 295.000
13.51067 292.000
13.53061 290.000
13.55056 284.000
13.57051 322.000
13.59045 316.000
13.61040 289.000
13.63035 295.000
13.65029 263.000
13.67024 276.000
13.69019 315.000
13.71013 305.000
13.73008 311.000
13.75003 322.000
13.76998 288.000
13.78992 313.000
13.80987 294.000
13.82982 292.000
13.84976 320.000
13.86971 294.000
13.88966 291.000
13.90960 281.000
13.92955 329.000
13.94950 319.000
13.96945 289.000
13.98939 306.000
14.00934 303.000
14.02929 318.000
14.04923 308.000
14.06918 319.000
14.08913 286.000
14.10907 287.000
14.12902 284.000
14.14897 312.000
14.16892 278.000
14.18886 307.000
14.20881 312.000
14.22876 275.000
14.24870 329.000
14.26865 301.000
14.28860 274.000
14.30854 289.000
14.32849 293.000
14.34844 270.000
14.36838 299.000
14.38833 302.000
14.40828 307.000
14.42823 285.000
14.44817 293.000
14.46812 290.000
14.48807 282.000
14.50801 306.000
14.52796 312.000
14.54791 275.000
14.56785 303.000
14.58780 326.000
14.60775 299.000
14.62770 294.000
14.64764 307.000
14.66759 330.000
14.68754 305.000
14.70748 296.000
14.72743 282.000
14.74738 306.000
14.76732 321.000
14.78727 327.000
14.80722 311.000
14.82716 294.000
14.84711 272.000
14.86706 302.000
14.88701 295.000
14.90695 307.000
14.92690 286.000
14.94685 298.000
14.96679 315.000
14.98674 294.000
15.00669 306.000
15.02663 301.000
15.04658 338.000
15.06653 342.000
15.08648 292.000
15.10642 303.000
15.12637 291.000
15.14632 280.000
15.16626 314.000
15.18621 303.000
15.20616 335.000
15.22610 338.000
15.24605 366.000
15.26600 296.000
15.28594 307.000
15.30589 327.000
15.32584 311.000
15.34579 319.000
15.36573 335.000
15.38568 308.000
15.40563 321.000
15.42557 299.000
15.44552 301.000
15.46547 305.000
15.48541 332.000
15.50536 345.000
15.52531 327.000
15.54526 355.000
15.56520 387.000
15.58515 340.000
15.60510 340.000
15.62504 336.000
15.64499 427.000
15.66494 412.000
15.68488 495.000
15.70483 493.000
15.72478 526.000
15.74472 581.000
15.76467 555.000
15.78462 529.000
15.80457 507.000
15.82451 442.000
15.84446 402.000
15.86441 326.000
15.88435 326.000
15.90430 326.000
15.92425 373.000
15.94419 349.000
15.96414 334.000
15.98409 314.000
16.00404 321.000
16.02398 321.000
16.04393 316.000
16.06388 308.000
16.08382 316.000
16.10377 329.000
16.12372 274.000
16.14366 278.000
16.16361 303.000
16.18356 337.000
16.20351 352.000
16.22345 310.000
16.24340 317.000
16.26335 327.000
16.28329 315.000
16.30324 318.000
16.32319 309.000
16.34313 337.000
16.36308 316.000
16.38303 305.000
16.40297 299.000
16.42292 288.000
16.44287 289.000
16.46282 285.000
16.48276 320.000
16.50271 286.000
16.52266 339.000
16.54260 326.000
16.56255 322.000
16.58250 316.000
16.60244 356.000
16.62239 321.000
16.64234 299.000
16.66229 368.000
16.68223 301.000
16.70218 324.000
16.72213 346.000
16.74207 326.000
16.76202 316.000
16.78197 339.000
16.80191 315.000
16.82186 304.000
16.84181 313.000
16.86175 293.000
16.88170 295.000
16.90165 328.000
16.92160 326.000
16.94154 321.000
16.96149 308.000
16.98144 303.000
17.00138 317.000
17.02133 332.000
17.04128 306.000
17.06122 331.000
17.08117 309.000
17.10112 316.000
17.12107 335.000
17.14101 298.000
17.16096 310.000
17.18091 308.000
17.20085 306.000
17.22080 307.000
17.24075 313.000
17.26069 300.000
17.28064 323.000
17.30059 307.000
17.32053 308.000
17.34048 275.000
17.36043 312.000
17.38038 303.000
17.40032 319.000
17.42027 296.000
17.44022 321.000
17.46016 301.000
17.48011 318.000
17.50006 303.000
17.52000 344.000
17.53995 299.000
17.55990 298.000
17.57985 331.000
17.59979 321.000
17.61974 300.000
17.63969 338.000
17.65963 312.000
17.67958 304.000
17.69953 311.000
17.71947 331.000
17.73942 321.000
17.75937 355.000
17.77932 304.000
17.79926 296.000
17.81921 324.000
17.83916 326.000
17.85910 337.000
17.87905 299.000
17.89900 324.000
17.91894 335.000
17.93889 319.000
17.95884 328.000
17.97878 314.000
17.99873 350.000
18.01868 305.000
18.03863 327.000
18.05857 313.000
18.07852 328.000
18.09847 295.000
18.11841 354.000
18.13836 307.000
18.15831 332.000
18.17825 351.000
18.19820 335.000
18.21815 381.000
18.23810 383.000
18.25804 415.000
18.27799 443.000
18.29794 497.000
18.31788 579.000
18.33783 592.000
18.35778 633.000
18.37772 563.000
18.39767 510.000
18.41762 444.000
18.43756 376.000
18.45751 352.000
18.47746 321.000
18.49741 341.000
18.51735 293.000
18.53730 323.000
18.55725 357.000
18.57719 357.000
18.59714 347.000
18.61709 326.000
18.63703 334.000
18.65698 319.000
18.67693 316.000
18.69688 321.000
18.71682 349.000
18.73677 321.000
18.75672 342.000
18.77666 327.000
18.79661 349.000
18.81656 353.000
18.83650 316.000
18.85645 336.000
18.87640 314.000
18.89634 321.000
18.91629 326.000
18.93624 328.000
18.95619 313.000
18.97613 316.000
18.99608 295.000
19.01603 314.000
19.03597 306.000
19.05592 336.000
19.07587 334.000
19.09581 350.000
19.11576 294.000
19.13571 323.000
19.15566 308.000
19.17560 348.000
19.19555 352.000
19.21550 316.000
19.23544 327.000
19.25539 346.000
19.27534 361.000
19.29528 358.000
19.31523 315.000
19.33518 327.000
19.35513 330.000
19.37507 332.000
19.39502 317.000
19.41497 359.000
19.43491 358.000
19.45486 325.000
19.47481 311.000
19.49475 363.000
19.51470 332.000
19.53465 334.000
19.55459 300.000
19.57454 337.000
19.59449 319.000
19.61444 318.000
19.63438 302.000
19.65433 330.000
19.67428 305.000
19.69422 316.000
19.71417 322.000
19.73412 313.000
19.75406 300.000
19.77401 340.000
19.79396 348.000
19.81391 363.000
19.83385 337.000
19.85380 314.000
19.87375 309.000
19.89369 346.000
19.91364 345.000
19.93359 307.000
19.95353 314.000
19.97348 328.000
19.99343 315.000
20.01337 284.000
20.03332 331.000
20.05327 338.000
20.07322 318.000
20.09316 343.000
20.11311 330.000
20.13306 341.000
20.15300 342.000
20.17295 346.000
20.19290 310.000
20.21284 334.000
20.23279 303.000
20.25274 311.000
20.27269 362.000
20.29263 354.000
20.31258 309.000
20.33253 312.000
20.35247 332.000
20.37242 307.000
20.39237 332.000
20.41231 343.000
20.43226 377.000
20.45221 317.000
20.47215 346.000
20.49210 344.000
20.51205 340.000
20.53200 345.000
20.55194 302.000
20.57189 355.000
20.59184 305.000
20.61178 306.000
20.63173 324.000
20.65168 305.000
20.67162 339.000
20.69157 348.000
20.71152 354.000
20.73147 329.000
20.75141 346.000
20.77136 406.000
20.79131 340.000
20.81125 330.000
20.83120 324.000
20.85115 349.000
20.87109 343.000
20.89104 379.000
20.91099 332.000
20.93094 346.000
20.95088 415.000
20.97083 461.000
20.99078 444.000
21.01072 503.000
21.03067 604.000
21.05062 515.000
21.07056 504.000
21.09051 490.000
21.11046 457.000
21.13040 458.000
21.15035 429.000
21.17030 369.000
21.19025 366.000
21.21019 362.000
21.23014 324.000
21.25009 311.000
21.27003 339.000
21.28998 330.000
21.30993 310.000
21.32987 326.000
21.34982 339.000
21.36977 354.000
21.38972 346.000
21.40966 341.000
21.42961 375.000
21.44956 300.000
21.46950 368.000
21.48945 326.000
21.50940 351.000
21.52934 347.000
21.54929 330.000
21.56924 334.000
21.58918 311.000
21.60913 364.000
21.62908 335.000
21.64903 342.000
21.66897 316.000
21.68892 342.000
21.70887 344.000
21.72881 345.000
21.74876 326.000
21.76871 348.000
21.78865 324.000
21.80860 364.000
21.82855 310.000
21.84850 321.000
21.86844 346.000
21.88839 341.000
21.90834 328.000
21.92828 376.000
21.94823 324.000
21.96818 369.000
21.98812 322.000
22.00807 336.000
22.02802 328.000
22.04796 351.000
22.06791 360.000
22.08786 330.000
22.10781 340.000
22.12775 321.000
22.14770 342.000
22.16765 321.000
22.18759 337.000
22.20754 312.000
22.22749 338.000
22.24743 334.000
22.26738 314.000
22.28733 333.000
22.30728 363.000
22.32722 353.000
22.34717 357.000
22.36712 318.000
22.38706 366.000
22.40701 347.000
22.42696 329.000
22.44690 353.000
22.46685 308.000
22.48680 330.000
22.50675 341.000
22.52669 306.000
22.54664 320.000
22.56659 356.000
22.58653 363.000
22.60648 325.000
22.62643 369.000
22.64637 362.000
22.66632 325.000
22.68627 337.000
22.70621 318.000
22.72616 349.000
22.74611 360.000
22.76606 350.000
22.78600 353.000
22.80595 358.000
22.82590 358.000
22.84584 358.000
22.86579 356.000
22.88574 342.000
22.90568 334.000
22.92563 367.000
22.94558 324.000
22.96553 344.000
22.98547 332.000
23.00542 356.000
23.02537 326.000
23.04531 350.000
23.06526 360.000
23.08521 354.000
23.10515 348.000
23.12510 336.000
23.14505 341.000
23.16499 335.000
23.18494 321.000
23.20489 345.000
23.22484 341.000
23.24478 323.000
23.26473 365.000
23.28468 346.000
23.30462 341.000
23.32457 344.000
23.34452 331.000
23.36446 324.000
23.38441 364.000
23.40436 357.000
23.42431 358.000
23.44425 347.000
23.46420 342.000
23.48415 322.000
23.50409 378.000
23.52404 346.000
23.54399 361.000
23.56393 356.000
23.58388 350.000
23.60383 291.000
23.62377 356.000
23.64372 349.000
23.66367 373.000
23.68362 359.000
23.70356 348.000
23.72351 335.000
23.74346 359.000
23.76340 313.000
23.78335 364.000
23.80330 354.000
23.82324 374.000
23.84319 321.000
23.86314 315.000
23.88309 343.000
23.90303 348.000
23.92298 339.000
23.94293 386.000
23.96287 333.000
23.98282 330.000
24.00277 349.000
24.02271 350.000
24.04266 343.000
24.06261 336.000
24.08256 335.000
24.10250 364.000
24.12245 350.000
24.14240 361.000
24.16234 339.000
24.18229 357.000
24.20224 380.000
24.22218 365.000
24.24213 369.000
24.26208 369.000
24.28202 327.000
24.30197 377.000
24.32192 349.000
24.34187 381.000
24.36181 362.000
24.38176 376.000
24.40171 384.000
24.42165 385.000
24.44160 358.000
24.46155 373.000
24.48149 358.000
24.50144 424.000
24.52139 351.000
24.54134 352.000
24.56128 358.000
24.58123 335.000
24.60118 336.000
24.62112 352.000
24.64107 352.000
24.66102 360.000
24.68096 375.000
24.70091 336.000
24.72086 354.000
24.74080 370.000
24.76075 372.000
24.78070 359.000
24.80065 336.000
24.82059 346.000
24.84054 352.000
24.86049 366.000
24.88043 359.000
24.90038 379.000
24.92033 376.000
24.94027 390.000
24.96022 347.000
24.98017 332.000
25.00012 337.000
25.02006 408.000
25.04001 332.000
25.05996 354.000
25.07990 363.000
25.09985 382.000
25.11980 368.000
25.13974 352.000
25.15969 393.000
25.17964 365.000
25.19958 375.000
25.21953 357.000
25.23948 375.000
25.25943 348.000
25.27937 360.000
25.29932 370.000
25.31927 383.000
25.33921 385.000
25.35916 376.000
25.37911 363.000
25.39905 381.000
25.41900 349.000
25.43895 365.000
25.45890 362.000
25.47884 394.000
25.49879 353.000
25.51874 342.000
25.53868 354.000
25.55863 378.000
25.57858 398.000
25.59852 326.000
25.61847 337.000
25.63842 348.000
25.65837 354.000
25.67831 358.000
25.69826 370.000
25.71821 370.000
25.73815 334.000
25.75810 360.000
25.77805 349.000
25.79799 334.000
25.81794 386.000
25.83789 358.000
25.85783 357.000
25.87778 344.000
25.89773 362.000
25.91768 383.000
25.93762 349.000
25.95757 381.000
25.97752 373.000
25.99746 350.000
26.01741 365.000
26.03736 369.000
26.05730 386.000
26.07725 338.000
26.09720 376.000
26.11715 379.000
26.13709 343.000
26.15704 386.000
26.17699 373.000
26.19693 397.000
26.21688 374.000
26.23683 344.000
26.25677 394.000
26.27672 358.000
26.29667 369.000
26.31661 387.000
26.33656 404.000
26.35651 382.000
26.37646 381.000
26.39640 397.000
26.41635 370.000
26.43630 370.000
26.45624 401.000
26.47619 404.000
26.49614 375.000
26.51608 373.000
26.53603 378.000
26.55598 389.000
26.57593 366.000
26.59587 385.000
26.61582 377.000
26.63577 388.000
26.65571 372.000
26.67566 405.000
26.69561 355.000
26.71555 400.000
26.73550 375.000
26.75545 371.000
26.77539 361.000
26.79534 360.000
26.81529 410.000
26.83524 405.000
26.85518 397.000
26.87513 351.000
26.89508 375.000
26.91502 394.000
26.93497 396.000
26.95492 399.000
26.97486 350.000
26.99481 396.000
27.01476 357.000
27.03471 424.000
27.05465 396.000
27.07460 389.000
27.09455 391.000
27.11449 372.000
27.13444 388.000
27.15439 408.000
27.17433 402.000
27.19428 393.000
27.21423 396.000
27.23417 394.000
27.25412 392.000
27.27407 372.000
27.29402 399.000
27.31396 402.000
27.33391 393.000
27.35386 376.000
27.37380 402.000
27.39375 396.000
27.41370 416.000
27.43364 405.000
27.45359 381.000
27.47354 384.000
27.49349 382.000
27.51343 365.000
27.53338 397.000
27.55333 385.000
27.57327 399.000
27.59322 395.000
27.61317 390.000
27.63311 370.000
27.65306 420.000
27.67301 427.000
27.69296 374.000
27.71290 377.000
27.73285 363.000
27.75280 392.000
27.77274 422.000
27.79269 405.000
27.81264 397.000
27.83258 380.000
27.85253 389.000
27.87248 355.000
27.89242 383.000
27.91237 416.000
27.93232 403.000
27.95227 395.000
27.97221 401.000
27.99216 379.000
28.01211 388.000
28.03205 439.000
28.05200 400.000
28.07195 374.000
28.09189 401.000
28.11184 424.000
28.13179 398.000
28.15174 377.000
28.17168 413.000
28.19163 407.000
28.21158 395.000
28.23152 428.000
28.25147 397.000
28.27142 396.000
28.29136 355.000
28.31131 385.000
28.33126 420.000
28.35120 431.000
28.37115 397.000
28.39110 397.000
28.41105 376.000
28.43099 408.000
28.45094 393.000
28.47089 407.000
28.49083 372.000
28.51078 432.000
28.53073 398.000
28.55067 395.000
28.57062 388.000
28.59057 415.000
28.61052 404.000
28.63046 414.000
28.65041 412.000
28.67036 438.000
28.69030 403.000
28.71025 437.000
28.73020 381.000
28.75014 417.000
28.77009 427.000
28.79004 398.000
28.80998 392.000
28.82993 425.000
28.84988 421.000
28.86983 405.000
28.88977 413.000
28.90972 404.000
28.92967 432.000
28.94961 409.000
28.96956 420.000
28.98951 403.000
29.00945 450.000
29.02940 377.000
29.04935 436.000
29.06930 414.000
29.08924 381.000
29.10919 422.000
29.12914 422.000
29.14908 408.000
29.16903 393.000
29.18898 419.000
29.20892 439.000
29.22887 405.000
29.24882 450.000
29.26877 386.000
29.28871 413.000
29.30866 435.000
29.32861 440.000
29.34855 430.000
29.36850 435.000
29.38845 449.000
29.40839 462.000
29.42834 428.000
29.44829 427.000
29.46823 415.000
29.48818 401.000
29.50813 413.000
29.52808 392.000
29.54802 423.000
29.56797 432.000
29.58792 428.000
29.60786 385.000
29.62781 404.000
29.64776 445.000
29.66770 431.000
29.68765 425.000
29.70760 469.000
29.72755 448.000
29.74749 443.000
29.76744 445.000
29.78739 434.000
29.80733 482.000
29.82728 431.000
29.84723 455.000
29.86717 453.000
29.88712 475.000
29.90707 413.000
29.92701 448.000
29.94696 456.000
29.96691 474.000
29.98686 479.000
30.00680 456.000
30.02675 496.000
30.04670 516.000
30.06664 539.000
30.08659 594.000
30.10654 627.000
30.12648 668.000
30.14643 756.000
30.16638 840.000
30.18633 974.000
30.20627 1037.000
30.22622 1018.000
30.24617 990.000
30.26611 993.000
30.28606 879.000
30.30601 822.000
30.32595 762.000
30.34590 620.000
30.36585 550.000
30.38579 531.000
30.40574 530.000
30.42569 455.000
30.44564 467.000
30.46558 479.000
30.48553 436.000
30.50548 444.000
30.52542 417.000
30.54537 451.000
30.56532 443.000
30.58526 433.000
30.60521 419.000
30.62516 477.000
30.64511 472.000
30.66505 483.000
30.68500 469.000
30.70495 449.000
30.72489 424.000
30.74484 430.000
30.76479 420.000
30.78473 410.000
30.80468 415.000
30.82463 449.000
30.84458 426.000
30.86452 450.000
30.88447 397.000
30.90442 400.000
30.92436 397.000
30.94431 440.000
30.96426 456.000
30.98420 427.000
31.00415 421.000
31.02410 436.000
31.04404 447.000
31.06399 429.000
31.08394 415.000
31.10389 489.000
31.12383 457.000
31.14378 430.000
31.16373 429.000
31.18367 448.000
31.20362 436.000
31.22357 444.000
31.24351 469.000
31.26346 423.000
31.28341 456.000
31.30336 498.000
31.32330 480.000
31.34325 506.000
31.36320 477.000
31.38314 496.000
31.40309 476.000
31.42304 456.000
31.44298 436.000
31.46293 422.000
31.48288 444.000
31.50282 447.000
31.52277 392.000
31.54272 437.000
31.56267 453.000
31.58261 430.000
31.60256 421.000
31.62251 436.000
31.64245 418.000
31.66240 461.000
31.68235 487.000
31.70229 406.000
31.72224 442.000
31.74219 484.000
31.76214 441.000
31.78208 474.000
31.80203 437.000
31.82198 474.000
31.84192 419.000
31.86187 445.000
31.88182 439.000
31.90176 440.000
31.92171 424.000
31.94166 451.000
31.96160 430.000
31.98155 453.000
32.00150 458.000
32.02145 473.000
32.04139 448.000
32.06134 448.000
32.08129 427.000
32.10123 420.000
32.12118 435.000
32.14113 429.000
32.16107 464.000
32.18102 418.000
32.20097 435.000
32.22092 463.000
32.24086 454.000
32.26081 472.000
32.28076 469.000
32.30070 443.000
32.32065 480.000
32.34060 502.000
32.36054 478.000
32.38049 501.000
32.40044 515.000
32.42039 536.000
32.44033 547.000
32.46028 532.000
32.48023 505.000
32.50017 531.000
32.52012 487.000
32.54007 463.000
32.56001 489.000
32.57996 472.000
32.59991 470.000
32.61985 426.000
32.63980 469.000
32.65975 468.000
32.67970 426.000
32.69964 432.000
32.71959 450.000
32.73954 413.000
32.75948 459.000
32.77943 419.000
32.79938 441.000
32.81932 397.000
32.83927 426.000
32.85922 406.000
32.87917 375.000
32.89911 388.000
32.91906 391.000
32.93901 430.000
32.95895 397.000
32.97890 407.000
32.99885 396.000
33.01879 438.000
33.03874 420.000
33.05869 402.000
33.07863 410.000
33.09858 433.000
33.11853 418.000
33.13848 404.000
33.15842 441.000
33.17837 404.000
33.19832 419.000
33.21826 407.000
33.23821 453.000
33.25816 391.000
33.27810 415.000
33.29805 477.000
33.31800 445.000
33.33795 417.000
33.35789 419.000
33.37784 419.000
33.39779 407.000
33.41773 421.000
33.43768 422.000
33.45763 438.000
33.47757 435.000
33.49752 423.000
33.51747 445.000
33.53741 394.000
33.55736 433.000
33.57731 427.000
33.59726 411.000
33.61720 412.000
33.63715 429.000
33.65710 428.000
33.67704 379.000
33.69699 398.000
33.71694 429.000
33.73688 404.000
33.75683 465.000
33.77678 427.000
33.79673 432.000
33.81667 419.000
33.83662 428.000
33.85657 424.000
33.87651 419.000
33.89646 398.000
33.91641 414.000
33.93635 411.000
33.95630 432.000
33.97625 382.000
33.99620 401.000
34.01614 394.000
34.03609 418.000
34.05604 422.000
34.07598 407.000
34.09593 409.000
34.11588 417.000
34.13582 425.000
34.15577 398.000
34.17572 461.000
34.19566 455.000
34.21561 415.000
34.23556 443.000
34.25551 449.000
34.27545 436.000
34.29540 418.000
34.31535 453.000
34.33529 453.000
34.35524 460.000
34.37519 438.000
34.39513 424.000
34.41508 420.000
34.43503 392.000
34.45498 487.000
34.47492 451.000
34.49487 468.000
34.51482 462.000
34.53476 486.000
34.55471 474.000
34.57466 531.000
34.59460 488.000
34.61455 566.000
34.63450 598.000
34.65444 631.000
34.67439 591.000
34.69434 577.000
34.71429 643.000
34.73423 601.000
34.75418 564.000
34.77413 623.000
34.79407 574.000
34.81402 588.000
34.83397 564.000
34.85391 546.000
34.87386 507.000
34.89381 529.000
34.91376 481.000
34.93370 534.000
34.95365 497.000
34.97360 552.000
34.99354 482.000
35.01349 489.000
35.03344 509.000
35.05338 485.000
35.07333 503.000
35.09328 524.000
35.11322 590.000
35.13317 579.000
35.15312 584.000
35.17307 603.000
35.19301 608.000
35.21296 670.000
35.23291 739.000
35.25285 655.000
35.27280 818.000
35.29275 857.000
35.31269 877.000
35.33264 1029.000
35.35259 1107.000
35.37254 1343.000
35.39248 1402.000
35.41243 1501.000
35.43238 1655.000
35.45232 1684.000
35.47227 1876.000
35.49222 2097.000
35.51216 2158.000
35.53211 2389.000
35.55206 2723.000
35.57201 2894.000
35.59195 3229.000
35.61190 3235.000
35.63185 2969.000
35.65179 2523.000
35.67174 2311.000
35.69169 2243.000
35.71163 1891.000
35.73158 1584.000
35.75153 1306.000
35.77147 1156.000
35.79142 895.000
35.81137 871.000
35.83132 750.000
35.85126 702.000
35.87121 678.000
35.89116 619.000
35.91110 556.000
35.93105 534.000
35.95100 519.000
35.97094 531.000
35.99089 489.000
36.01084 466.000
36.03079 482.000
36.05073 460.000
36.07068 480.000
36.09063 512.000
36.11057 491.000
36.13052 480.000
36.15047 546.000
36.17041 462.000
36.19036 552.000
36.21031 504.000
36.23025 529.000
36.25020 564.000
36.27015 506.000
36.29010 509.000
36.31004 537.000
36.32999 546.000
36.34994 519.000
36.36988 523.000
36.38983 516.000
36.40978 517.000
36.42972 512.000
36.44967 524.000
36.46962 513.000
36.48957 508.000
36.50951 532.000
36.52946 534.000
36.54941 482.000
36.56935 469.000
36.58930 451.000
36.60925 525.000
36.62919 503.000
36.64914 493.000
36.66909 508.000
36.68903 500.000
36.70898 533.000
36.72893 493.000
36.74888 536.000
36.76882 512.000
36.78877 550.000
36.80872 564.000
36.82866 549.000
36.84861 635.000
36.86856 627.000
36.88850 659.000
36.90845 761.000
36.92840 873.000
36.94835 1000.000
36.96829 1148.000
36.98824 1397.000
37.00819 1690.000
37.02813 2002.000
37.04808 2305.000
37.06803 2358.000
37.08797 2387.000
37.10792 2363.000
37.12787 2214.000
37.14781 1998.000
37.16776 1814.000
37.18771 1672.000
37.20766 1408.000
37.22760 1235.000
37.24755 1111.000
37.26750 890.000
37.28744 804.000
37.30739 722.000
37.32734 683.000
37.34728 653.000
37.36723 608.000
37.38718 565.000
37.40713 532.000
37.42707 523.000
37.44702 513.000
37.46697 529.000
37.48691 467.000
37.50686 510.000
37.52681 468.000
37.54675 448.000
37.56670 485.000
37.58665 432.000
37.60660 442.000
37.62654 420.000
37.64649 494.000
37.66644 445.000
37.68638 444.000
37.70633 432.000
37.72628 422.000
37.74622 444.000
37.76617 434.000
37.78612 437.000
37.80606 409.000
37.82601 445.000
37.84596 431.000
37.86591 413.000
37.88585 426.000
37.90580 413.000
37.92575 453.000
37.94569 446.000
37.96564 461.000
37.98559 449.000
38.00553 420.000
38.02548 468.000
38.04543 438.000
38.06538 482.000
38.08532 470.000
38.10527 455.000
38.12522 464.000
38.14516 462.000
38.16511 425.000
38.18506 462.000
38.20500 486.000
38.22495 449.000
38.24490 499.000
38.26484 486.000
38.28479 518.000
38.30474 507.000
38.32469 562.000
38.34463 527.000
38.36458 577.000
38.38453 617.000
38.40447 556.000
38.42442 602.000
38.44437 673.000
38.46431 728.000
38.48426 820.000
38.50421 861.000
38.52416 954.000
38.54410 1094.000
38.56405 1231.000
38.58400 1268.000
38.60394 1308.000
38.62389 1375.000
38.64384 1408.000
38.66378 1332.000
38.68373 1304.000
38.70368 1296.000
38.72362 1209.000
38.74357 1198.000
38.76352 1140.000
38.78347 1095.000
38.80341 968.000
38.82336 959.000
38.84331 894.000
38.86325 916.000
38.88320 863.000
38.90315 881.000
38.92309 809.000
38.94304 835.000
38.96299 697.000
38.98294 727.000
39.00288 637.000
39.02283 657.000
39.04278 639.000
39.06272 556.000
39.08267 568.000
39.10262 505.000
39.12256 493.000
39.14251 506.000
39.16246 504.000
39.18241 425.000
39.20235 450.000
39.22230 480.000
39.24225 447.000
39.26219 423.000
39.28214 417.000
39.30209 412.000
39.32203 396.000
39.34198 435.000
39.36193 414.000
39.38187 408.000
39.40182 422.000
39.42177 458.000
39.44172 391.000
39.46166 396.000
39.48161 407.000
39.50156 393.000
39.52150 378.000
39.54145 447.000
39.56140 454.000
39.58134 351.000
39.60129 380.000
39.62124 399.000
39.64119 410.000
39.66113 395.000
39.68108 391.000
39.70103 370.000
39.72097 404.000
39.74092 352.000
39.76087 391.000
39.78081 405.000
39.80076 392.000
39.82071 398.000
39.84065 416.000
39.86060 408.000
39.88055 446.000
39.90050 383.000
39.92044 387.000
39.94039 409.000
39.96034 404.000
39.98028 382.000
40.00023 382.000
40.02018 388.000
40.04012 416.000
40.06007 388.000
40.08002 378.000
40.09997 380.000
40.11991 412.000
40.13986 410.000
40.15981 371.000
40.17975 380.000
40.19970 396.000
40.21965 397.000
40.23959 383.000
40.25954 393.000
40.27949 384.000
40.29943 365.000
40.31938 421.000
40.33933 379.000
40.35928 379.000
40.37922 396.000
40.39917 399.000
40.41912 400.000
40.43906 354.000
40.45901 422.000
40.47896 378.000
40.49890 392.000
40.51885 389.000
40.53880 360.000
40.55875 370.000
40.57869 389.000
40.59864 368.000
40.61859 418.000
40.63853 418.000
40.65848 456.000
40.67843 452.000
40.69837 435.000
40.71832 455.000
40.73827 390.000
40.75822 398.000
40.77816 371.000
40.79811 422.000
40.81806 425.000
40.83800 432.000
40.85795 437.000
40.87790 410.000
40.89784 412.000
40.91779 430.000
40.93774 389.000
40.95768 371.000
40.97763 376.000
40.99758 390.000
41.01753 397.000
41.03747 391.000
41.05742 380.000
41.07737 397.000
41.09731 402.000
41.11726 423.000
41.13721 408.000
41.15715 398.000
41.17710 398.000
41.19705 374.000
41.21700 384.000
41.23694 426.000
41.25689 406.000
41.27684 398.000
41.29678 397.000
41.31673 367.000
41.33668 382.000
41.35662 399.000
41.37657 388.000
41.39652 391.000
41.41646 385.000
41.43641 404.000
41.45636 436.000
41.47631 410.000
41.49625 379.000
41.51620 405.000
41.53615 409.000
41.55609 377.000
41.57604 384.000
41.59599 414.000
41.61593 408.000
41.63588 392.000
41.65583 391.000
41.67578 432.000
41.69572 390.000
41.71567 383.000
41.73562 380.000
41.75556 373.000
41.77551 406.000
41.79546 445.000
41.81540 393.000
41.83535 394.000
41.85530 406.000
41.87524 448.000
41.89519 371.000
41.91514 372.000
41.93509 405.000
41.95503 353.000
41.97498 441.000
41.99493 369.000
42.01487 389.000
42.03482 403.000
42.05477 408.000
42.07471 422.000
42.09466 419.000
42.11461 397.000
42.13456 423.000
42.15450 431.000
42.17445 422.000
42.19440 427.000
42.21434 399.000
42.23429 425.000
42.25424 414.000
42.27418 417.000
42.29413 433.000
42.31408 448.000
42.33403 417.000
42.35397 439.000
42.37392 472.000
42.39387 458.000
42.41381 469.000
42.43376 458.000
42.45371 478.000
42.47365 450.000
42.49360 468.000
42.51355 512.000
42.53349 473.000
42.55344 500.000
42.57339 506.000
42.59334 463.000
42.61328 510.000
42.63323 528.000
42.65318 555.000
42.67312 495.000
42.69307 621.000
42.71302 600.000
42.73296 622.000
42.75291 639.000
42.77286 708.000
42.79281 704.000
42.81275 774.000
42.83270 802.000
42.85265 927.000
42.87259 958.000
42.89254 1093.000
42.91249 1223.000
42.93243 1275.000
42.95238 1475.000
42.97233 1708.000
42.99227 1882.000
43.01222 2066.000
43.03217 2311.000
43.05212 2504.000
43.07206 2526.000
43.09201 2560.000
43.11196 2645.000
43.13190 2632.000
43.15185 2575.000
43.17180 2481.000
43.19174 2296.000
43.21169 2144.000
43.23164 2047.000
43.25159 1886.000
43.27153 1832.000
43.29148 1669.000
43.31143 1482.000
43.33137 1313.000
43.35132 1166.000
43.37127 1041.000
43.39121 976.000
43.41116 885.000
43.43111 824.000
43.45105 731.000
43.47100 676.000
43.49095 583.000
43.51090 620.000
43.53084 562.000
43.55079 496.000
43.57074 530.000
43.59068 500.000
43.61063 477.000
43.63058 442.000
43.65052 446.000
43.67047 451.000
43.69042 464.000
43.71037 428.000
43.73031 435.000
43.75026 439.000
43.77021 418.000
43.79015 427.000
43.81010 396.000
43.83005 384.000
43.84999 449.000
43.86994 392.000
43.88989 421.000
43.90984 433.000
43.92978 416.000
43.94973 387.000
43.96968 367.000
43.98962 423.000
44.00957 378.000
44.02952 416.000
44.04946 385.000
44.06941 408.000
44.08936 403.000
44.10930 419.000
44.12925 396.000
44.14920 412.000
44.16915 407.000
44.18909 376.000
44.20904 388.000
44.22899 390.000
44.24893 400.000
44.26888 383.000
44.28883 350.000
44.30877 393.000
44.32872 389.000
44.34867 383.000
44.36862 366.000
44.38856 356.000
44.40851 399.000
44.42846 383.000
44.44840 383.000
44.46835 370.000
44.48830 376.000
44.50824 396.000
44.52819 386.000
44.54814 342.000
44.56808 393.000
44.58803 361.000
44.60798 382.000
44.62793 359.000
44.64787 383.000
44.66782 389.000
44.68777 378.000
44.70771 395.000
44.72766 383.000
44.74761 400.000
44.76755 388.000
44.78750 408.000
44.80745 422.000
44.82740 377.000
44.84734 416.000
44.86729 399.000
44.88724 390.000
44.90718 381.000
44.92713 407.000
44.94708 412.000
44.96702 406.000
44.98697 370.000
45.00692 427.000
45.02686 391.000
45.04681 446.000
45.06676 432.000
45.08671 390.000
45.10665 420.000
45.12660 388.000
45.14655 420.000
45.16649 430.000
45.18644 429.000
45.20639 425.000
45.22633 431.000
45.24628 433.000
45.26623 406.000
45.28618 428.000
45.30612 358.000
45.32607 393.000
45.34602 402.000
45.36596 380.000
45.38591 392.000
45.40586 394.000
45.42580 369.000
45.44575 387.000
45.46570 368.000
45.48565 359.000
45.50559 377.000
45.52554 396.000
45.54549 404.000
45.56543 400.000
45.58538 365.000
45.60533 345.000
45.62527 344.000
45.64522 376.000
45.66517 391.000
45.68511 379.000
45.70506 370.000
45.72501 376.000
45.74496 383.000
45.76490 386.000
45.78485 388.000
45.80480 373.000
45.82474 338.000
45.84469 348.000
45.86464 357.000
45.88458 361.000
45.90453 358.000
45.92448 366.000
45.94443 384.000
45.96437 372.000
45.98432 366.000
46.00427 362.000
46.02421 377.000
46.04416 350.000
46.06411 422.000
46.08405 415.000
46.10400 337.000
46.12395 412.000
46.14389 379.000
46.16384 427.000
46.18379 377.000
46.20374 408.000
46.22368 368.000
46.24363 407.000
46.26358 370.000
46.28352 403.000
46.30347 345.000
46.32342 381.000
46.34336 396.000
46.36331 385.000
46.38326 369.000
46.40321 405.000
46.42315 374.000
46.44310 352.000
46.46305 389.000
46.48299 393.000
46.50294 360.000
46.52289 347.000
46.54283 355.000
46.56278 383.000
46.58273 373.000
46.60267 409.000
46.62262 386.000
46.64257 377.000
46.66252 382.000
46.68246 334.000
46.70241 376.000
46.72236 326.000
46.74230 366.000
46.76225 361.000
46.78220 350.000
46.80214 378.000
46.82209 335.000
46.84204 383.000
46.86199 337.000
46.88193 355.000
46.90188 359.000
46.92183 367.000
46.94177 355.000
46.96172 348.000
46.98167 341.000
47.00161 349.000
47.02156 342.000
47.04151 356.000
47.06146 369.000
47.08140 345.000
47.10135 368.000
47.12130 369.000
47.14124 410.000
47.16119 356.000
47.18114 354.000
47.20108 354.000
47.22103 367.000
47.24098 397.000
47.26092 364.000
47.28087 342.000
47.30082 359.000
47.32077 369.000
47.34071 356.000
47.36066 388.000
47.38061 364.000
47.40055 357.000
47.42050 359.000
47.44045 399.000
47.46039 387.000
47.48034 390.000
47.50029 383.000
47.52024 400.000
47.54018 376.000
47.56013 374.000
47.58008 397.000
47.60002 356.000
47.61997 376.000
47.63992 355.000
47.65986 368.000
47.67981 361.000
47.69976 367.000
47.71970 388.000
47.73965 388.000
47.75960 334.000
47.77955 379.000
47.79949 384.000
47.81944 358.000
47.83939 363.000
47.85933 391.000
47.87928 373.000
47.89923 374.000
47.91917 372.000
47.93912 377.000
47.95907 362.000
47.97902 367.000
47.99896 368.000
48.01891 334.000
48.03886 363.000
48.05880 388.000
48.07875 377.000
48.09870 360.000
48.11864 360.000
48.13859 414.000
48.15854 366.000
48.17848 376.000
48.19843 378.000
48.21838 387.000
48.23833 376.000
48.25827 403.000
48.27822 396.000
48.29817 404.000
48.31811 389.000
48.33806 416.000
48.35801 378.000
48.37795 387.000
48.39790 362.000
48.41785 452.000
48.43780 403.000
48.45774 440.000
48.47769 417.000
48.49764 396.000
48.51758 432.000
48.53753 427.000
48.55748 481.000
48.57742 490.000
48.59737 461.000
48.61732 460.000
48.63726 507.000
48.65721 481.000
48.67716 577.000
48.69711 543.000
48.71705 576.000
48.73700 576.000
48.75695 614.000
48.77689 595.000
48.79684 539.000
48.81679 562.000
48.83673 599.000
48.85668 578.000
48.87663 566.000
48.89658 546.000
48.91652 516.000
48.93647 513.000
48.95642 494.000
48.97636 502.000
48.99631 475.000
49.01626 388.000
49.03620 430.000
49.05615 400.000
49.07610 440.000
49.09605 403.000
49.11599 366.000
49.13594 391.000
49.15589 383.000
49.17583 368.000
49.19578 352.000
49.21573 370.000
49.23567 346.000
49.25562 411.000
49.27557 380.000
49.29551 407.000
49.31546 364.000
49.33541 365.000
49.35536 370.000
49.37530 370.000
49.39525 345.000
49.41520 364.000
49.43514 364.000
49.45509 373.000
49.47504 365.000
49.49498 361.000
49.51493 381.000
49.53488 358.000
49.55483 378.000
49.57477 385.000
49.59472 338.000
49.61467 346.000
49.63461 386.000
49.65456 418.000
49.67451 368.000
49.69445 351.000
49.71440 397.000
49.73435 403.000
49.75429 359.000
49.77424 365.000
49.79419 366.000
49.81414 345.000
49.83408 353.000
49.85403 352.000
49.87398 386.000
49.89392 346.000
49.91387 374.000
49.93382 350.000
49.95376 369.000
49.97371 361.000
49.99366 357.000
50.01361 385.000
50.03355 384.000
50.05350 374.000
50.07345 360.000
50.09339 339.000
50.11334 392.000
50.13329 375.000
50.15323 368.000
50.17318 358.000
50.19313 365.000
50.21307 363.000
50.23302 364.000
50.25297 373.000
50.27292 361.000
50.29286 361.000
50.31281 409.000
50.33276 385.000
50.35270 380.000
50.37265 322.000
50.39260 363.000
50.41254 340.000
50.43249 363.000
50.45244 348.000
50.47239 354.000
50.49233 382.000
50.51228 351.000
50.53223 370.000
50.55217 372.000
50.57212 372.000
50.59207 375.000
50.61201 351.000
50.63196 334.000
50.65191 368.000
50.67186 342.000
50.69180 375.000
50.71175 352.000
50.73170 342.000
50.75164 376.000
50.77159 391.000
50.79154 317.000
50.81148 329.000
50.83143 377.000
50.85138 391.000
50.87132 381.000
50.89127 354.000
50.91122 368.000
50.93117 347.000
50.95111 348.000
50.97106 355.000
50.99101 351.000
51.01095 380.000
51.03090 351.000
51.05085 314.000
51.07079 357.000
51.09074 384.000
51.11069 373.000
51.13064 344.000
51.15058 358.000
51.17053 331.000
51.19048 363.000
51.21042 380.000
51.23037 376.000
51.25032 350.000
51.27026 321.000
51.29021 380.000
51.31016 357.000
51.33010 356.000
51.35005 363.000
51.37000 320.000
51.38995 332.000
51.40989 377.000
51.42984 326.000
51.44979 341.000
51.46973 390.000
51.48968 396.000
51.50963 361.000
51.52957 341.000
51.54952 366.000
51.56947 340.000
51.58942 356.000
51.60936 357.000
51.62931 354.000
51.64926 349.000
51.66920 360.000
51.68915 321.000
51.70910 347.000
51.72904 332.000
51.74899 385.000
51.76894 348.000
51.78888 368.000
51.80883 356.000
51.82878 371.000
51.84873 330.000
51.86867 344.000
51.88862 342.000
51.90857 365.000
51.92851 347.000
51.94846 346.000
51.96841 334.000
51.98835 369.000
52.00830 379.000
52.02825 402.000
52.04820 417.000
52.06814 336.000
52.08809 419.000
52.10804 377.000
52.12798 372.000
52.14793 358.000
52.16788 375.000
52.18782 362.000
52.20777 356.000
52.22772 368.000
52.24767 372.000
52.26761 356.000
52.28756 396.000
52.30751 363.000
52.32745 403.000
52.34740 341.000
52.36735 356.000
52.38729 357.000
52.40724 368.000
52.42719 346.000
52.44713 337.000
52.46708 360.000
52.48703 367.000
52.50698 378.000
52.52692 316.000
52.54687 378.000
52.56682 414.000
52.58676 365.000
52.60671 383.000
52.62666 395.000
52.64660 377.000
52.66655 357.000
52.68650 378.000
52.70645 348.000
52.72639 371.000
52.74634 396.000
52.76629 412.000
52.78623 395.000
52.80618 411.000
52.82613 352.000
52.84607 352.000
52.86602 374.000
52.88597 352.000
52.90591 371.000
52.92586 407.000
52.94581 383.000
52.96576 366.000
52.98570 416.000
53.00565 419.000
53.02560 415.000
53.04554 404.000
53.06549 369.000
53.08544 379.000
53.10538 401.000
53.12533 377.000
53.14528 428.000
53.16523 393.000
53.18517 407.000
53.20512 421.000
53.22507 420.000
53.24501 416.000
53.26496 386.000
53.28491 374.000
53.30485 421.000
53.32480 397.000
53.34475 424.000
53.36469 385.000
53.38464 396.000
53.40459 407.000
53.42454 423.000
53.44448 392.000
53.46443 411.000
53.48438 402.000
53.50432 437.000
53.52427 397.000
53.54422 410.000
53.56416 437.000
53.58411 432.000
53.60406 415.000
53.62401 408.000
53.64395 468.000
53.66390 458.000
53.68385 515.000
53.70379 555.000
53.72374 555.000
53.74369 526.000
53.76363 505.000
53.78358 483.000
53.80353 482.000
53.82348 504.000
53.84342 471.000
53.86337 467.000
53.88332 491.000
53.90326 460.000
53.92321 457.000
53.94316 408.000
53.96310 384.000
53.98305 390.000
54.00300 370.000
54.02294 354.000
54.04289 439.000
54.06284 350.000
54.08279 365.000
54.10273 339.000
54.12268 345.000
54.14263 366.000
54.16257 391.000
54.18252 359.000
54.20247 379.000
54.22241 346.000
54.24236 332.000
54.26231 372.000
54.28226 349.000
54.30220 348.000
54.32215 351.000
54.34210 360.000
54.36204 421.000
54.38199 374.000
54.40194 374.000
54.42188 352.000
54.44183 368.000
54.46178 370.000
54.48172 336.000
54.50167 367.000
54.52162 370.000
54.54157 334.000
54.56151 360.000
54.58146 390.000
54.60141 353.000
54.62135 375.000
54.64130 397.000
54.66125 355.000
54.68119 367.000
54.70114 363.000
54.72109 372.000
54.74104 389.000
54.76098 381.000
54.78093 380.000
54.80088 372.000
54.82082 332.000
54.84077 397.000
54.86072 382.000
54.88066 371.000
54.90061 360.000
54.92056 370.000
54.94050 408.000
54.96045 387.000
54.98040 352.000
55.00035 368.000
55.02029 389.000
55.04024 348.000
55.06019 350.000
55.08013 377.000
55.10008 360.000
55.12003 339.000
55.13997 374.000
55.15992 366.000
55.17987 360.000
55.19982 345.000
55.21976 349.000
55.23971 398.000
55.25966 338.000
55.27960 351.000
55.29955 364.000
55.31950 372.000
55.33944 337.000
55.35939 362.000
55.37934 365.000
55.39929 366.000
55.41923 405.000
55.43918 365.000
55.45913 346.000
55.47907 356.000
55.49902 350.000
55.51897 377.000
55.53891 378.000
55.55886 358.000
55.57881 383.000
55.59875 353.000
55.61870 361.000
55.63865 369.000
55.65860 373.000
55.67854 360.000
55.69849 401.000
55.71844 370.000
55.73838 396.000
55.75833 374.000
55.77828 333.000
55.79822 383.000
55.81817 344.000
55.83812 376.000
55.85807 349.000
55.87801 386.000
55.89796 342.000
55.91791 385.000
55.93785 392.000
55.95780 383.000
55.97775 387.000
55.99769 392.000
56.01764 325.000
56.03759 369.000
56.05753 394.000
56.07748 373.000
56.09743 386.000
56.11738 402.000
56.13732 381.000
56.15727 363.000
56.17722 357.000
56.19716 373.000
56.21711 347.000
56.23706 367.000
56.25700 330.000
56.27695 380.000
56.29690 372.000
56.31685 341.000
56.33679 387.000
56.35674 375.000
56.37669 394.000
56.39663 340.000
56.41658 360.000
56.43653 382.000
56.45647 398.000
56.47642 364.000
56.49637 408.000
56.51631 402.000
56.53626 388.000
56.55621 400.000
56.57616 388.000
56.59610 385.000
56.61605 394.000
56.63600 353.000
56.65594 416.000
56.67589 354.000
56.69584 418.000
56.71578 393.000
56.73573 403.000
56.75568 394.000
56.77563 366.000
56.79557 375.000
56.81552 384.000
56.83547 410.000
56.85541 419.000
56.87536 390.000
56.89531 439.000
56.91525 413.000
56.93520 376.000
56.95515 406.000
56.97510 415.000
56.99504 444.000
57.01499 429.000
57.03494 434.000
57.05488 431.000
57.07483 448.000
57.09478 485.000
57.11472 497.000
57.13467 528.000
57.15462 538.000
57.17456 546.000
57.19451 596.000
57.21446 646.000
57.23441 727.000
57.25435 784.000
57.27430 809.000
57.29425 821.000
57.31419 751.000
57.33414 740.000
57.35409 704.000
57.37403 653.000
57.39398 661.000
57.41393 710.000
57.43388 696.000
57.45382 625.000
57.47377 566.000
57.49372 536.000
57.51366 504.000
57.53361 507.000
57.55356 474.000
57.57350 488.000
57.59345 427.000
57.61340 415.000
57.63334 429.000
57.65329 397.000
57.67324 446.000
57.69319 431.000
57.71313 406.000
57.73308 431.000
57.75303 395.000
57.77297 405.000
57.79292 402.000
57.81287 446.000
57.83281 403.000
57.85276 384.000
57.87271 399.000
57.89266 417.000
57.91260 390.000
57.93255 410.000
57.95250 390.000
57.97244 434.000
57.99239 401.000
58.01234 451.000
58.03228 413.000
58.05223 413.000
58.07218 470.000
58.09212 460.000
58.11207 488.000
58.13202 501.000
58.15197 497.000
58.17191 505.000
58.19186 462.000
58.21181 457.000
58.23175 501.000
58.25170 487.000
58.27165 472.000
58.29159 458.000
58.31154 443.000
58.33149 461.000
58.35144 440.000
58.37138 390.000
58.39133 407.000
58.41128 434.000
58.43122 407.000
58.45117 364.000
58.47112 370.000
58.49106 379.000
58.51101 380.000
58.53096 382.000
58.55090 389.000
58.57085 371.000
58.59080 416.000
58.61075 392.000
58.63069 349.000
58.65064 391.000
58.67059 381.000
58.69053 353.000
58.71048 383.000
58.73043 362.000
58.75037 386.000
58.77032 380.000
58.79027 352.000
58.81022 360.000
58.83016 343.000
58.85011 350.000
58.87006 384.000
58.89000 352.000
58.90995 360.000
58.92990 373.000
58.94984 401.000
58.96979 357.000
58.98974 360.000
59.00969 357.000
59.02963 361.000
59.04958 383.000
59.06953 317.000
59.08947 350.000
59.10942 358.000
59.12937 346.000
59.14931 343.000
59.16926 378.000
59.18921 348.000
59.20915 374.000
59.22910 374.000
59.24905 309.000
59.26900 388.000
59.28894 369.000
59.30889 357.000
59.32884 377.000
59.34878 379.000
59.36873 360.000
59.38868 371.000
59.40862 377.000
59.42857 392.000
59.44852 369.000
59.46847 394.000
59.48841 337.000
59.50836 377.000
59.52831 382.000
59.54825 358.000
59.56820 358.000
59.58815 381.000
59.60809 358.000
59.62804 359.000
59.64799 341.000
59.66793 363.000
59.68788 383.000
59.70783 353.000
59.72778 358.000
59.74772 381.000
59.76767 353.000
59.78762 372.000
59.80756 394.000
59.82751 339.000
59.84746 379.000
59.86740 394.000
59.88735 366.000
59.90730 342.000
59.92725 383.000
59.94719 371.000
59.96714 337.000
59.98709 369.000
60.00703 390.000
60.02698 349.000
60.04693 363.000
60.06687 341.000
60.08682 371.000
60.10677 386.000
60.12671 359.000
60.14666 342.000
60.16661 337.000
60.18656 384.000
60.20650 393.000
60.22645 382.000
60.24640 375.000
60.26634 365.000
60.28629 358.000
60.30624 372.000
60.32618 389.000
60.34613 336.000
60.36608 335.000
60.38603 348.000
60.40597 376.000
60.42592 345.000
60.44587 347.000
60.46581 347.000
60.48576 393.000
60.50571 385.000
60.52565 351.000
60.54560 343.000
60.56555 332.000
60.58550 369.000
60.60544 368.000
60.62539 386.000
60.64534 363.000
60.66528 399.000
60.68523 346.000
60.70518 354.000
60.72512 382.000
60.74507 359.000
60.76502 388.000
60.78496 370.000
60.80491 343.000
60.82486 357.000
60.84481 380.000
60.86475 387.000
60.88470 385.000
60.90465 392.000
60.92459 358.000
60.94454 379.000
60.96449 343.000
60.98443 350.000
61.00438 349.000
61.02433 375.000
61.04428 370.000
61.06422 388.000
61.08417 403.000
61.10412 385.000
61.12406 376.000
61.14401 380.000
61.16396 400.000
61.18390 419.000
61.20385 399.000
61.22380 368.000
61.24374 422.000
61.26369 398.000
61.28364 411.000
61.30359 420.000
61.32353 409.000
61.34348 449.000
61.36343 447.000
61.38337 421.000
61.40332 476.000
61.42327 531.000
61.44321 496.000
61.46316 489.000
61.48311 536.000
61.50306 530.000
61.52300 521.000
61.54295 511.000
61.56290 567.000
61.58284 504.000
61.60279 553.000
61.62274 552.000
61.64268 488.000
61.66263 479.000
61.68258 509.000
61.70252 487.000
61.72247 482.000
61.74242 490.000
61.76237 464.000
61.78231 447.000
61.80226 444.000
61.82221 470.000
61.84215 452.000
61.86210 482.000
61.88205 430.000
61.90199 474.000
61.92194 452.000
61.94189 432.000
61.96184 481.000
61.98178 455.000
62.00173 489.000
62.02168 476.000
62.04162 396.000
62.06157 434.000
62.08152 477.000
62.10146 483.000
62.12141 516.000
62.14136 504.000
62.16131 511.000
62.18125 479.000
62.20120 536.000
62.22115 479.000
62.24109 530.000
62.26104 528.000
62.28099 574.000
62.30093 568.000
62.32088 622.000
62.34083 657.000
62.36077 674.000
62.38072 678.000
62.40067 713.000
62.42062 768.000
62.44056 876.000
62.46051 935.000
62.48046 1035.000
62.50040 1117.000
62.52035 1212.000
62.54030 1271.000
62.56024 1326.000
62.58019 1328.000
62.60014 1391.000
62.62009 1484.000
62.64003 1448.000
62.65998 1367.000
62.67993 1290.000
62.69987 1317.000
62.71982 1346.000
62.73977 1251.000
62.75971 1259.000
62.77966 1210.000
62.79961 1228.000
62.81955 1142.000
62.83950 1206.000
62.85945 1200.000
62.87940 1230.000
62.89934 1238.000
62.91929 1225.000
62.93924 1076.000
62.95918 977.000
62.97913 911.000
62.99908 879.000
63.01902 869.000
63.03897 805.000
63.05892 796.000
63.07887 787.000
63.09881 765.000
63.11876 693.000
63.13871 633.000
63.15865 672.000
63.17860 576.000
63.19855 534.000
63.21849 510.000
63.23844 547.000
63.25839 491.000
63.27833 445.000
63.29828 462.000
63.31823 443.000
63.33818 443.000
63.35812 430.000
63.37807 465.000
63.39802 412.000
63.41796 404.000
63.43791 396.000
63.45786 390.000
63.47780 420.000
63.49775 356.000
63.51770 413.000
63.53765 365.000
63.55759 366.000
63.57754 379.000
63.59749 375.000
63.61743 412.000
63.63738 367.000
63.65733 344.000
63.67727 348.000
63.69722 401.000
63.71717 382.000
63.73712 369.000
63.75706 381.000
63.77701 360.000
63.79696 368.000
63.81690 371.000
63.83685 373.000
63.85680 384.000
63.87674 364.000
63.89669 401.000
63.91664 391.000
63.93658 361.000
63.95653 389.000
63.97648 367.000
63.99643 390.000
64.01637 380.000
64.03632 427.000
64.05627 397.000
64.07621 415.000
64.09616 369.000
64.11611 405.000
64.13605 342.000
64.15600 357.000
64.17595 375.000
64.19590 333.000
64.21584 378.000
64.23579 378.000
64.25574 397.000
64.27568 389.000
64.29563 374.000
64.31558 401.000
64.33552 346.000
64.35547 371.000
64.37542 406.000
64.39536 363.000
64.41531 387.000
64.43526 377.000
64.45521 427.000
64.47515 391.000
64.49510 359.000
64.51505 348.000
64.53499 365.000
64.55494 352.000
64.57489 399.000
64.59483 397.000
64.61478 382.000
64.63473 353.000
64.65468 387.000
64.67462 392.000
64.69457 357.000
64.71452 437.000
64.73446 374.000
64.75441 367.000
64.77436 395.000
64.79430 385.000
64.81425 388.000
64.83420 350.000
64.85414 373.000
64.87409 335.000
64.89404 363.000
64.91399 382.000
64.93393 363.000
64.95388 367.000
64.97383 360.000
64.99377 357.000
65.01372 403.000
65.03367 398.000
65.05361 385.000
65.07356 407.000
65.09351 368.000
65.11346 371.000
65.13340 405.000
65.15335 355.000
65.17330 341.000
65.19324 368.000
65.21319 416.000
65.23314 414.000
65.25308 386.000
65.27303 386.000
65.29298 368.000
65.31293 404.000
65.33287 412.000
65.35282 387.000
65.37277 393.000
65.39271 361.000
65.41266 394.000
65.43261 427.000
65.45255 434.000
65.47250 419.000
65.49245 427.000
65.51239 461.000
65.53234 430.000
65.55229 436.000
65.57224 411.000
65.59218 479.000
65.61213 425.000
65.63208 432.000
65.65202 433.000
65.67197 434.000
65.69192 403.000
65.71186 481.000
65.73181 446.000
65.75176 453.000
65.77171 439.000
65.79165 475.000
65.81160 466.000
65.83155 479.000
65.85149 431.000
65.87144 435.000
65.89139 476.000
65.91133 476.000
65.93128 420.000
65.95123 476.000
65.97117 483.000
65.99112 449.000
66.01107 471.000
66.03102 431.000
66.05096 501.000
66.07091 487.000
66.09086 447.000
66.11080 488.000
66.13075 443.000
66.15070 494.000
66.17064 469.000
66.19059 473.000
66.21054 484.000
66.23049 499.000
66.25043 521.000
66.27038 524.000
66.29033 556.000
66.31027 515.000
66.33022 513.000
66.35017 495.000
66.37011 496.000
66.39006 482.000
66.41001 458.000
66.42995 481.000
66.44990 500.000
66.46985 484.000
66.48980 406.000
66.50974 476.000
66.52969 456.000
66.54964 432.000
66.56958 397.000
66.58953 430.000
66.60948 408.000
66.62942 426.000
66.64937 411.000
66.66932 398.000
66.68927 401.000
66.70921 350.000
66.72916 437.000
66.74911 402.000
66.76905 423.000
66.78900 398.000
66.80895 396.000
66.82889 401.000
66.84884 384.000
66.86879 375.000
66.88874 350.000
66.90868 408.000
66.92863 376.000
66.94858 355.000
66.96852 377.000
66.98847 380.000
67.00842 365.000
67.02836 358.000
67.04831 348.000
67.06826 393.000
67.08820 404.000
67.10815 411.000
67.12810 398.000
67.14805 376.000
67.16799 385.000
67.18794 398.000
67.20789 369.000
67.22783 373.000
67.24778 398.000
67.26773 401.000
67.28767 350.000
67.30762 384.000
67.32757 380.000
67.34752 360.000
67.36746 338.000
67.38741 399.000
67.40736 380.000
67.42730 381.000
67.44725 376.000
67.46720 367.000
67.48714 394.000
67.50709 394.000
67.52704 401.000
67.54698 371.000
67.56693 397.000
67.58688 380.000
67.60683 384.000
67.62677 415.000
67.64672 423.000
67.66667 441.000
67.68661 417.000
67.70656 448.000
67.72651 430.000
67.74645 408.000
67.76640 449.000
67.78635 430.000
67.80630 467.000
67.82624 415.000
67.84619 482.000
67.86614 474.000
67.88608 476.000
67.90603 500.000
67.92598 475.000
67.94592 483.000
67.96587 481.000
67.98582 474.000
68.00576 497.000
68.02571 466.000
68.04566 450.000
68.06561 468.000
68.08555 480.000
68.10550 469.000
68.12545 466.000
68.14539 474.000
68.16534 417.000
68.18529 443.000
68.20523 410.000
68.22518 451.000
68.24513 416.000
68.26508 426.000
68.28502 410.000
68.30497 418.000
68.32492 427.000
68.34486 397.000
68.36481 356.000
68.38476 416.000
68.40470 400.000
68.42465 415.000
68.44460 369.000
68.46455 382.000
68.48449 361.000
68.50444 360.000
68.52439 395.000
68.54433 396.000
68.56428 376.000
68.58423 355.000
68.60417 389.000
68.62412 412.000
68.64407 374.000
68.66401 396.000
68.68396 382.000
68.70391 391.000
68.72386 342.000
68.74380 388.000
68.76375 366.000
68.78370 384.000
68.80364 385.000
68.82359 355.000
68.84354 357.000
68.86348 345.000
68.88343 362.000
68.90338 370.000
68.92333 358.000
68.94327 359.000
68.96322 344.000
68.98317 367.000
69.00311 361.000
69.02306 379.000
69.04301 351.000
69.06295 358.000
69.08290 368.000
69.10285 364.000
69.12279 356.000
69.14274 354.000
69.16269 346.000
69.18264 349.000
69.20258 369.000
69.22253 354.000
69.24248 372.000
69.26242 351.000
69.28237 317.000
69.30232 351.000
69.32226 362.000
69.34221 362.000
69.36216 377.000
69.38211 351.000
69.40205 347.000
69.42200 326.000
69.44195 392.000
69.46189 339.000
69.48184 362.000
69.50179 354.000
69.52173 341.000
69.54168 353.000
69.56163 350.000
69.58157 331.000
69.60152 344.000
69.62147 347.000
69.64142 366.000
69.66136 361.000
69.68131 317.000
69.70126 344.000
69.72120 361.000
69.74115 390.000
69.76110 351.000
69.78104 329.000
69.80099 330.000
69.82094 346.000
69.84089 342.000
69.86083 344.000
69.88078 372.000
69.90073 357.000
69.92067 335.000
69.94062 343.000
69.96057 307.000
69.98051 352.000
70.00046 344.000
70.02041 376.000
70.04035 360.000
70.06030 347.000
70.08025 305.000
70.10020 391.000
70.12014 323.000
70.14009 339.000
70.16004 318.000
70.17998 362.000
70.19993 362.000
70.21988 356.000
70.23982 349.000
70.25977 345.000
70.27972 353.000
70.29967 360.000
70.31961 312.000
70.33956 359.000
70.35951 337.000
70.37945 332.000
70.39940 367.000
70.41935 305.000
70.43929 329.000
70.45924 358.000
70.47919 342.000
70.49914 364.000
70.51908 388.000
70.53903 322.000
70.55898 361.000
70.57892 361.000
70.59887 342.000
70.61882 348.000
70.63876 389.000
70.65871 340.000
70.67866 332.000
70.69860 362.000
70.71855 377.000
70.73850 334.000
70.75845 337.000
70.77839 351.000
70.79834 312.000
70.81829 377.000
70.83823 337.000
70.85818 365.000
70.87813 340.000
70.89807 324.000
70.91802 349.000
70.93797 305.000
70.95792 337.000
70.97786 356.000
70.99781 374.000
71.01776 359.000
71.03770 351.000
71.05765 363.000
71.07760 371.000
71.09754 339.000
71.11749 346.000
71.13744 370.000
71.15738 345.000
71.17733 368.000
71.19728 380.000
71.21723 375.000
71.23717 334.000
71.25712 425.000
71.27707 373.000
71.29701 362.000
71.31696 349.000
71.33691 368.000
71.35685 394.000
71.37680 372.000
71.39675 402.000
71.41670 395.000
71.43664 364.000
71.45659 388.000
71.47654 378.000
71.49648 362.000
71.51643 374.000
71.53638 339.000
71.55632 371.000
71.57627 394.000
71.59622 375.000
71.61616 401.000
71.63611 403.000
71.65606 332.000
71.67601 355.000
71.69595 389.000
71.71590 352.000
71.73585 355.000
71.75579 380.000
71.77574 336.000
71.79569 406.000
71.81563 399.000
71.83558 342.000
71.85553 391.000
71.87548 344.000
71.89542 394.000
71.91537 379.000
71.93532 344.000
71.95526 374.000
71.97521 393.000
71.99516 413.000
72.01510 357.000
72.03505 388.000
72.05500 353.000
72.07495 405.000
72.09489 372.000
72.11484 383.000
72.13479 369.000
72.15473 397.000
72.17468 360.000
72.19463 370.000
72.21457 385.000
72.23452 392.000
72.25447 391.000
72.27441 420.000
72.29436 419.000
72.31431 407.000
72.33426 364.000
72.35420 393.000
72.37415 415.000
72.39410 416.000
72.41404 390.000
72.43399 391.000
72.45394 363.000
72.47388 380.000
72.49383 411.000
72.51378 374.000
72.53373 371.000
72.55367 372.000
72.57362 365.000
72.59357 387.000
72.61351 320.000
72.63346 390.000
72.65341 376.000
72.67335 350.000
72.69330 384.000
72.71325 370.000
72.73319 369.000
72.75314 368.000
72.77309 331.000
72.79304 329.000
72.81298 376.000
72.83293 332.000
72.85288 367.000
72.87282 396.000
72.89277 357.000
72.91272 349.000
72.93266 393.000
72.95261 324.000
72.97256 362.000
72.99251 327.000
73.01245 351.000
73.03240 371.000
73.05235 324.000
73.07229 374.000
73.09224 346.000
73.11219 373.000
73.13213 338.000
73.15208 324.000
73.17203 371.000
73.19197 346.000
73.21192 321.000
73.23187 349.000
73.25182 336.000
73.27176 360.000
73.29171 358.000
73.31166 373.000
73.33160 342.000
73.35155 353.000
73.37150 376.000
73.39144 344.000
73.41139 398.000
73.43134 365.000
73.45129 361.000
73.47123 353.000
73.49118 354.000
73.51113 360.000
73.53107 348.000
73.55102 409.000
73.57097 365.000
73.59091 350.000
73.61086 347.000
73.63081 382.000
73.65076 383.000
73.67070 370.000
73.69065 334.000
73.71060 354.000
73.73054 373.000
73.75049 351.000
73.77044 337.000
73.79038 361.000
73.81033 366.000
73.83028 343.000
73.85022 363.000
73.87017 336.000
73.89012 362.000
73.91007 404.000
73.93001 371.000
73.94996 369.000
73.96991 350.000
73.98985 392.000
74.00980 340.000
74.02975 369.000
74.04969 343.000
74.06964 392.000
74.08959 402.000
74.10954 373.000
74.12948 405.000
74.14943 418.000
74.16938 393.000
74.18932 374.000
74.20927 414.000
74.22922 380.000
74.24916 389.000
74.26911 370.000
74.28906 423.000
74.30900 399.000
74.32895 409.000
74.34890 408.000
74.36885 437.000
74.38879 430.000
74.40874 459.000
74.42869 489.000
74.44863 515.000
74.46858 483.000
74.48853 480.000
74.50847 438.000
74.52842 464.000
74.54837 452.000
74.56832 438.000
74.58826 462.000
74.60821 466.000
74.62816 501.000
74.64810 489.000
74.66805 494.000
74.68800 449.000
74.70794 498.000
74.72789 481.000
74.74784 475.000
74.76778 471.000
74.78773 484.000
74.80768 459.000
74.82763 477.000
74.84757 491.000
74.86752 493.000
74.88747 570.000
74.90741 545.000
74.92736 590.000
74.94731 649.000
74.96725 646.000
74.98720 632.000
75.00715 663.000
75.02710 633.000
75.04704 667.000
75.06699 703.000
75.08694 733.000
75.10688 702.000
75.12683 682.000
75.14678 696.000
75.16672 727.000
75.18667 698.000
75.20662 713.000
75.22657 668.000
75.24651 633.000
75.26646 648.000
75.28641 643.000
75.30635 640.000
75.32630 595.000
75.34625 610.000
75.36619 638.000
75.38614 567.000
75.40609 570.000
75.42603 586.000
75.44598 549.000
75.46593 513.000
75.48588 484.000
75.50582 467.000
75.52577 506.000
75.54572 470.000
75.56566 439.000
75.58561 475.000
75.60556 473.000
75.62550 449.000
75.64545 443.000
75.66540 440.000
75.68535 435.000
75.70529 432.000
75.72524 395.000
75.74519 437.000
75.76513 411.000
75.78508 365.000
75.80503 394.000
75.82497 392.000
75.84492 410.000
75.86487 402.000
75.88481 365.000
75.90476 387.000
75.92471 353.000
75.94466 349.000
75.96460 370.000
75.98455 361.000
76.00450 351.000
76.02444 333.000
76.04439 324.000
76.06434 361.000
76.08428 348.000
76.10423 367.000
76.12418 371.000
76.14413 377.000
76.16407 368.000
76.18402 360.000
76.20397 331.000
76.22391 371.000
76.24386 394.000
76.26381 378.000
76.28375 358.000
76.30370 372.000
76.32365 315.000
76.34359 387.000
76.36354 355.000
76.38349 365.000
76.40344 356.000
76.42338 357.000
76.44333 360.000
76.46328 365.000
76.48322 347.000
76.50317 339.000
76.52312 319.000
76.54306 318.000
76.56301 354.000
76.58296 349.000
76.60291 379.000
76.62285 334.000
76.64280 353.000
76.66275 365.000
76.68269 352.000
76.70264 357.000
76.72259 322.000
76.74253 361.000
76.76248 371.000
76.78243 346.000
76.80238 359.000
76.82232 371.000
76.84227 391.000
76.86222 348.000
76.88216 323.000
76.90211 375.000
76.92206 354.000
76.94200 338.000
76.96195 360.000
76.98190 385.000
77.00184 379.000
77.02179 333.000
77.04174 349.000
77.06169 343.000
77.08163 338.000
77.10158 340.000
77.12153 342.000
77.14147 353.000
77.16142 355.000
77.18137 341.000
77.20131 342.000
77.22126 369.000
77.24121 394.000
77.26116 344.000
77.28110 363.000
77.30105 364.000
77.32100 352.000
77.34094 344.000
77.36089 367.000
77.38084 377.000
77.40078 365.000
77.42073 360.000
77.44068 384.000
77.46062 348.000
77.48057 374.000
77.50052 343.000
77.52047 376.000
77.54041 373.000
77.56036 361.000
77.58031 357.000
77.60025 315.000
77.62020 336.000
77.64015 362.000
77.66009 339.000
77.68004 343.000
77.69999 327.000
77.71994 341.000
77.73988 353.000
77.75983 351.000
77.77978 354.000
77.79972 351.000
77.81967 359.000
77.83962 372.000
77.85956 344.000
77.87951 330.000
77.89946 374.000
77.91940 350.000
77.93935 359.000
77.95930 369.000
77.97925 381.000
77.99919 363.000
78.01914 313.000
78.03909 378.000
78.05903 355.000
78.07898 346.000
78.09893 333.000
78.11887 328.000
78.13882 336.000
78.15877 358.000
78.17872 377.000
78.19866 367.000
78.21861 383.000
78.23856 328.000
78.25850 378.000
78.27845 350.000
78.29840 378.000
78.31834 357.000
78.33829 370.000
78.35824 373.000
78.37819 352.000
78.39813 358.000
78.41808 331.000
78.43803 361.000
78.45797 359.000
78.47792 359.000
78.49787 347.000
78.51781 341.000
78.53776 375.000
78.55771 369.000
78.57765 388.000
78.59760 374.000
78.61755 388.000
78.63750 371.000
78.65744 367.000
78.67739 381.000
78.69734 349.000
78.71728 382.000
78.73723 398.000
78.75718 431.000
78.77712 392.000
78.79707 398.000
78.81702 390.000
78.83697 403.000
78.85691 460.000
78.87686 484.000
78.89681 457.000
78.91675 489.000
78.93670 532.000
78.95665 558.000
78.97659 581.000
78.99654 529.000
79.01649 566.000
79.03643 586.000
79.05638 562.000
79.07633 583.000
79.09628 563.000
79.11622 577.000
79.13617 555.000
79.15612 569.000
79.17606 563.000
79.19601 555.000
79.21596 517.000
79.23590 579.000
79.25585 552.000
79.27580 516.000
79.29575 511.000
79.31569 509.000
79.33564 486.000
79.35559 446.000
79.37553 463.000
79.39548 471.000
79.41543 448.000
79.43537 467.000
79.45532 448.000
79.47527 442.000
79.49521 406.000
79.51516 398.000
79.53511 426.000
79.55506 401.000
79.57500 410.000
79.59495 381.000
79.61490 393.000
79.63484 367.000
79.65479 373.000
79.67474 388.000
79.69468 394.000
79.71463 370.000
79.73458 364.000
79.75453 335.000
79.77447 358.000
79.79442 356.000
79.81437 369.000
79.83431 348.000
79.85426 345.000
79.87421 362.000
79.89415 382.000
79.91410 382.000
79.93405 350.000
79.95399 346.000
79.97394 334.000
79.99389 360.000
80.01384 341.000
80.03378 330.000
80.05373 364.000
80.07368 354.000
80.09362 354.000
80.11357 376.000
80.13352 387.000
80.15346 368.000
80.17341 374.000
80.19336 331.000
80.21331 360.000
80.23325 352.000
80.25320 378.000
80.27315 389.000
80.29309 359.000
80.31304 396.000
80.33299 432.000
80.35293 367.000
80.37288 367.000
80.39283 358.000
80.41278 355.000
80.43272 378.000
80.45267 371.000
80.47262 395.000
80.49256 362.000
80.51251 353.000
80.53246 361.000
80.55240 381.000
80.57235 345.000
80.59230 318.000
80.61224 355.000
80.63219 339.000
80.65214 347.000
80.67209 332.000
80.69203 357.000
80.71198 372.000
80.73193 342.000
80.75187 334.000
80.77182 343.000
80.79177 327.000
80.81171 346.000
80.83166 302.000
80.85161 350.000
80.87156 367.000
80.89150 331.000
80.91145 391.000
80.93140 344.000
80.95134 337.000
80.97129 348.000
80.99124 367.000
81.01118 317.000
81.03113 347.000
81.05108 335.000
81.07102 337.000
81.09097 356.000
81.11092 358.000
81.13087 328.000
81.15081 354.000
81.17076 367.000
81.19071 321.000
81.21065 371.000
81.23060 321.000
81.25055 332.000
81.27049 347.000
81.29044 328.000
81.31039 347.000
81.33034 375.000
81.35028 306.000
81.37023 346.000
81.39018 350.000
81.41012 356.000
81.43007 361.000
81.45002 321.000
81.46996 330.000
81.48991 380.000
81.50986 325.000
81.52980 315.000
81.54975 356.000
81.56970 341.000
81.58965 320.000
81.60959 364.000
81.62954 348.000
81.64949 356.000
81.66943 340.000
81.68938 373.000
81.70933 328.000
81.72927 352.000
81.74922 378.000
81.76917 373.000
81.78912 386.000
81.80906 373.000
81.82901 358.000
81.84896 334.000
81.86890 342.000
81.88885 383.000
81.90880 357.000
81.92874 339.000
81.94869 344.000
81.96864 339.000
81.98859 368.000
82.00853 339.000
82.02848 331.000
82.04843 328.000
82.06837 344.000
82.08832 324.000
82.10827 344.000
82.12821 367.000
82.14816 372.000
82.16811 348.000
82.18805 401.000
82.20800 353.000
82.22795 332.000
82.24790 324.000
82.26784 351.000
82.28779 384.000
82.30774 344.000
82.32768 362.000
82.34763 390.000
82.36758 410.000
82.38752 362.000
82.40747 400.000
82.42742 374.000
82.44737 361.000
82.46731 372.000
82.48726 372.000
82.50721 397.000
82.52715 400.000
82.54710 356.000
82.56705 399.000
82.58699 372.000
82.60694 402.000
82.62689 374.000
82.64683 389.000
82.66678 397.000
82.68673 368.000
82.70668 415.000
82.72662 377.000
82.74657 411.000
82.76652 373.000
82.78646 388.000
82.80641 348.000
82.82636 382.000
82.84630 363.000
82.86625 371.000
82.88620 378.000
82.90615 354.000
82.92609 388.000
82.94604 450.000
82.96599 366.000
82.98593 353.000
83.00588 412.000
83.02583 358.000
83.04577 386.000
83.06572 375.000
83.08567 387.000
83.10561 371.000
83.12556 365.000
83.14551 377.000
83.16546 401.000
83.18540 371.000
83.20535 365.000
83.22530 398.000
83.24524 357.000
83.26519 360.000
83.28514 358.000
83.30508 376.000
83.32503 373.000
83.34498 319.000
83.36493 376.000
83.38487 365.000
83.40482 372.000
83.42477 349.000
83.44471 351.000
83.46466 385.000
83.48461 345.000
83.50455 403.000
83.52450 418.000
83.54445 402.000
83.56440 368.000
83.58434 386.000
83.60429 332.000
83.62424 370.000
83.64418 376.000
83.66413 353.000
83.68408 371.000
83.70402 376.000
83.72397 411.000
83.74392 372.000
83.76386 390.000
83.78381 360.000
83.80376 401.000
83.82371 377.000
83.84365 397.000
83.86360 365.000
83.88355 361.000
83.90349 381.000
83.92344 365.000
83.94339 361.000
83.96333 346.000
83.98328 391.000
84.00323 353.000
84.02318 336.000
84.04312 346.000
84.06307 371.000
84.08302 357.000
84.10296 353.000
84.12291 348.000
84.14286 346.000
84.16280 358.000
84.18275 356.000
84.20270 332.000
84.22264 341.000
84.24259 348.000
84.26254 368.000
84.28249 356.000
84.30243 333.000
84.32238 336.000
84.34233 318.000
84.36227 329.000
84.38222 354.000
84.40217 353.000
84.42211 360.000
84.44206 359.000
84.46201 346.000
84.48196 369.000
84.50190 342.000
84.52185 361.000
84.54180 334.000
84.56174 376.000
84.58169 352.000
84.60164 342.000
84.62158 350.000
84.64153 334.000
84.66148 331.000
84.68142 322.000
84.70137 369.000
84.72132 333.000
84.74127 354.000
84.76121 367.000
84.78116 306.000
84.80111 349.000
84.82105 365.000
84.84100 341.000
84.86095 338.000
84.88089 362.000
84.90084 345.000
84.92079 302.000
84.94074 337.000
84.96068 370.000
84.98063 325.000
85.00058 350.000
85.02052 377.000
85.04047 333.000
85.06042 343.000
85.08036 352.000
85.10031 346.000
85.12026 370.000
85.14021 335.000
85.16015 333.000
85.18010 306.000
85.20005 328.000
85.21999 335.000
85.23994 345.000
85.25989 380.000
85.27983 359.000
85.29978 335.000
85.31973 341.000
85.33967 327.000
85.35962 371.000
85.37957 360.000
85.39952 362.000
85.41946 335.000
85.43941 315.000
85.45936 311.000
85.47930 347.000
85.49925 325.000
85.51920 342.000
85.53914 302.000
85.55909 348.000
85.57904 320.000
85.59899 376.000
85.61893 362.000
85.63888 335.000
85.65883 350.000
85.67877 327.000
85.69872 373.000
85.71867 338.000
85.73861 340.000
85.75856 346.000
85.77851 323.000
85.79845 331.000
85.81840 348.000
85.83835 389.000
85.85830 365.000
85.87824 321.000
85.89819 311.000
85.91814 358.000
85.93808 314.000
85.95803 349.000
85.97798 365.000
85.99792 346.000
86.01787 347.000
86.03782 333.000
86.05777 348.000
86.07771 315.000
86.09766 331.000
86.11761 317.000
86.13755 316.000
86.15750 363.000
86.17745 371.000
86.19739 358.000
86.21734 355.000
86.23729 341.000
86.25723 358.000
86.27718 377.000
86.29713 340.000
86.31708 339.000
86.33702 357.000
86.35697 351.000
86.37692 317.000
86.39686 334.000
86.41681 360.000
86.43676 366.000
86.45670 341.000
86.47665 371.000
86.49660 348.000
86.51655 329.000
86.53649 327.000
86.55644 364.000
86.57639 347.000
86.59633 351.000
86.61628 371.000
86.63623 329.000
86.65617 340.000
86.67612 385.000
86.69607 372.000
86.71602 364.000
86.73596 338.000
86.75591 351.000
86.77586 360.000
86.79580 356.000
86.81575 357.000
86.83570 340.000
86.85564 350.000
86.87559 319.000
86.89554 348.000
86.91548 331.000
86.93543 380.000
86.95538 351.000
86.97533 362.000
86.99527 371.000
87.01522 357.000
87.03517 354.000
87.05511 357.000
87.07506 356.000
87.09501 379.000
87.11495 344.000
87.13490 352.000
87.15485 337.000
87.17480 348.000
87.19474 366.000
87.21469 366.000
87.23464 358.000
87.25458 392.000
87.27453 371.000
87.29448 361.000
87.31442 373.000
87.33437 404.000
87.35432 398.000
87.37426 387.000
87.39421 399.000
87.41416 395.000
87.43411 376.000
87.45405 371.000
87.47400 368.000
87.49395 378.000
87.51389 365.000
87.53384 359.000
87.55379 377.000
87.57373 381.000
87.59368 353.000
87.61363 352.000
87.63358 379.000
87.65352 391.000
87.67347 375.000
87.69342 357.000
87.71336 371.000
87.73331 366.000
87.75326 333.000
87.77320 381.000
87.79315 353.000
87.81310 377.000
87.83304 349.000
87.85299 334.000
87.87294 381.000
87.89289 340.000
87.91283 350.000
87.93278 356.000
87.95273 349.000
87.97267 324.000
87.99262 339.000
88.01257 347.000
88.03251 344.000
88.05246 349.000
88.07241 350.000
88.09236 343.000
88.11230 372.000
88.13225 356.000
88.15220 354.000
88.17214 397.000
88.19209 331.000
88.21204 375.000
88.23198 332.000
88.25193 329.000
88.27188 323.000
88.29183 330.000
88.31177 340.000
88.33172 363.000
88.35167 337.000
88.37161 333.000
88.39156 359.000
88.41151 353.000
88.43145 347.000
88.45140 329.000
88.47135 369.000
88.49129 351.000
88.51124 358.000
88.53119 356.000
88.55114 352.000
88.57108 356.000
88.59103 376.000
88.61098 349.000
88.63092 355.000
88.65087 358.000
88.67082 332.000
88.69076 349.000
88.71071 352.000
88.73066 374.000
88.75061 364.000
88.77055 360.000
88.79050 328.000
88.81045 372.000
88.83039 372.000
88.85034 366.000
88.87029 335.000
88.89023 380.000
88.91018 359.000
88.93013 325.000
88.95007 335.000
88.97002 348.000
88.98997 307.000
89.00992 311.000
89.02986 348.000
89.04981 362.000
89.06976 339.000
89.08970 354.000
89.10965 342.000
89.12960 349.000
89.14954 331.000
89.16949 313.000
89.18944 373.000
89.20939 368.000
89.22933 367.000
89.24928 328.000
89.26923 333.000
89.28917 334.000
89.30912 335.000
89.32907 336.000
89.34901 356.000
89.36896 357.000
89.38891 347.000
89.40885 352.000
89.42880 351.000
89.44875 356.000
89.46870 385.000
89.48864 353.000
89.50859 371.000
89.52854 374.000
89.54848 393.000
89.56843 402.000
89.58838 367.000
89.60832 398.000
89.62827 368.000
89.64822 376.000
89.66817 380.000
89.68811 380.000
89.70806 380.000
89.72801 371.000
89.74795 373.000
89.76790 365.000
89.78785 378.000
89.80779 384.000
89.82774 410.000
89.84769 366.000
89.86764 388.000
89.88758 372.000
89.90753 372.000
89.92748 397.000
89.94742 383.000
89.96737 375.000
89.98732 364.000
90.00726 399.000
