10.00000 117.000
10.01995 80.000
10.03989 105.000
10.05984 93.000
10.07979 85.000
10.09973 92.000
10.11968 89.000
10.13963 88.000
10.15958 81.000
10.17952 73.000
10.19947 81.000
10.21942 90.000
10.23936 82.000
10.25931 86.000
10.27926 108.000
10.29920 95.000
10.31915 88.000
10.33910 93.000
10.35905 94.000
10.37899 91.000
10.39894 83.000
10.41889 88.000
10.43883 85.000
10.45878 90.000
10.47873 83.000
10.49867 95.000
10.51862 86.000
10.53857 85.000
10.55851 105.000
10.57846 90.000
10.59841 94.000
10.61836 89.000
10.63830 86.000
10.65825 74.000
10.67820 97.000
10.69814 95.000
10.71809 103.000
10.73804 90.000
10.75798 89.000
10.77793 92.000
10.79788 79.000
10.81783 69.000
10.83777 103.000
10.85772 81.000
10.87767 96.000
10.89761 84.000
10.91756 93.000
10.93751 89.000
10.95745 98.000
10.97740 91.000
10.99735 86.000
11.01730 91.000
11.03724 91.000
11.05719 103.000
11.07714 86.000
11.09708 92.000
11.11703 96.000
11.13698 97.000
11.15692 89.000
11.17687 103.000
11.19682 95.000
11.21676 88.000
11.23671 93.000
11.25666 78.000
11.27661 100.000
11.29655 92.000
11.31650 97.000
11.33645 104.000
11.35639 103.000
11.37634 75.000
11.39629 69.000
11.41623 108.000
11.43618 96.000
11.45613 95.000
11.47608 78.000
11.49602 106.000
11.51597 107.000
11.53592 83.000
11.55586 85.000
11.57581 90.000
11.59576 80.000
11.61570 84.000
11.63565 69.000
11.65560 82.000
11.67554 87.000
11.69549 77.000
11.71544 94.000
11.73539 104.000
11.75533 97.000
11.77528 89.000
11.79523 90.000
11.81517 100.000
11.83512 64.000
11.85507 82.000
11.87501 91.000
11.89496 114.000
11.91491 94.000
11.93486 85.000
11.95480 98.000
11.97475 76.000
11.99470 80.000
12.01464 80.000
12.03459 111.000
12.05454 71.000
12.07448 82.000
12.09443 89.000
12.11438 91.000
12.13432 92.000
12.15427 76.000
12.17422 78.000
12.19417 101.000
12.21411 94.000
12.23406 100.000
12.25401 75.000
12.27395 79.000
12.29390 91.000
12.31385 79.000
12.33379 97.000
12.35374 97.000
12.37369 83.000
12.39364 98.000
12.41358 75.000
12.43353 93.000
12.45348 105.000
12.47342 73.000
12.49337 100.000
12.51332 72.000
12.53326 75.000
12.55321 78.000
12.57316 112.000
12.59311 60.000
12.61305 99.000
12.63300 75.000
12.65295 79.000
12.67289 87.000
12.69284 85.000
12.71279 76.000
12.73273 86.000
12.75268 81.000
12.77263 87.000
12.79257 92.000
12.81252 77.000
12.83247 94.000
12.85242 103.000
12.87236 67.000
12.89231 80.000
12.91226 91.000
12.93220 87.000
12.95215 87.000
12.97210 89.000
12.99204 84.000
13.01199 106.000
13.03194 94.000
13.05189 79.000
13.07183 91.000
13.09178 97.000
13.11173 95.000
13.13167 74.000
13.15162 74.000
13.17157 88.000
13.19151 94.000
13.21146 67.000
13.23141 90.000
13.25135 87.000
13.27130 73.000
13.29125 82.000
13.31120 85.000
13.33114 75.000
13.35109 88.000
13.37104 102.000
13.39098 67.000
13.41093 75.000
13.43088 90.000
13.45082 93.000
13.47077 89.000
13.49072 95.000
13.51067 99.000
13.53061 80.000
13.55056 108.000
13.57051 88.000
13.59045 74.000
13.61040 88.000
13.63035 116.000
13.65029 78.000
13.67024 93.000
13.69019 80.000
13.71013 86.000
13.73008 78.000
13.75003 94.000
13.76998 88.000
13.78992 99.000
13.80987 86.000
13.82982 78.000
13.84976 97.000
13.86971 91.000
13.88966 91.000
13.90960 95.000
13.92955 97.000
13.94950 104.000
13.96945 105.000
13.98939 92.000
14.00934 92.000
14.02929 85.000
14.04923 83.000
14.06918 85.000
14.08913 91.000
14.10907 81.000
14.12902 95.000
14.14897 89.000
14.16892 91.000
14.18886 88.000
14.20881 92.000
14.22876 107.000
14.24870 95.000
14.26865 83.000
14.28860 115.000
14.30854 106.000
14.32849 85.000
14.34844 116.000
14.36838 100.000
14.38833 98.000
14.40828 87.000
14.42823 119.000
14.44817 84.000
14.46812 109.000
14.48807 108.000
14.50801 95.000
14.52796 91.000
14.54791 93.000
14.56785 81.000
14.58780 115.000
14.60775 79.000
14.62770 97.000
14.64764 93.000
14.66759 103.000
14.68754 102.000
14.70748 101.000
14.72743 94.000
14.74738 102.000
14.76732 92.000
14.78727 107.000
14.80722 113.000
14.82716 105.000
14.84711 101.000
14.86706 94.000
14.88701 107.000
14.90695 90.000
14.92690 102.000
14.94685 115.000
14.96679 108.000
14.98674 124.000
15.00669 116.000
15.02663 118.000
15.04658 94.000
15.06653 106.000
15.08648 112.000
15.10642 106.000
15.12637 140.000
15.14632 130.000
15.16626 160.000
15.18621 148.000
15.20616 159.000
15.22610 174.000
15.24605 159.000
15.26600 133.000
15.28594 134.000
15.30589 151.000
15.32584 143.000
15.34579 141.000
15.36573 166.000
15.38568 160.000
15.40563 161.000
15.42557 144.000
15.44552 150.000
15.46547 186.000
15.48541 174.000
15.50536 158.000
15.52531 220.000
15.54526 227.000
15.56520 198.000
15.58515 230.000
15.60510 273.000
15.62504 253.000
15.64499 308.000
15.66494 353.000
15.68488 468.000
15.70483 583.000
15.72478 800.000
15.74472 1205.000
15.76467 1842.000
15.78462 2613.000
15.80457 3782.000
15.82451 5557.000
15.84446 7767.000
15.86441 9652.000
15.88435 9628.000
15.90430 7964.000
15.92425 5409.000
15.94419 3196.000
15.96414 1671.000
15.98409 1092.000
16.00404 753.000
16.02398 798.000
16.04393 877.000
16.06388 1162.000
16.08382 1472.000
16.10377 1825.000
16.12372 2151.000
16.14366 2267.000
16.16361 2522.000
16.18356 2442.000
16.20351 2402.000
16.22345 2191.000
16.24340 1910.000
16.26335 1636.000
16.28329 1287.000
16.30324 987.000
16.32319 743.000
16.34313 588.000
16.36308 451.000
16.38303 391.000
16.40297 283.000
16.42292 218.000
16.44287 184.000
16.46282 158.000
16.48276 148.000
16.50271 142.000
16.52266 147.000
16.54260 138.000
16.56255 137.000
16.58250 132.000
16.60244 132.000
16.62239 131.000
16.64234 119.000
16.66229 95.000
16.68223 150.000
16.70218 143.000
16.72213 124.000
16.74207 129.000
16.76202 106.000
16.78197 123.000
16.80191 136.000
16.82186 112.000
16.84181 120.000
16.86175 118.000
16.88170 123.000
16.90165 113.000
16.92160 93.000
16.94154 109.000
16.96149 112.000
16.98144 103.000
17.00138 103.000
17.02133 88.000
17.04128 115.000
17.06122 104.000
17.08117 90.000
17.10112 94.000
17.12107 97.000
17.14101 114.000
17.16096 94.000
17.18091 100.000
17.20085 96.000
17.22080 113.000
17.24075 108.000
17.26069 91.000
17.28064 83.000
17.30059 96.000
17.32053 105.000
17.34048 96.000
17.36043 81.000
17.38038 78.000
17.40032 87.000
17.42027 97.000
17.44022 95.000
17.46016 105.000
17.48011 81.000
17.50006 79.000
17.52000 91.000
17.53995 94.000
17.55990 94.000
17.57985 80.000
17.59979 89.000
17.61974 92.000
17.63969 83.000
17.65963 101.000
17.67958 88.000
17.69953 96.000
17.71947 98.000
17.73942 98.000
17.75937 78.000
17.77932 83.000
17.79926 102.000
17.81921 94.000
17.83916 81.000
17.85910 90.000
17.87905 75.000
17.89900 85.000
17.91894 74.000
17.93889 104.000
17.95884 86.000
17.97878 90.000
17.99873 73.000
18.01868 75.000
18.03863 79.000
18.05857 93.000
18.07852 85.000
18.09847 75.000
18.11841 82.000
18.13836 83.000
18.15831 85.000
18.17825 87.000
18.19820 101.000
18.21815 92.000
18.23810 89.000
18.25804 110.000
18.27799 98.000
18.29794 106.000
18.31788 118.000
18.33783 119.000
18.35778 135.000
18.37772 136.000
18.39767 154.000
18.41762 145.000
18.43756 137.000
18.45751 100.000
18.47746 82.000
18.49741 100.000
18.51735 74.000
18.53730 86.000
18.55725 77.000
18.57719 77.000
18.59714 81.000
18.61709 91.000
18.63703 67.000
18.65698 82.000
18.67693 94.000
18.69688 66.000
18.71682 71.000
18.73677 86.000
18.75672 86.000
18.77666 83.000
18.79661 86.000
18.81656 91.000
18.83650 76.000
18.85645 88.000
18.87640 87.000
18.89634 86.000
18.91629 88.000
18.93624 89.000
18.95619 78.000
18.97613 92.000
18.99608 89.000
19.01603 80.000
19.03597 75.000
19.05592 92.000
19.07587 79.000
19.09581 82.000
19.11576 96.000
19.13571 95.000
19.15566 83.000
19.17560 68.000
19.19555 89.000
19.21550 83.000
19.23544 79.000
19.25539 102.000
19.27534 78.000
19.29528 69.000
19.31523 73.000
19.33518 86.000
19.35513 91.000
19.37507 103.000
19.39502 86.000
19.41497 95.000
19.43491 79.000
19.45486 86.000
19.47481 87.000
19.49475 70.000
19.51470 86.000
19.53465 78.000
19.55459 95.000
19.57454 87.000
19.59449 84.000
19.61444 70.000
19.63438 79.000
19.65433 82.000
19.67428 72.000
19.69422 75.000
19.71417 68.000
19.73412 84.000
19.75406 69.000
19.77401 80.000
19.79396 80.000
19.81391 89.000
19.83385 89.000
19.85380 76.000
19.87375 89.000
19.89369 71.000
19.91364 85.000
19.93359 90.000
19.95353 84.000
19.97348 85.000
19.99343 94.000
20.01337 95.000
20.03332 76.000
20.05327 71.000
20.07322 82.000
20.09316 84.000
20.11311 89.000
20.13306 86.000
20.15300 82.000
20.17295 84.000
20.19290 86.000
20.21284 86.000
20.23279 89.000
20.25274 85.000
20.27269 85.000
20.29263 79.000
20.31258 96.000
20.33253 79.000
20.35247 88.000
20.37242 81.000
20.39237 75.000
20.41231 102.000
20.43226 77.000
20.45221 86.000
20.47215 92.000
20.49210 89.000
20.51205 89.000
20.53200 85.000
20.55194 103.000
20.57189 87.000
20.59184 87.000
20.61178 86.000
20.63173 74.000
20.65168 89.000
20.67162 85.000
20.69157 119.000
20.71152 93.000
20.73147 94.000
20.75141 112.000
20.77136 123.000
20.79131 138.000
20.81125 168.000
20.83120 204.000
20.85115 212.000
20.87109 242.000
20.89104 267.000
20.91099 266.000
20.93094 264.000
20.95088 260.000
20.97083 214.000
20.99078 205.000
21.01072 181.000
21.03067 171.000
21.05062 149.000
21.07056 134.000
21.09051 122.000
21.11046 103.000
21.13040 116.000
21.15035 78.000
21.17030 96.000
21.19025 112.000
21.21019 88.000
21.23014 96.000
21.25009 91.000
21.27003 80.000
21.28998 94.000
21.30993 99.000
21.32987 83.000
21.34982 90.000
21.36977 93.000
21.38972 87.000
21.40966 83.000
21.42961 90.000
21.44956 89.000
21.46950 70.000
21.48945 77.000
21.50940 91.000
21.52934 78.000
21.54929 95.000
21.56924 101.000
21.58918 97.000
21.60913 85.000
21.62908 84.000
21.64903 84.000
21.66897 78.000
21.68892 74.000
21.70887 80.000
21.72881 70.000
21.74876 78.000
21.76871 84.000
21.78865 78.000
21.80860 94.000
21.82855 81.000
21.84850 89.000
21.86844 85.000
21.88839 71.000
21.90834 66.000
21.92828 72.000
21.94823 86.000
21.96818 83.000
21.98812 74.000
22.00807 87.000
22.02802 90.000
22.04796 80.000
22.06791 78.000
22.08786 92.000
22.10781 92.000
22.12775 88.000
22.14770 88.000
22.16765 91.000
22.18759 94.000
22.20754 73.000
22.22749 98.000
22.24743 89.000
22.26738 79.000
22.28733 81.000
22.30728 82.000
22.32722 85.000
22.34717 87.000
22.36712 111.000
22.38706 70.000
22.40701 91.000
22.42696 87.000
22.44690 91.000
22.46685 85.000
22.48680 81.000
22.50675 86.000
22.52669 82.000
22.54664 83.000
22.56659 90.000
22.58653 101.000
22.60648 74.000
22.62643 84.000
22.64637 72.000
22.66632 79.000
22.68627 85.000
22.70621 95.000
22.72616 76.000
22.74611 97.000
22.76606 95.000
22.78600 117.000
22.80595 88.000
22.82590 91.000
22.84584 88.000
22.86579 82.000
22.88574 75.000
22.90568 101.000
22.92563 85.000
22.94558 98.000
22.96553 66.000
22.98547 85.000
23.00542 92.000
23.02537 81.000
23.04531 83.000
23.06526 79.000
23.08521 71.000
23.10515 86.000
23.12510 87.000
23.14505 89.000
23.16499 71.000
23.18494 85.000
23.20489 78.000
23.22484 100.000
23.24478 82.000
23.26473 81.000
23.28468 71.000
23.30462 90.000
23.32457 71.000
23.34452 83.000
23.36446 76.000
23.38441 105.000
23.40436 77.000
23.42431 73.000
23.44425 81.000
23.46420 81.000
23.48415 105.000
23.50409 80.000
23.52404 93.000
23.54399 74.000
23.56393 78.000
23.58388 86.000
23.60383 94.000
23.62377 79.000
23.64372 75.000
23.66367 83.000
23.68362 83.000
23.70356 86.000
23.72351 82.000
23.74346 94.000
23.76340 69.000
23.78335 85.000
23.80330 66.000
23.82324 71.000
23.84319 80.000
23.86314 89.000
23.88309 85.000
23.90303 85.000
23.92298 100.000
23.94293 78.000
23.96287 71.000
23.98282 84.000
24.00277 77.000
24.02271 82.000
24.04266 92.000
24.06261 85.000
24.08256 91.000
24.10250 65.000
24.12245 77.000
24.14240 68.000
24.16234 74.000
24.18229 85.000
24.20224 79.000
24.22218 87.000
24.24213 90.000
24.26208 90.000
24.28202 75.000
24.30197 84.000
24.32192 79.000
24.34187 94.000
24.36181 74.000
24.38176 82.000
24.40171 72.000
24.42165 81.000
24.44160 90.000
24.46155 79.000
24.48149 78.000
24.50144 82.000
24.52139 100.000
24.54134 87.000
24.56128 87.000
24.58123 98.000
24.60118 103.000
24.62112 91.000
24.64107 96.000
24.66102 76.000
24.68096 76.000
24.70091 92.000
24.72086 86.000
24.74080 73.000
24.76075 81.000
24.78070 82.000
24.80065 94.000
24.82059 97.000
24.84054 99.000
24.86049 97.000
24.88043 75.000
24.90038 99.000
24.92033 91.000
24.94027 79.000
24.96022 87.000
24.98017 89.000
25.00012 123.000
25.02006 93.000
25.04001 95.000
25.05996 91.000
25.07990 88.000
25.09985 88.000
25.11980 87.000
25.13974 111.000
25.15969 99.000
25.17964 81.000
25.19958 99.000
25.21953 92.000
25.23948 94.000
25.25943 104.000
25.27937 83.000
25.29932 84.000
25.31927 96.000
25.33921 80.000
25.35916 78.000
25.37911 95.000
25.39905 88.000
25.41900 69.000
25.43895 86.000
25.45890 83.000
25.47884 97.000
25.49879 94.000
25.51874 77.000
25.53868 97.000
25.55863 81.000
25.57858 61.000
25.59852 107.000
25.61847 71.000
25.63842 96.000
25.65837 86.000
25.67831 83.000
25.69826 92.000
25.71821 88.000
25.73815 78.000
25.75810 97.000
25.77805 80.000
25.79799 87.000
25.81794 94.000
25.83789 90.000
25.85783 94.000
25.87778 83.000
25.89773 93.000
25.91768 90.000
25.93762 82.000
25.95757 105.000
25.97752 95.000
25.99746 104.000
26.01741 100.000
26.03736 94.000
26.05730 106.000
26.07725 111.000
26.09720 82.000
26.11715 94.000
26.13709 104.000
26.15704 105.000
26.17699 89.000
26.19693 92.000
26.21688 100.000
26.23683 100.000
26.25677 90.000
26.27672 82.000
26.29667 101.000
26.31661 117.000
26.33656 87.000
26.35651 91.000
26.37646 75.000
26.39640 87.000
26.41635 92.000
26.43630 70.000
26.45624 113.000
26.47619 76.000
26.49614 90.000
26.51608 100.000
26.53603 90.000
26.55598 98.000
26.57593 104.000
26.59587 73.000
26.61582 91.000
26.63577 82.000
26.65571 79.000
26.67566 76.000
26.69561 89.000
26.71555 93.000
26.73550 79.000
26.75545 68.000
26.77539 94.000
26.79534 84.000
26.81529 95.000
26.83524 106.000
26.85518 101.000
26.87513 77.000
26.89508 108.000
26.91502 75.000
26.93497 108.000
26.95492 106.000
26.97486 108.000
26.99481 97.000
27.01476 91.000
27.03471 93.000
27.05465 101.000
27.07460 93.000
27.09455 91.000
27.11449 93.000
27.13444 85.000
27.15439 93.000
27.17433 90.000
27.19428 92.000
27.21423 94.000
27.23417 91.000
27.25412 82.000
27.27407 83.000
27.29402 95.000
27.31396 85.000
27.33391 92.000
27.35386 81.000
27.37380 82.000
27.39375 82.000
27.41370 96.000
27.43364 97.000
27.45359 81.000
27.47354 94.000
27.49349 80.000
27.51343 84.000
27.53338 88.000
27.55333 95.000
27.57327 83.000
27.59322 92.000
27.61317 79.000
27.63311 95.000
27.65306 93.000
27.67301 84.000
27.69296 74.000
27.71290 81.000
27.73285 95.000
27.75280 87.000
27.77274 94.000
27.79269 88.000
27.81264 85.000
27.83258 79.000
27.85253 82.000
27.87248 101.000
27.89242 100.000
27.91237 96.000
27.93232 84.000
27.95227 107.000
27.97221 93.000
27.99216 99.000
28.01211 87.000
28.03205 95.000
28.05200 97.000
28.07195 97.000
28.09189 102.000
28.11184 89.000
28.13179 87.000
28.15174 89.000
28.17168 81.000
28.19163 79.000
28.21158 96.000
28.23152 95.000
28.25147 86.000
28.27142 100.000
28.29136 119.000
28.31131 97.000
28.33126 93.000
28.35120 106.000
28.37115 80.000
28.39110 107.000
28.41105 85.000
28.43099 102.000
28.45094 89.000
28.47089 104.000
28.49083 78.000
28.51078 97.000
28.53073 86.000
28.55067 110.000
28.57062 86.000
28.59057 98.000
28.61052 89.000
28.63046 77.000
28.65041 81.000
28.67036 91.000
28.69030 83.000
28.71025 115.000
28.73020 103.000
28.75014 96.000
28.77009 91.000
28.79004 84.000
28.80998 88.000
28.82993 93.000
28.84988 102.000
28.86983 93.000
28.88977 104.000
28.90972 92.000
28.92967 75.000
28.94961 98.000
28.96956 96.000
28.98951 97.000
29.00945 105.000
29.02940 93.000
29.04935 100.000
29.06930 80.000
29.08924 95.000
29.10919 83.000
29.12914 89.000
29.14908 105.000
29.16903 80.000
29.18898 92.000
29.20892 97.000
29.22887 104.000
29.24882 109.000
29.26877 107.000
29.28871 98.000
29.30866 125.000
29.32861 97.000
29.34855 135.000
29.36850 98.000
29.38845 106.000
29.40839 140.000
29.42834 130.000
29.44829 121.000
29.46823 115.000
29.48818 125.000
29.50813 117.000
29.52808 94.000
29.54802 97.000
29.56797 102.000
29.58792 112.000
29.60786 89.000
29.62781 105.000
29.64776 96.000
29.66770 85.000
29.68765 106.000
29.70760 104.000
29.72755 115.000
29.74749 93.000
29.76744 96.000
29.78739 80.000
29.80733 101.000
29.82728 87.000
29.84723 99.000
29.86717 92.000
29.88712 78.000
29.90707 109.000
29.92701 107.000
29.94696 85.000
29.96691 106.000
29.98686 123.000
30.00680 108.000
30.02675 97.000
30.04670 134.000
30.06664 117.000
30.08659 122.000
30.10654 131.000
30.12648 156.000
30.14643 150.000
30.16638 156.000
30.18633 181.000
30.20627 183.000
30.22622 220.000
30.24617 229.000
30.26611 223.000
30.28606 190.000
30.30601 200.000
30.32595 146.000
30.34590 137.000
30.36585 131.000
30.38579 124.000
30.40574 117.000
30.42569 109.000
30.44564 106.000
30.46558 109.000
30.48553 103.000
30.50548 98.000
30.52542 115.000
30.54537 101.000
30.56532 99.000
30.58526 94.000
30.60521 104.000
30.62516 97.000
30.64511 90.000
30.66505 110.000
30.68500 129.000
30.70495 107.000
30.72489 95.000
30.74484 111.000
30.76479 99.000
30.78473 104.000
30.80468 81.000
30.82463 110.000
30.84458 97.000
30.86452 103.000
30.88447 86.000
30.90442 83.000
30.92436 89.000
30.94431 104.000
30.96426 93.000
30.98420 112.000
31.00415 96.000
31.02410 92.000
31.04404 95.000
31.06399 95.000
31.08394 78.000
31.10389 84.000
31.12383 113.000
31.14378 105.000
31.16373 108.000
31.18367 97.000
31.20362 99.000
31.22357 101.000
31.24351 115.000
31.26346 93.000
31.28341 98.000
31.30336 90.000
31.32330 97.000
31.34325 100.000
31.36320 114.000
31.38314 103.000
31.40309 81.000
31.42304 104.000
31.44298 94.000
31.46293 85.000
31.48288 101.000
31.50282 88.000
31.52277 84.000
31.54272 103.000
31.56267 115.000
31.58261 105.000
31.60256 102.000
31.62251 86.000
31.64245 128.000
31.66240 109.000
31.68235 112.000
31.70229 105.000
31.72224 124.000
31.74219 123.000
31.76214 129.000
31.78208 148.000
31.80203 161.000
31.82198 157.000
31.84192 175.000
31.86187 198.000
31.88182 220.000
31.90176 239.000
31.92171 279.000
31.94166 289.000
31.96160 375.000
31.98155 465.000
32.00150 602.000
32.02145 724.000
32.04139 862.000
32.06134 820.000
32.08129 658.000
32.10123 675.000
32.12118 614.000
32.14113 467.000
32.16107 412.000
32.18102 301.000
32.20097 272.000
32.22092 213.000
32.24086 170.000
32.26081 146.000
32.28076 122.000
32.30070 132.000
32.32065 130.000
32.34060 115.000
32.36054 144.000
32.38049 128.000
32.40044 135.000
32.42039 152.000
32.44033 167.000
32.46028 170.000
32.48023 182.000
32.50017 200.000
32.52012 213.000
32.54007 222.000
32.56001 290.000
32.57996 242.000
32.59991 261.000
32.61985 270.000
32.63980 277.000
32.65975 257.000
32.67970 288.000
32.69964 283.000
32.71959 299.000
32.73954 237.000
32.75948 257.000
32.77943 233.000
32.79938 237.000
32.81932 229.000
32.83927 221.000
32.85922 200.000
32.87917 186.000
32.89911 180.000
32.91906 162.000
32.93901 157.000
32.95895 167.000
32.97890 142.000
32.99885 156.000
33.01879 128.000
33.03874 127.000
33.05869 118.000
33.07863 113.000
33.09858 99.000
33.11853 112.000
33.13848 97.000
33.15842 102.000
33.17837 102.000
33.19832 117.000
33.21826 126.000
33.23821 109.000
33.25816 111.000
33.27810 106.000
33.29805 129.000
33.31800 106.000
33.33795 100.000
33.35789 100.000
33.37784 98.000
33.39779 117.000
33.41773 93.000
33.43768 91.000
33.45763 94.000
33.47757 118.000
33.49752 94.000
33.51747 104.000
33.53741 102.000
33.55736 107.000
33.57731 103.000
33.59726 96.000
33.61720 91.000
33.63715 108.000
33.65710 81.000
33.67704 76.000
33.69699 97.000
33.71694 102.000
33.73688 109.000
33.75683 116.000
33.77678 98.000
33.79673 94.000
33.81667 100.000
33.83662 124.000
33.85657 87.000
33.87651 100.000
33.89646 112.000
33.91641 118.000
33.93635 116.000
33.95630 113.000
33.97625 102.000
33.99620 116.000
34.01614 112.000
34.03609 121.000
34.05604 109.000
34.07598 89.000
34.09593 115.000
34.11588 112.000
34.13582 120.000
34.15577 102.000
34.17572 118.000
34.19566 127.000
34.21561 133.000
34.23556 154.000
34.25551 137.000
34.27545 147.000
34.29540 185.000
34.31535 191.000
34.33529 211.000
34.35524 216.000
34.37519 236.000
34.39513 263.000
34.41508 305.000
34.43503 285.000
34.45498 278.000
34.47492 268.000
34.49487 267.000
34.51482 251.000
34.53476 235.000
34.55471 215.000
34.57466 233.000
34.59460 208.000
34.61455 168.000
34.63450 160.000
34.65444 175.000
34.67439 165.000
34.69434 156.000
34.71429 132.000
34.73423 156.000
34.75418 137.000
34.77413 119.000
34.79407 150.000
34.81402 113.000
34.83397 110.000
34.85391 125.000
34.87386 135.000
34.89381 141.000
34.91376 127.000
34.93370 142.000
34.95365 119.000
34.97360 133.000
34.99354 139.000
35.01349 147.000
35.03344 118.000
35.05338 156.000
35.07333 117.000
35.09328 118.000
35.11322 120.000
35.13317 113.000
35.15312 130.000
35.17307 153.000
35.19301 128.000
35.21296 139.000
35.23291 174.000
35.25285 167.000
35.27280 176.000
35.29275 202.000
35.31269 215.000
35.33264 232.000
35.35259 237.000
35.37254 258.000
35.39248 365.000
35.41243 365.000
35.43238 540.000
35.45232 557.000
35.47227 634.000
35.49222 722.000
35.51216 808.000
35.53211 875.000
35.55206 909.000
35.57201 1003.000
35.59195 1021.000
35.61190 1065.000
35.63185 963.000
35.65179 913.000
35.67174 841.000
35.69169 727.000
35.71163 601.000
35.73158 551.000
35.75153 444.000
35.77147 356.000
35.79142 318.000
35.81137 268.000
35.83132 259.000
35.85126 216.000
35.87121 160.000
35.89116 191.000
35.91110 179.000
35.93105 149.000
35.95100 143.000
35.97094 169.000
35.99089 152.000
36.01084 155.000
36.03079 128.000
36.05073 131.000
36.07068 144.000
36.09063 138.000
36.11057 125.000
36.13052 129.000
36.15047 122.000
36.17041 165.000
36.19036 115.000
36.21031 139.000
36.23025 119.000
36.25020 124.000
36.27015 121.000
36.29010 125.000
36.31004 118.000
36.32999 109.000
36.34994 112.000
36.36988 128.000
36.38983 133.000
36.40978 154.000
36.42972 134.000
36.44967 145.000
36.46962 120.000
36.48957 123.000
36.50951 134.000
36.52946 134.000
36.54941 153.000
36.56935 148.000
36.58930 154.000
36.60925 167.000
36.62919 163.000
36.64914 173.000
36.66909 197.000
36.68903 187.000
36.70898 220.000
36.72893 267.000
36.74888 266.000
36.76882 289.000
36.78877 341.000
36.80872 322.000
36.82866 410.000
36.84861 419.000
36.86856 412.000
36.88850 405.000
36.90845 370.000
36.92840 379.000
36.94835 324.000
36.96829 269.000
36.98824 280.000
37.00819 211.000
37.02813 227.000
37.04808 215.000
37.06803 174.000
37.08797 151.000
37.10792 166.000
37.12787 150.000
37.14781 169.000
37.16776 159.000
37.18771 186.000
37.20766 180.000
37.22760 181.000
37.24755 151.000
37.26750 172.000
37.28744 168.000
37.30739 155.000
37.32734 143.000
37.34728 138.000
37.36723 151.000
37.38718 111.000
37.40713 129.000
37.42707 135.000
37.44702 111.000
37.46697 120.000
37.48691 93.000
37.50686 113.000
37.52681 97.000
37.54675 96.000
37.56670 105.000
37.58665 88.000
37.60660 102.000
37.62654 107.000
37.64649 115.000
37.66644 100.000
37.68638 103.000
37.70633 104.000
37.72628 101.000
37.74622 133.000
37.76617 104.000
37.78612 120.000
37.80606 93.000
37.82601 120.000
37.84596 104.000
37.86591 117.000
37.88585 103.000
37.90580 91.000
37.92575 113.000
37.94569 111.000
37.96564 114.000
37.98559 130.000
38.00553 108.000
38.02548 128.000
38.04543 87.000
38.06538 116.000
38.08532 100.000
38.10527 110.000
38.12522 111.000
38.14516 102.000
38.16511 120.000
38.18506 115.000
38.20500 117.000
38.22495 114.000
38.24490 104.000
38.26484 108.000
38.28479 126.000
38.30474 107.000
38.32469 117.000
38.34463 122.000
38.36458 109.000
38.38453 117.000
38.40447 127.000
38.42442 126.000
38.44437 143.000
38.46431 153.000
38.48426 131.000
38.50421 138.000
38.52416 150.000
38.54410 149.000
38.56405 161.000
38.58400 171.000
38.60394 198.000
38.62389 174.000
38.64384 220.000
38.66378 224.000
38.68373 268.000
38.70368 273.000
38.72362 263.000
38.74357 299.000
38.76352 269.000
38.78347 294.000
38.80341 244.000
38.82336 280.000
38.84331 248.000
38.86325 240.000
38.88320 260.000
38.90315 259.000
38.92309 284.000
38.94304 276.000
38.96299 283.000
38.98294 308.000
39.00288 372.000
39.02283 395.000
39.04278 506.000
39.06272 605.000
39.08267 681.000
39.10262 684.000
39.12256 770.000
39.14251 749.000
39.16246 701.000
39.18241 678.000
39.20235 672.000
39.22230 607.000
39.24225 539.000
39.26219 521.000
39.28214 431.000
39.30209 389.000
39.32203 291.000
39.34198 269.000
39.36193 269.000
39.38187 222.000
39.40182 213.000
39.42177 213.000
39.44172 193.000
39.46166 171.000
39.48161 154.000
39.50156 143.000
39.52150 152.000
39.54145 149.000
39.56140 134.000
39.58134 121.000
39.60129 107.000
39.62124 126.000
39.64119 139.000
39.66113 119.000
39.68108 116.000
39.70103 123.000
39.72097 121.000
39.74092 128.000
39.76087 131.000
39.78081 101.000
39.80076 108.000
39.82071 107.000
39.84065 112.000
39.86060 109.000
39.88055 123.000
39.90050 122.000
39.92044 110.000
39.94039 107.000
39.96034 89.000
39.98028 97.000
40.00023 110.000
40.02018 116.000
40.04012 110.000
40.06007 109.000
40.08002 91.000
40.09997 95.000
40.11991 111.000
40.13986 110.000
40.15981 98.000
40.17975 101.000
40.19970 100.000
40.21965 102.000
40.23959 104.000
40.25954 91.000
40.27949 102.000
40.29943 102.000
40.31938 111.000
40.33933 106.000
40.35928 110.000
40.37922 103.000
40.39917 104.000
40.41912 92.000
40.43906 103.000
40.45901 118.000
40.47896 100.000
40.49890 104.000
40.51885 109.000
40.53880 89.000
40.55875 97.000
40.57869 111.000
40.59864 93.000
40.61859 85.000
40.63853 114.000
40.65848 124.000
40.67843 123.000
40.69837 98.000
40.71832 107.000
40.73827 99.000
40.75822 94.000
40.77816 108.000
40.79811 109.000
40.81806 124.000
40.83800 111.000
40.85795 101.000
40.87790 95.000
40.89784 105.000
40.91779 122.000
40.93774 111.000
40.95768 114.000
40.97763 113.000
40.99758 146.000
41.01753 125.000
41.03747 110.000
41.05742 130.000
41.07737 95.000
41.09731 128.000
41.11726 106.000
41.13721 115.000
41.15715 139.000
41.17710 110.000
41.19705 104.000
41.21700 135.000
41.23694 122.000
41.25689 120.000
41.27684 121.000
41.29678 160.000
41.31673 161.000
41.33668 150.000
41.35662 172.000
41.37657 195.000
41.39652 159.000
41.41646 209.000
41.43641 265.000
41.45636 259.000
41.47631 321.000
41.49625 415.000
41.51620 543.000
41.53615 657.000
41.55609 815.000
41.57604 1002.000
41.59599 1257.000
41.61593 1515.000
41.63588 1506.000
41.65583 1665.000
41.67578 1445.000
41.69572 1297.000
41.71567 1132.000
41.73562 1008.000
41.75556 917.000
41.77551 743.000
41.79546 640.000
41.81540 515.000
41.83535 398.000
41.85530 299.000
41.87524 254.000
41.89519 206.000
41.91514 212.000
41.93509 153.000
41.95503 163.000
41.97498 141.000
41.99493 139.000
42.01487 152.000
42.03482 141.000
42.05477 135.000
42.07471 141.000
42.09466 120.000
42.11461 141.000
42.13456 125.000
42.15450 117.000
42.17445 117.000
42.19440 142.000
42.21434 121.000
42.23429 123.000
42.25424 116.000
42.27418 122.000
42.29413 139.000
42.31408 118.000
42.33403 122.000
42.35397 137.000
42.37392 137.000
42.39387 131.000
42.41381 109.000
42.43376 116.000
42.45371 129.000
42.47365 112.000
42.49360 120.000
42.51355 108.000
42.53349 103.000
42.55344 130.000
42.57339 106.000
42.59334 109.000
42.61328 129.000
42.63323 131.000
42.65318 120.000
42.67312 116.000
42.69307 114.000
42.71302 134.000
42.73296 135.000
42.75291 111.000
42.77286 116.000
42.79281 116.000
42.81275 107.000
42.83270 115.000
42.85265 132.000
42.87259 122.000
42.89254 104.000
42.91249 137.000
42.93243 149.000
42.95238 146.000
42.97233 130.000
42.99227 147.000
43.01222 119.000
43.03217 153.000
43.05212 165.000
43.07206 173.000
43.09201 168.000
43.11196 194.000
43.13190 220.000
43.15185 269.000
43.17180 302.000
43.19174 332.000
43.21169 383.000
43.23164 394.000
43.25159 408.000
43.27153 465.000
43.29148 441.000
43.31143 406.000
43.33137 375.000
43.35132 382.000
43.37127 355.000
43.39121 336.000
43.41116 324.000
43.43111 266.000
43.45105 214.000
43.47100 196.000
43.49095 143.000
43.51090 174.000
43.53084 162.000
43.55079 159.000
43.57074 157.000
43.59068 131.000
43.61063 133.000
43.63058 120.000
43.65052 131.000
43.67047 127.000
43.69042 105.000
43.71037 113.000
43.73031 112.000
43.75026 116.000
43.77021 102.000
43.79015 110.000
43.81010 109.000
43.83005 103.000
43.84999 85.000
43.86994 102.000
43.88989 107.000
43.90984 90.000
43.92978 106.000
43.94973 117.000
43.96968 92.000
43.98962 110.000
44.00957 97.000
44.02952 110.000
44.04946 97.000
44.06941 95.000
44.08936 89.000
44.10930 101.000
44.12925 89.000
44.14920 89.000
44.16915 102.000
44.18909 97.000
44.20904 78.000
44.22899 89.000
44.24893 80.000
44.26888 96.000
44.28883 95.000
44.30877 117.000
44.32872 111.000
44.34867 92.000
44.36862 81.000
44.38856 98.000
44.40851 108.000
44.42846 90.000
44.44840 92.000
44.46835 96.000
44.48830 105.000
44.50824 97.000
44.52819 102.000
44.54814 102.000
44.56808 120.000
44.58803 100.000
44.60798 105.000
44.62793 104.000
44.64787 88.000
44.66782 81.000
44.68777 100.000
44.70771 95.000
44.72766 105.000
44.74761 109.000
44.76755 99.000
44.78750 121.000
44.80745 108.000
44.82740 140.000
44.84734 104.000
44.86729 134.000
44.88724 137.000
44.90718 135.000
44.92713 145.000
44.94708 149.000
44.96702 136.000
44.98697 146.000
45.00692 149.000
45.02686 129.000
45.04681 142.000
45.06676 130.000
45.08671 136.000
45.10665 125.000
45.12660 130.000
45.14655 104.000
45.16649 95.000
45.18644 89.000
45.20639 95.000
45.22633 106.000
45.24628 93.000
45.26623 92.000
45.28618 101.000
45.30612 93.000
45.32607 88.000
45.34602 88.000
45.36596 100.000
45.38591 91.000
45.40586 88.000
45.42580 80.000
45.44575 93.000
45.46570 88.000
45.48565 101.000
45.50559 102.000
45.52554 105.000
45.54549 97.000
45.56543 94.000
45.58538 94.000
45.60533 98.000
45.62527 91.000
45.64522 91.000
45.66517 92.000
45.68511 103.000
45.70506 102.000
45.72501 90.000
45.74496 84.000
45.76490 96.000
45.78485 90.000
45.80480 85.000
45.82474 84.000
45.84469 90.000
45.86464 85.000
45.88458 93.000
45.90453 122.000
45.92448 85.000
45.94443 74.000
45.96437 96.000
45.98432 96.000
46.00427 89.000
46.02421 89.000
46.04416 91.000
46.06411 101.000
46.08405 78.000
46.10400 99.000
46.12395 89.000
46.14389 94.000
46.16384 99.000
46.18379 96.000
46.20374 85.000
46.22368 90.000
46.24363 89.000
46.26358 81.000
46.28352 92.000
46.30347 88.000
46.32342 101.000
46.34336 82.000
46.36331 113.000
46.38326 87.000
46.40321 93.000
46.42315 106.000
46.44310 91.000
46.46305 99.000
46.48299 94.000
46.50294 87.000
46.52289 102.000
46.54283 82.000
46.56278 110.000
46.58273 109.000
46.60267 99.000
46.62262 95.000
46.64257 85.000
46.66252 98.000
46.68246 86.000
46.70241 75.000
46.72236 84.000
46.74230 83.000
46.76225 92.000
46.78220 102.000
46.80214 103.000
46.82209 126.000
46.84204 94.000
46.86199 90.000
46.88193 93.000
46.90188 92.000
46.92183 94.000
46.94177 96.000
46.96172 95.000
46.98167 86.000
47.00161 95.000
47.02156 103.000
47.04151 85.000
47.06146 87.000
47.08140 81.000
47.10135 99.000
47.12130 92.000
47.14124 90.000
47.16119 110.000
47.18114 95.000
47.20108 89.000
47.22103 114.000
47.24098 106.000
47.26092 101.000
47.28087 103.000
47.30082 95.000
47.32077 85.000
47.34071 102.000
47.36066 114.000
47.38061 100.000
47.40055 103.000
47.42050 103.000
47.44045 87.000
47.46039 102.000
47.48034 105.000
47.50029 82.000
47.52024 79.000
47.54018 107.000
47.56013 98.000
47.58008 105.000
47.60002 96.000
47.61997 110.000
47.63992 83.000
47.65986 104.000
47.67981 114.000
47.69976 84.000
47.71970 100.000
47.73965 81.000
47.75960 107.000
47.77955 94.000
47.79949 105.000
47.81944 101.000
47.83939 90.000
47.85933 110.000
47.87928 103.000
47.89923 114.000
47.91917 91.000
47.93912 102.000
47.95907 128.000
47.97902 113.000
47.99896 121.000
48.01891 107.000
48.03886 128.000
48.05880 93.000
48.07875 108.000
48.09870 120.000
48.11864 98.000
48.13859 112.000
48.15854 129.000
48.17848 129.000
48.19843 123.000
48.21838 119.000
48.23833 163.000
48.25827 162.000
48.27822 165.000
48.29817 155.000
48.31811 168.000
48.33806 168.000
48.35801 176.000
48.37795 179.000
48.39790 207.000
48.41785 256.000
48.43780 293.000
48.45774 343.000
48.47769 450.000
48.49764 489.000
48.51758 552.000
48.53753 603.000
48.55748 659.000
48.57742 726.000
48.59737 673.000
48.61732 646.000
48.63726 611.000
48.65721 600.000
48.67716 638.000
48.69711 572.000
48.71705 499.000
48.73700 476.000
48.75695 449.000
48.77689 385.000
48.79684 331.000
48.81679 293.000
48.83673 249.000
48.85668 234.000
48.87663 221.000
48.89658 208.000
48.91652 222.000
48.93647 200.000
48.95642 163.000
48.97636 156.000
48.99631 169.000
49.01626 157.000
49.03620 151.000
49.05615 120.000
49.07610 120.000
49.09605 125.000
49.11599 107.000
49.13594 125.000
49.15589 105.000
49.17583 113.000
49.19578 119.000
49.21573 117.000
49.23567 107.000
49.25562 120.000
49.27557 114.000
49.29551 106.000
49.31546 111.000
49.33541 113.000
49.35536 135.000
49.37530 124.000
49.39525 117.000
49.41520 101.000
49.43514 130.000
49.45509 113.000
49.47504 125.000
49.49498 108.000
49.51493 111.000
49.53488 118.000
49.55483 119.000
49.57477 95.000
49.59472 101.000
49.61467 117.000
49.63461 126.000
49.65456 118.000
49.67451 104.000
49.69445 118.000
49.71440 99.000
49.73435 97.000
49.75429 101.000
49.77424 96.000
49.79419 96.000
49.81414 100.000
49.83408 103.000
49.85403 102.000
49.87398 103.000
49.89392 91.000
49.91387 116.000
49.93382 85.000
49.95376 91.000
49.97371 111.000
49.99366 98.000
50.01361 89.000
50.03355 86.000
50.05350 90.000
50.07345 93.000
50.09339 117.000
50.11334 103.000
50.13329 102.000
50.15323 104.000
50.17318 95.000
50.19313 79.000
50.21307 91.000
50.23302 96.000
50.25297 88.000
50.27292 87.000
50.29286 89.000
50.31281 97.000
50.33276 92.000
50.35270 97.000
50.37265 82.000
50.39260 114.000
50.41254 119.000
50.43249 81.000
50.45244 86.000
50.47239 112.000
50.49233 92.000
50.51228 103.000
50.53223 81.000
50.55217 87.000
50.57212 88.000
50.59207 81.000
50.61201 102.000
50.63196 81.000
50.65191 95.000
50.67186 81.000
50.69180 106.000
50.71175 92.000
50.73170 82.000
50.75164 90.000
50.77159 84.000
50.79154 91.000
50.81148 92.000
50.83143 83.000
50.85138 92.000
50.87132 76.000
50.89127 96.000
50.91122 104.000
50.93117 86.000
50.95111 84.000
50.97106 97.000
50.99101 80.000
51.01095 96.000
51.03090 80.000
51.05085 81.000
51.07079 88.000
51.09074 95.000
51.11069 94.000
51.13064 97.000
51.15058 92.000
51.17053 97.000
51.19048 92.000
51.21042 97.000
51.23037 101.000
51.25032 96.000
51.27026 96.000
51.29021 96.000
51.31016 96.000
51.33010 94.000
51.35005 89.000
51.37000 116.000
51.38995 84.000
51.40989 78.000
51.42984 97.000
51.44979 76.000
51.46973 94.000
51.48968 82.000
51.50963 90.000
51.52957 83.000
51.54952 94.000
51.56947 82.000
51.58942 82.000
51.60936 84.000
51.62931 81.000
51.64926 74.000
51.66920 92.000
51.68915 83.000
51.70910 114.000
51.72904 76.000
51.74899 98.000
51.76894 95.000
51.78888 88.000
51.80883 84.000
51.82878 74.000
51.84873 88.000
51.86867 92.000
51.88862 107.000
51.90857 80.000
51.92851 87.000
51.94846 107.000
51.96841 79.000
51.98835 100.000
52.00830 89.000
52.02825 93.000
52.04820 95.000
52.06814 92.000
52.08809 96.000
52.10804 95.000
52.12798 100.000
52.14793 109.000
52.16788 104.000
52.18782 96.000
52.20777 83.000
52.22772 104.000
52.24767 99.000
52.26761 100.000
52.28756 97.000
52.30751 97.000
52.32745 107.000
52.34740 92.000
52.36735 105.000
52.38729 88.000
52.40724 100.000
52.42719 100.000
52.44713 94.000
52.46708 89.000
52.48703 84.000
52.50698 106.000
52.52692 121.000
52.54687 74.000
52.56682 114.000
52.58676 95.000
52.60671 109.000
52.62666 102.000
52.64660 99.000
52.66655 135.000
52.68650 99.000
52.70645 101.000
52.72639 110.000
52.74634 121.000
52.76629 129.000
52.78623 147.000
52.80618 130.000
52.82613 142.000
52.84607 207.000
52.86602 189.000
52.88597 233.000
52.90591 213.000
52.92586 246.000
52.94581 236.000
52.96576 238.000
52.98570 244.000
53.00565 252.000
53.02560 292.000
53.04554 239.000
53.06549 214.000
53.08544 230.000
53.10538 229.000
53.12533 200.000
53.14528 201.000
53.16523 179.000
53.18517 159.000
53.20512 161.000
53.22507 152.000
53.24501 146.000
53.26496 140.000
53.28491 137.000
53.30485 138.000
53.32480 113.000
53.34475 127.000
53.36469 117.000
53.38464 119.000
53.40459 126.000
53.42454 109.000
53.44448 124.000
53.46443 113.000
53.48438 105.000
53.50432 101.000
53.52427 111.000
53.54422 95.000
53.56416 101.000
53.58411 125.000
53.60406 109.000
53.62401 112.000
53.64395 97.000
53.66390 101.000
53.68385 108.000
53.70379 117.000
53.72374 120.000
53.74369 125.000
53.76363 133.000
53.78358 104.000
53.80353 109.000
53.82348 99.000
53.84342 111.000
53.86337 99.000
53.88332 121.000
53.90326 115.000
53.92321 95.000
53.94316 101.000
53.96310 100.000
53.98305 97.000
54.00300 88.000
54.02294 103.000
54.04289 80.000
54.06284 106.000
54.08279 82.000
54.10273 82.000
54.12268 106.000
54.14263 94.000
54.16257 103.000
54.18252 100.000
54.20247 82.000
54.22241 94.000
54.24236 75.000
54.26231 90.000
54.28226 93.000
54.30220 102.000
54.32215 90.000
54.34210 85.000
54.36204 90.000
54.38199 116.000
54.40194 87.000
54.42188 95.000
54.44183 100.000
54.46178 107.000
54.48172 105.000
54.50167 92.000
54.52162 97.000
54.54157 79.000
54.56151 87.000
54.58146 91.000
54.60141 85.000
54.62135 114.000
54.64130 96.000
54.66125 83.000
54.68119 122.000
54.70114 72.000
54.72109 96.000
54.74104 87.000
54.76098 90.000
54.78093 80.000
54.80088 71.000
54.82082 97.000
54.84077 96.000
54.86072 83.000
54.88066 103.000
54.90061 99.000
54.92056 101.000
54.94050 81.000
54.96045 98.000
54.98040 93.000
55.00035 86.000
55.02029 79.000
55.04024 76.000
55.06019 75.000
55.08013 97.000
55.10008 99.000
55.12003 89.000
55.13997 91.000
55.15992 107.000
55.17987 90.000
55.19982 94.000
55.21976 85.000
55.23971 89.000
55.25966 85.000
55.27960 104.000
55.29955 100.000
55.31950 96.000
55.33944 82.000
55.35939 95.000
55.37934 77.000
55.39929 75.000
55.41923 95.000
55.43918 91.000
55.45913 80.000
55.47907 78.000
55.49902 89.000
55.51897 82.000
55.53891 82.000
55.55886 102.000
55.57881 105.000
55.59875 83.000
55.61870 107.000
55.63865 94.000
55.65860 77.000
55.67854 88.000
55.69849 93.000
55.71844 91.000
55.73838 89.000
55.75833 89.000
55.77828 94.000
55.79822 103.000
55.81817 94.000
55.83812 90.000
55.85807 93.000
55.87801 76.000
55.89796 91.000
55.91791 103.000
55.93785 96.000
55.95780 87.000
55.97775 91.000
55.99769 104.000
56.01764 89.000
56.03759 104.000
56.05753 84.000
56.07748 97.000
56.09743 100.000
56.11738 95.000
56.13732 82.000
56.15727 82.000
56.17722 91.000
56.19716 102.000
56.21711 88.000
56.23706 108.000
56.25700 103.000
56.27695 95.000
56.29690 110.000
56.31685 109.000
56.33679 95.000
56.35674 77.000
56.37669 111.000
56.39663 91.000
56.41658 93.000
56.43653 109.000
56.45647 87.000
56.47642 85.000
56.49637 94.000
56.51631 82.000
56.53626 95.000
56.55621 111.000
56.57616 113.000
56.59610 99.000
56.61605 94.000
56.63600 103.000
56.65594 114.000
56.67589 100.000
56.69584 111.000
56.71578 96.000
56.73573 94.000
56.75568 103.000
56.77563 92.000
56.79557 131.000
56.81552 96.000
56.83547 93.000
56.85541 108.000
56.87536 128.000
56.89531 120.000
56.91525 112.000
56.93520 104.000
56.95515 107.000
56.97510 121.000
56.99504 125.000
57.01499 111.000
57.03494 120.000
57.05488 111.000
57.07483 138.000
57.09478 140.000
57.11472 132.000
57.13467 141.000
57.15462 166.000
57.17456 162.000
57.19451 157.000
57.21446 177.000
57.23441 177.000
57.25435 171.000
57.27430 198.000
57.29425 185.000
57.31419 198.000
57.33414 206.000
57.35409 215.000
57.37403 211.000
57.39398 196.000
57.41393 210.000
57.43388 263.000
57.45382 268.000
57.47377 277.000
57.49372 283.000
57.51366 288.000
57.53361 256.000
57.55356 259.000
57.57350 302.000
57.59345 286.000
57.61340 316.000
57.63334 301.000
57.65329 256.000
57.67324 280.000
57.69319 262.000
57.71313 248.000
57.73308 247.000
57.75303 242.000
57.77297 239.000
57.79292 219.000
57.81287 224.000
57.83281 215.000
57.85276 192.000
57.87271 157.000
57.89266 152.000
57.91260 170.000
57.93255 146.000
57.95250 129.000
57.97244 115.000
57.99239 138.000
58.01234 112.000
58.03228 102.000
58.05223 108.000
58.07218 107.000
58.09212 124.000
58.11207 97.000
58.13202 106.000
58.15197 112.000
58.17191 103.000
58.19186 106.000
58.21181 136.000
58.23175 108.000
58.25170 115.000
58.27165 97.000
58.29159 103.000
58.31154 127.000
58.33149 103.000
58.35144 112.000
58.37138 111.000
58.39133 124.000
58.41128 106.000
58.43122 97.000
58.45117 112.000
58.47112 108.000
58.49106 110.000
58.51101 99.000
58.53096 108.000
58.55090 101.000
58.57085 104.000
58.59080 103.000
58.61075 108.000
58.63069 107.000
58.65064 85.000
58.67059 100.000
58.69053 101.000
58.71048 99.000
58.73043 94.000
58.75037 110.000
58.77032 107.000
58.79027 90.000
58.81022 84.000
58.83016 84.000
58.85011 100.000
58.87006 89.000
58.89000 78.000
58.90995 105.000
58.92990 103.000
58.94984 96.000
58.96979 95.000
58.98974 80.000
59.00969 107.000
59.02963 98.000
59.04958 95.000
59.06953 97.000
59.08947 93.000
59.10942 98.000
59.12937 85.000
59.14931 113.000
59.16926 86.000
59.18921 91.000
59.20915 96.000
59.22910 97.000
59.24905 90.000
59.26900 91.000
59.28894 96.000
59.30889 78.000
59.32884 85.000
59.34878 104.000
59.36873 89.000
59.38868 89.000
59.40862 95.000
59.42857 93.000
59.44852 99.000
59.46847 81.000
59.48841 95.000
59.50836 96.000
59.52831 103.000
59.54825 82.000
59.56820 90.000
59.58815 100.000
59.60809 84.000
59.62804 84.000
59.64799 95.000
59.66793 98.000
59.68788 111.000
59.70783 81.000
59.72778 77.000
59.74772 88.000
59.76767 97.000
59.78762 73.000
59.80756 88.000
59.82751 79.000
59.84746 76.000
59.86740 84.000
59.88735 99.000
59.90730 95.000
59.92725 109.000
59.94719 94.000
59.96714 105.000
59.98709 86.000
60.00703 107.000
60.02698 102.000
60.04693 106.000
60.06687 90.000
60.08682 108.000
60.10677 83.000
60.12671 78.000
60.14666 87.000
60.16661 96.000
60.18656 93.000
60.20650 99.000
60.22645 96.000
60.24640 88.000
60.26634 98.000
60.28629 77.000
60.30624 96.000
60.32618 84.000
60.34613 79.000
60.36608 92.000
60.38603 98.000
60.40597 105.000
60.42592 109.000
60.44587 86.000
60.46581 96.000
60.48576 92.000
60.50571 93.000
60.52565 86.000
60.54560 80.000
60.56555 95.000
60.58550 83.000
60.60544 86.000
60.62539 86.000
60.64534 94.000
60.66528 99.000
60.68523 105.000
60.70518 87.000
60.72512 100.000
60.74507 108.000
60.76502 97.000
60.78496 103.000
60.80491 106.000
60.82486 98.000
60.84481 95.000
60.86475 111.000
60.88470 103.000
60.90465 98.000
60.92459 97.000
60.94454 81.000
60.96449 88.000
60.98443 84.000
61.00438 98.000
61.02433 107.000
61.04428 110.000
61.06422 86.000
61.08417 91.000
61.10412 122.000
61.12406 119.000
61.14401 88.000
61.16396 124.000
61.18390 117.000
61.20385 92.000
61.22380 118.000
61.24374 98.000
61.26369 125.000
61.28364 106.000
61.30359 105.000
61.32353 119.000
61.34348 118.000
61.36343 131.000
61.38337 118.000
61.40332 126.000
61.42327 123.000
61.44321 178.000
61.46316 145.000
61.48311 158.000
61.50306 179.000
61.52300 149.000
61.54295 153.000
61.56290 197.000
61.58284 183.000
61.60279 176.000
61.62274 175.000
61.64268 217.000
61.66263 240.000
61.68258 246.000
61.70252 232.000
61.72247 298.000
61.74242 272.000
61.76237 281.000
61.78231 305.000
61.80226 323.000
61.82221 317.000
61.84215 342.000
61.86210 321.000
61.88205 353.000
61.90199 418.000
61.92194 399.000
61.94189 322.000
61.96184 339.000
61.98178 333.000
62.00173 338.000
62.02168 330.000
62.04162 280.000
62.06157 272.000
62.08152 238.000
62.10146 265.000
62.12141 239.000
62.14136 218.000
62.16131 199.000
62.18125 192.000
62.20120 162.000
62.22115 151.000
62.24109 151.000
62.26104 133.000
62.28099 126.000
62.30093 142.000
62.32088 149.000
62.34083 147.000
62.36077 146.000
62.38072 136.000
62.40067 131.000
62.42062 136.000
62.44056 138.000
62.46051 134.000
62.48046 141.000
62.50040 152.000
62.52035 151.000
62.54030 141.000
62.56024 138.000
62.58019 161.000
62.60014 156.000
62.62009 165.000
62.64003 153.000
62.65998 163.000
62.67993 158.000
62.69987 181.000
62.71982 188.000
62.73977 233.000
62.75971 219.000
62.77966 236.000
62.79961 215.000
62.81955 244.000
62.83950 217.000
62.85945 254.000
62.87940 274.000
62.89934 324.000
62.91929 283.000
62.93924 288.000
62.95918 303.000
62.97913 284.000
62.99908 302.000
63.01902 297.000
63.03897 292.000
63.05892 317.000
63.07887 303.000
63.09881 274.000
63.11876 301.000
63.13871 298.000
63.15865 324.000
63.17860 277.000
63.19855 253.000
63.21849 256.000
63.23844 231.000
63.25839 232.000
63.27833 200.000
63.29828 156.000
63.31823 169.000
63.33818 198.000
63.35812 172.000
63.37807 150.000
63.39802 136.000
63.41796 160.000
63.43791 139.000
63.45786 149.000
63.47780 133.000
63.49775 143.000
63.51770 156.000
63.53765 145.000
63.55759 132.000
63.57754 154.000
63.59749 140.000
63.61743 189.000
63.63738 164.000
63.65733 184.000
63.67727 197.000
63.69722 212.000
63.71717 220.000
63.73712 217.000
63.75706 206.000
63.77701 185.000
63.79696 201.000
63.81690 207.000
63.83685 212.000
63.85680 221.000
63.87674 214.000
63.89669 222.000
63.91664 190.000
63.93658 190.000
63.95653 185.000
63.97648 192.000
63.99643 188.000
64.01637 154.000
64.03632 170.000
64.05627 175.000
64.07621 157.000
64.09616 171.000
64.11611 185.000
64.13605 162.000
64.15600 134.000
64.17595 141.000
64.19590 155.000
64.21584 145.000
64.23579 134.000
64.25574 117.000
64.27568 145.000
64.29563 125.000
64.31558 130.000
64.33552 117.000
64.35547 132.000
64.37542 122.000
64.39536 107.000
64.41531 101.000
64.43526 124.000
64.45521 101.000
64.47515 112.000
64.49510 95.000
64.51505 103.000
64.53499 103.000
64.55494 102.000
64.57489 100.000
64.59483 105.000
64.61478 104.000
64.63473 116.000
64.65468 100.000
64.67462 110.000
64.69457 104.000
64.71452 118.000
64.73446 105.000
64.75441 109.000
64.77436 98.000
64.79430 94.000
64.81425 85.000
64.83420 93.000
64.85414 97.000
64.87409 94.000
64.89404 100.000
64.91399 106.000
64.93393 96.000
64.95388 109.000
64.97383 99.000
64.99377 102.000
65.01372 103.000
65.03367 97.000
65.05361 100.000
65.07356 99.000
65.09351 93.000
65.11346 116.000
65.13340 107.000
65.15335 121.000
65.17330 120.000
65.19324 99.000
65.21319 113.000
65.23314 117.000
65.25308 117.000
65.27303 129.000
65.29298 117.000
65.31293 146.000
65.33287 122.000
65.35282 140.000
65.37277 135.000
65.39271 144.000
65.41266 149.000
65.43261 156.000
65.45255 187.000
65.47250 187.000
65.49245 164.000
65.51239 199.000
65.53234 176.000
65.55229 175.000
65.57224 201.000
65.59218 200.000
65.61213 194.000
65.63208 226.000
65.65202 187.000
65.67197 219.000
65.69192 193.000
65.71186 177.000
65.73181 183.000
65.75176 153.000
65.77171 184.000
65.79165 166.000
65.81160 157.000
65.83155 155.000
65.85149 155.000
65.87144 158.000
65.89139 138.000
65.91133 148.000
65.93128 140.000
65.95123 162.000
65.97117 160.000
65.99112 187.000
66.01107 140.000
66.03102 195.000
66.05096 174.000
66.07091 167.000
66.09086 183.000
66.11080 201.000
66.13075 201.000
66.15070 207.000
66.17064 212.000
66.19059 193.000
66.21054 154.000
66.23049 198.000
66.25043 208.000
66.27038 214.000
66.29033 190.000
66.31027 187.000
66.33022 192.000
66.35017 162.000
66.37011 195.000
66.39006 172.000
66.41001 156.000
66.42995 166.000
66.44990 190.000
66.46985 181.000
66.48980 151.000
66.50974 154.000
66.52969 129.000
66.54964 154.000
66.56958 163.000
66.58953 139.000
66.60948 126.000
66.62942 153.000
66.64937 128.000
66.66932 128.000
66.68927 113.000
66.70921 114.000
66.72916 123.000
66.74911 142.000
66.76905 127.000
66.78900 131.000
66.80895 121.000
66.82889 143.000
66.84884 170.000
66.86879 139.000
66.88874 139.000
66.90868 137.000
66.92863 138.000
66.94858 171.000
66.96852 135.000
66.98847 160.000
67.00842 151.000
67.02836 174.000
67.04831 128.000
67.06826 156.000
67.08820 146.000
67.10815 134.000
67.12810 149.000
67.14805 142.000
67.16799 124.000
67.18794 124.000
67.20789 133.000
67.22783 134.000
67.24778 120.000
67.26773 107.000
67.28767 134.000
67.30762 109.000
67.32757 102.000
67.34752 109.000
67.36746 101.000
67.38741 102.000
67.40736 99.000
67.42730 119.000
67.44725 116.000
67.46720 111.000
67.48714 117.000
67.50709 109.000
67.52704 141.000
67.54698 122.000
67.56693 127.000
67.58688 121.000
67.60683 156.000
67.62677 116.000
67.64672 140.000
67.66667 126.000
67.68661 158.000
67.70656 146.000
67.72651 127.000
67.74645 147.000
67.76640 140.000
67.78635 148.000
67.80630 150.000
67.82624 157.000
67.84619 128.000
67.86614 161.000
67.88608 136.000
67.90603 164.000
67.92598 144.000
67.94592 149.000
67.96587 184.000
67.98582 149.000
68.00576 151.000
68.02571 158.000
68.04566 147.000
68.06561 128.000
68.08555 174.000
68.10550 140.000
68.12545 143.000
68.14539 136.000
68.16534 159.000
68.18529 143.000
68.20523 133.000
68.22518 155.000
68.24513 136.000
68.26508 151.000
68.28502 133.000
68.30497 122.000
68.32492 126.000
68.34486 130.000
68.36481 116.000
68.38476 128.000
68.40470 135.000
68.42465 108.000
68.44460 123.000
68.46455 119.000
68.48449 101.000
68.50444 129.000
68.52439 108.000
68.54433 112.000
68.56428 126.000
68.58423 98.000
68.60417 115.000
68.62412 103.000
68.64407 122.000
68.66401 104.000
68.68396 91.000
68.70391 111.000
68.72386 82.000
68.74380 92.000
68.76375 116.000
68.78370 95.000
68.80364 103.000
68.82359 102.000
68.84354 102.000
68.86348 132.000
68.88343 85.000
68.90338 103.000
68.92333 91.000
68.94327 105.000
68.96322 95.000
68.98317 101.000
69.00311 107.000
69.02306 90.000
69.04301 91.000
69.06295 100.000
69.08290 91.000
69.10285 115.000
69.12279 91.000
69.14274 89.000
69.16269 84.000
69.18264 85.000
69.20258 100.000
69.22253 92.000
69.24248 77.000
69.26242 85.000
69.28237 89.000
69.30232 85.000
69.32226 88.000
69.34221 105.000
69.36216 82.000
69.38211 91.000
69.40205 90.000
69.42200 98.000
69.44195 91.000
69.46189 86.000
69.48184 91.000
69.50179 78.000
69.52173 108.000
69.54168 91.000
69.56163 87.000
69.58157 96.000
69.60152 82.000
69.62147 112.000
69.64142 93.000
69.66136 98.000
69.68131 98.000
69.70126 96.000
69.72120 77.000
69.74115 90.000
69.76110 107.000
69.78104 86.000
69.80099 76.000
69.82094 97.000
69.84089 102.000
69.86083 96.000
69.88078 75.000
69.90073 87.000
69.92067 88.000
69.94062 95.000
69.96057 99.000
69.98051 103.000
70.00046 94.000
70.02041 96.000
70.04035 78.000
70.06030 92.000
70.08025 89.000
70.10020 92.000
70.12014 87.000
70.14009 91.000
70.16004 85.000
70.17998 91.000
70.19993 90.000
70.21988 90.000
70.23982 81.000
70.25977 74.000
70.27972 82.000
70.29967 76.000
70.31961 84.000
70.33956 90.000
70.35951 86.000
70.37945 88.000
70.39940 94.000
70.41935 86.000
70.43929 92.000
70.45924 92.000
70.47919 98.000
70.49914 75.000
70.51908 89.000
70.53903 95.000
70.55898 109.000
70.57892 94.000
70.59887 75.000
70.61882 89.000
70.63876 89.000
70.65871 93.000
70.67866 100.000
70.69860 94.000
70.71855 77.000
70.73850 101.000
70.75845 89.000
70.77839 97.000
70.79834 75.000
70.81829 86.000
70.83823 99.000
70.85818 83.000
70.87813 84.000
70.89807 99.000
70.91802 111.000
70.93797 104.000
70.95792 103.000
70.97786 98.000
70.99781 91.000
71.01776 90.000
71.03770 82.000
71.05765 103.000
71.07760 94.000
71.09754 101.000
71.11749 90.000
71.13744 76.000
71.15738 102.000
71.17733 84.000
71.19728 80.000
71.21723 79.000
71.23717 105.000
71.25712 91.000
71.27707 85.000
71.29701 91.000
71.31696 87.000
71.33691 91.000
71.35685 96.000
71.37680 83.000
71.39675 99.000
71.41670 92.000
71.43664 76.000
71.45659 90.000
71.47654 66.000
71.49648 91.000
71.51643 80.000
71.53638 92.000
71.55632 89.000
71.57627 85.000
71.59622 92.000
71.61616 90.000
71.63611 105.000
71.65606 99.000
71.67601 84.000
71.69595 96.000
71.71590 87.000
71.73585 87.000
71.75579 91.000
71.77574 104.000
71.79569 91.000
71.81563 97.000
71.83558 84.000
71.85553 78.000
71.87548 93.000
71.89542 81.000
71.91537 81.000
71.93532 109.000
71.95526 73.000
71.97521 101.000
71.99516 70.000
72.01510 84.000
72.03505 78.000
72.05500 97.000
72.07495 103.000
72.09489 100.000
72.11484 101.000
72.13479 95.000
72.15473 90.000
72.17468 87.000
72.19463 83.000
72.21457 101.000
72.23452 92.000
72.25447 92.000
72.27441 91.000
72.29436 92.000
72.31431 92.000
72.33426 103.000
72.35420 107.000
72.37415 94.000
72.39410 122.000
72.41404 100.000
72.43399 119.000
72.45394 123.000
72.47388 116.000
72.49383 110.000
72.51378 90.000
72.53373 112.000
72.55367 121.000
72.57362 127.000
72.59357 119.000
72.61351 127.000
72.63346 128.000
72.65341 128.000
72.67335 154.000
72.69330 123.000
72.71325 131.000
72.73319 145.000
72.75314 145.000
72.77309 136.000
72.79304 189.000
72.81298 166.000
72.83293 174.000
72.85288 160.000
72.87282 155.000
72.89277 181.000
72.91272 180.000
72.93266 157.000
72.95261 181.000
72.97256 145.000
72.99251 165.000
73.01245 182.000
73.03240 190.000
73.05235 155.000
73.07229 166.000
73.09224 195.000
73.11219 167.000
73.13213 156.000
73.15208 179.000
73.17203 168.000
73.19197 150.000
73.21192 175.000
73.23187 181.000
73.25182 158.000
73.27176 160.000
73.29171 154.000
73.31166 177.000
73.33160 149.000
73.35155 174.000
73.37150 161.000
73.39144 166.000
73.41139 167.000
73.43134 135.000
73.45129 147.000
73.47123 152.000
73.49118 136.000
73.51113 136.000
73.53107 133.000
73.55102 128.000
73.57097 117.000
73.59091 133.000
73.61086 130.000
73.63081 134.000
73.65076 134.000
73.67070 105.000
73.69065 134.000
73.71060 132.000
73.73054 107.000
73.75049 113.000
73.77044 135.000
73.79038 103.000
73.81033 120.000
73.83028 102.000
73.85022 104.000
73.87017 113.000
73.89012 104.000
73.91007 96.000
73.93001 102.000
73.94996 92.000
73.96991 104.000
73.98985 93.000
74.00980 86.000
74.02975 109.000
74.04969 120.000
74.06964 90.000
74.08959 88.000
74.10954 105.000
74.12948 120.000
74.14943 96.000
74.16938 111.000
74.18932 101.000
74.20927 93.000
74.22922 103.000
74.24916 127.000
74.26911 97.000
74.28906 112.000
74.30900 121.000
74.32895 85.000
74.34890 107.000
74.36885 103.000
74.38879 115.000
74.40874 117.000
74.42869 118.000
74.44863 111.000
74.46858 116.000
74.48853 118.000
74.50847 107.000
74.52842 108.000
74.54837 107.000
74.56832 112.000
74.58826 114.000
74.60821 99.000
74.62816 115.000
74.64810 127.000
74.66805 109.000
74.68800 108.000
74.70794 104.000
74.72789 124.000
74.74784 106.000
74.76778 103.000
74.78773 124.000
74.80768 106.000
74.82763 110.000
74.84757 123.000
74.86752 112.000
74.88747 103.000
74.90741 120.000
74.92736 120.000
74.94731 111.000
74.96725 106.000
74.98720 103.000
75.00715 112.000
75.02710 118.000
75.04704 124.000
75.06699 113.000
75.08694 127.000
75.10688 110.000
75.12683 127.000
75.14678 142.000
75.16672 134.000
75.18667 133.000
75.20662 135.000
75.22657 137.000
75.24651 144.000
75.26646 119.000
75.28641 123.000
75.30635 131.000
75.32630 119.000
75.34625 128.000
75.36619 140.000
75.38614 113.000
75.40609 108.000
75.42603 121.000
75.44598 113.000
75.46593 122.000
75.48588 127.000
75.50582 104.000
75.52577 127.000
75.54572 114.000
75.56566 101.000
75.58561 120.000
75.60556 123.000
75.62550 100.000
75.64545 92.000
75.66540 94.000
75.68535 84.000
75.70529 106.000
75.72524 112.000
75.74519 96.000
75.76513 100.000
75.78508 92.000
75.80503 102.000
75.82497 94.000
75.84492 94.000
75.86487 79.000
75.88481 93.000
75.90476 95.000
75.92471 87.000
75.94466 70.000
75.96460 106.000
75.98455 91.000
76.00450 100.000
76.02444 99.000
76.04439 92.000
76.06434 98.000
76.08428 99.000
76.10423 96.000
76.12418 88.000
76.14413 111.000
76.16407 90.000
76.18402 123.000
76.20397 82.000
76.22391 90.000
76.24386 84.000
76.26381 87.000
76.28375 76.000
76.30370 80.000
76.32365 90.000
76.34359 104.000
76.36354 96.000
76.38349 98.000
76.40344 86.000
76.42338 91.000
76.44333 95.000
76.46328 81.000
76.48322 88.000
76.50317 98.000
76.52312 79.000
76.54306 89.000
76.56301 80.000
76.58296 73.000
76.60291 92.000
76.62285 88.000
76.64280 114.000
76.66275 94.000
76.68269 83.000
76.70264 88.000
76.72259 95.000
76.74253 92.000
76.76248 84.000
76.78243 86.000
76.80238 82.000
76.82232 83.000
76.84227 96.000
76.86222 85.000
76.88216 82.000
76.90211 96.000
76.92206 68.000
76.94200 102.000
76.96195 98.000
76.98190 100.000
77.00184 117.000
77.02179 85.000
77.04174 98.000
77.06169 93.000
77.08163 109.000
77.10158 107.000
77.12153 84.000
77.14147 108.000
77.16142 109.000
77.18137 93.000
77.20131 120.000
77.22126 102.000
77.24121 106.000
77.26116 118.000
77.28110 119.000
77.30105 115.000
77.32100 117.000
77.34094 120.000
77.36089 120.000
77.38084 120.000
77.40078 138.000
77.42073 105.000
77.44068 123.000
77.46062 119.000
77.48057 120.000
77.50052 109.000
77.52047 123.000
77.54041 113.000
77.56036 153.000
77.58031 137.000
77.60025 152.000
77.62020 141.000
77.64015 130.000
77.66009 117.000
77.68004 119.000
77.69999 117.000
77.71994 124.000
77.73988 129.000
77.75983 96.000
77.77978 122.000
77.79972 148.000
77.81967 94.000
77.83962 103.000
77.85956 123.000
77.87951 122.000
77.89946 106.000
77.91940 113.000
77.93935 141.000
77.95930 140.000
77.97925 128.000
77.99919 125.000
78.01914 140.000
78.03909 151.000
78.05903 156.000
78.07898 149.000
78.09893 168.000
78.11887 172.000
78.13882 188.000
78.15877 176.000
78.17872 182.000
78.19866 173.000
78.21861 162.000
78.23856 191.000
78.25850 176.000
78.27845 178.000
78.29840 188.000
78.31834 176.000
78.33829 187.000
78.35824 187.000
78.37819 165.000
78.39813 165.000
78.41808 188.000
78.43803 183.000
78.45797 171.000
78.47792 150.000
78.49787 173.000
78.51781 171.000
78.53776 184.000
78.55771 156.000
78.57765 136.000
78.59760 149.000
78.61755 159.000
78.63750 143.000
78.65744 131.000
78.67739 144.000
78.69734 118.000
78.71728 117.000
78.73723 122.000
78.75718 116.000
78.77712 118.000
78.79707 114.000
78.81702 100.000
78.83697 105.000
78.85691 109.000
78.87686 96.000
78.89681 89.000
78.91675 83.000
78.93670 91.000
78.95665 86.000
78.97659 93.000
78.99654 84.000
79.01649 119.000
79.03643 111.000
79.05638 96.000
79.07633 97.000
79.09628 99.000
79.11622 123.000
79.13617 86.000
79.15612 93.000
79.17606 86.000
79.19601 91.000
79.21596 75.000
79.23590 98.000
79.25585 86.000
79.27580 91.000
79.29575 82.000
79.31569 87.000
79.33564 95.000
79.35559 94.000
79.37553 112.000
79.39548 111.000
79.41543 96.000
79.43537 96.000
79.45532 95.000
79.47527 89.000
79.49521 89.000
79.51516 97.000
79.53511 104.000
79.55506 81.000
79.57500 92.000
79.59495 102.000
79.61490 105.000
79.63484 86.000
79.65479 80.000
79.67474 95.000
79.69468 83.000
79.71463 94.000
79.73458 82.000
79.75453 89.000
79.77447 98.000
79.79442 91.000
79.81437 92.000
79.83431 92.000
79.85426 94.000
79.87421 96.000
79.89415 71.000
79.91410 93.000
79.93405 102.000
79.95399 90.000
79.97394 80.000
79.99389 99.000
80.01384 107.000
80.03378 99.000
80.05373 107.000
80.07368 82.000
80.09362 87.000
80.11357 91.000
80.13352 91.000
80.15346 96.000
80.17341 92.000
80.19336 103.000
80.21331 90.000
80.23325 99.000
80.25320 98.000
80.27315 92.000
80.29309 84.000
80.31304 87.000
80.33299 109.000
80.35293 77.000
80.37288 96.000
80.39283 87.000
80.41278 90.000
80.43272 98.000
80.45267 93.000
80.47262 82.000
80.49256 94.000
80.51251 84.000
80.53246 100.000
80.55240 109.000
80.57235 94.000
80.59230 106.000
80.61224 101.000
80.63219 91.000
80.65214 80.000
80.67209 90.000
80.69203 116.000
80.71198 89.000
80.73193 96.000
80.75187 96.000
80.77182 99.000
80.79177 88.000
80.81171 98.000
80.83166 81.000
80.85161 94.000
80.87156 99.000
80.89150 78.000
80.91145 87.000
80.93140 79.000
80.95134 85.000
80.97129 91.000
80.99124 100.000
81.01118 117.000
81.03113 93.000
81.05108 92.000
81.07102 82.000
81.09097 80.000
81.11092 87.000
81.13087 103.000
81.15081 79.000
81.17076 100.000
81.19071 65.000
81.21065 84.000
81.23060 78.000
81.25055 113.000
81.27049 87.000
81.29044 86.000
81.31039 84.000
81.33034 77.000
81.35028 83.000
81.37023 104.000
81.39018 70.000
81.41012 70.000
81.43007 85.000
81.45002 89.000
81.46996 118.000
81.48991 78.000
81.50986 95.000
81.52980 100.000
81.54975 83.000
81.56970 89.000
81.58965 87.000
81.60959 96.000
81.62954 79.000
81.64949 78.000
81.66943 73.000
81.68938 92.000
81.70933 79.000
81.72927 74.000
81.74922 81.000
81.76917 65.000
81.78912 88.000
81.80906 95.000
81.82901 91.000
81.84896 88.000
81.86890 82.000
81.88885 84.000
81.90880 68.000
81.92874 97.000
81.94869 68.000
81.96864 89.000
81.98859 92.000
82.00853 72.000
82.02848 91.000
82.04843 76.000
82.06837 100.000
82.08832 91.000
82.10827 82.000
82.12821 92.000
82.14816 76.000
82.16811 91.000
82.18805 79.000
82.20800 74.000
82.22795 76.000
82.24790 78.000
82.26784 108.000
82.28779 81.000
82.30774 74.000
82.32768 104.000
82.34763 86.000
82.36758 80.000
82.38752 85.000
82.40747 90.000
82.42742 94.000
82.44737 98.000
82.46731 104.000
82.48726 111.000
82.50721 91.000
82.52715 99.000
82.54710 93.000
82.56705 88.000
82.58699 98.000
82.60694 105.000
82.62689 89.000
82.64683 80.000
82.66678 86.000
82.68673 91.000
82.70668 98.000
82.72662 100.000
82.74657 71.000
82.76652 79.000
82.78646 78.000
82.80641 112.000
82.82636 106.000
82.84630 92.000
82.86625 86.000
82.88620 109.000
82.90615 93.000
82.92609 92.000
82.94604 101.000
82.96599 109.000
82.98593 94.000
83.00588 106.000
83.02583 96.000
83.04577 83.000
83.06572 89.000
83.08567 82.000
83.10561 108.000
83.12556 86.000
83.14551 102.000
83.16546 84.000
83.18540 99.000
83.20535 101.000
83.22530 89.000
83.24524 90.000
83.26519 70.000
83.28514 107.000
83.30508 99.000
83.32503 88.000
83.34498 89.000
83.36493 105.000
83.38487 90.000
83.40482 97.000
83.42477 93.000
83.44471 90.000
83.46466 81.000
83.48461 100.000
83.50455 111.000
83.52450 80.000
83.54445 115.000
83.56440 87.000
83.58434 95.000
83.60429 107.000
83.62424 102.000
83.64418 117.000
83.66413 87.000
83.68408 105.000
83.70402 97.000
83.72397 94.000
83.74392 92.000
83.76386 112.000
83.78381 109.000
83.80376 91.000
83.82371 95.000
83.84365 116.000
83.86360 122.000
83.88355 118.000
83.90349 114.000
83.92344 128.000
83.94339 126.000
83.96333 119.000
83.98328 120.000
84.00323 134.000
84.02318 125.000
84.04312 135.000
84.06307 139.000
84.08302 126.000
84.10296 125.000
84.12291 134.000
84.14286 123.000
84.16280 138.000
84.18275 137.000
84.20270 127.000
84.22264 116.000
84.24259 138.000
84.26254 110.000
84.28249 130.000
84.30243 137.000
84.32238 140.000
84.34233 111.000
84.36227 108.000
84.38222 116.000
84.40217 123.000
84.42211 109.000
84.44206 126.000
84.46201 129.000
84.48196 113.000
84.50190 128.000
84.52185 112.000
84.54180 105.000
84.56174 107.000
84.58169 112.000
84.60164 100.000
84.62158 106.000
84.64153 97.000
84.66148 100.000
84.68142 108.000
84.70137 91.000
84.72132 96.000
84.74127 119.000
84.76121 103.000
84.78116 89.000
84.80111 103.000
84.82105 103.000
84.84100 111.000
84.86095 88.000
84.88089 96.000
84.90084 104.000
84.92079 95.000
84.94074 92.000
84.96068 94.000
84.98063 102.000
85.00058 89.000
85.02052 90.000
85.04047 87.000
85.06042 97.000
85.08036 89.000
85.10031 104.000
85.12026 83.000
85.14021 90.000
85.16015 98.000
85.18010 91.000
85.20005 91.000
85.21999 89.000
85.23994 86.000
85.25989 87.000
85.27983 92.000
85.29978 83.000
85.31973 76.000
85.33967 92.000
85.35962 94.000
85.37957 71.000
85.39952 91.000
85.41946 93.000
85.43941 87.000
85.45936 62.000
85.47930 97.000
85.49925 97.000
85.51920 91.000
85.53914 76.000
85.55909 89.000
85.57904 80.000
85.59899 85.000
85.61893 93.000
85.63888 89.000
85.65883 82.000
85.67877 97.000
85.69872 86.000
85.71867 96.000
85.73861 72.000
85.75856 82.000
85.77851 91.000
85.79845 86.000
85.81840 72.000
85.83835 73.000
85.85830 88.000
85.87824 94.000
85.89819 76.000
85.91814 75.000
85.93808 89.000
85.95803 98.000
85.97798 69.000
85.99792 80.000
86.01787 97.000
86.03782 91.000
86.05777 82.000
86.07771 68.000
86.09766 91.000
86.11761 78.000
86.13755 81.000
86.15750 91.000
86.17745 86.000
86.19739 68.000
86.21734 97.000
86.23729 85.000
86.25723 75.000
86.27718 63.000
86.29713 97.000
86.31708 76.000
86.33702 104.000
86.35697 100.000
86.37692 92.000
86.39686 82.000
86.41681 84.000
86.43676 97.000
86.45670 102.000
86.47665 92.000
86.49660 91.000
86.51655 100.000
86.53649 98.000
86.55644 120.000
86.57639 95.000
86.59633 117.000
86.61628 101.000
86.63623 99.000
86.65617 103.000
86.67612 91.000
86.69607 97.000
86.71602 90.000
86.73596 97.000
86.75591 112.000
86.77586 107.000
86.79580 114.000
86.81575 130.000
86.83570 108.000
86.85564 113.000
86.87559 119.000
86.89554 103.000
86.91548 113.000
86.93543 108.000
86.95538 107.000
86.97533 119.000
86.99527 104.000
87.01522 111.000
87.03517 130.000
87.05511 84.000
87.07506 129.000
87.09501 127.000
87.11495 93.000
87.13490 123.000
87.15485 111.000
87.17480 99.000
87.19474 117.000
87.21469 115.000
87.23464 124.000
87.25458 133.000
87.27453 115.000
87.29448 121.000
87.31442 96.000
87.33437 110.000
87.35432 95.000
87.37426 118.000
87.39421 115.000
87.41416 116.000
87.43411 105.000
87.45405 122.000
87.47400 110.000
87.49395 107.000
87.51389 93.000
87.53384 121.000
87.55379 105.000
87.57373 109.000
87.59368 95.000
87.61363 101.000
87.63358 118.000
87.65352 97.000
87.67347 91.000
87.69342 106.000
87.71336 82.000
87.73331 96.000
87.75326 97.000
87.77320 107.000
87.79315 93.000
87.81310 88.000
87.83304 100.000
87.85299 81.000
87.87294 104.000
87.89289 100.000
87.91283 82.000
87.93278 99.000
87.95273 88.000
87.97267 79.000
87.99262 89.000
88.01257 79.000
88.03251 78.000
88.05246 100.000
88.07241 108.000
88.09236 91.000
88.11230 72.000
88.13225 86.000
88.15220 79.000
88.17214 86.000
88.19209 70.000
88.21204 90.000
88.23198 87.000
88.25193 84.000
88.27188 91.000
88.29183 94.000
88.31177 95.000
88.33172 103.000
88.35167 96.000
88.37161 82.000
88.39156 79.000
88.41151 86.000
88.43145 100.000
88.45140 77.000
88.47135 83.000
88.49129 93.000
88.51124 87.000
88.53119 82.000
88.55114 77.000
88.57108 81.000
88.59103 90.000
88.61098 82.000
88.63092 90.000
88.65087 104.000
88.67082 98.000
88.69076 97.000
88.71071 78.000
88.73066 100.000
88.75061 75.000
88.77055 98.000
88.79050 94.000
88.81045 109.000
88.83039 79.000
88.85034 100.000
88.87029 101.000
88.89023 88.000
88.91018 79.000
88.93013 90.000
88.95007 87.000
88.97002 92.000
88.98997 92.000
89.00992 98.000
89.02986 88.000
89.04981 85.000
89.06976 88.000
89.08970 67.000
89.10965 98.000
89.12960 88.000
89.14954 86.000
89.16949 113.000
89.18944 75.000
89.20939 92.000
89.22933 86.000
89.24928 98.000
89.26923 93.000
89.28917 78.000
89.30912 85.000
89.32907 90.000
89.34901 82.000
89.36896 83.000
89.38891 90.000
89.40885 103.000
89.42880 81.000
89.44875 80.000
89.46870 92.000
89.48864 85.000
89.50859 106.000
89.52854 81.000
89.54848 83.000
89.56843 117.000
89.58838 90.000
89.60832 112.000
89.62827 98.000
89.64822 85.000
89.66817 90.000
89.68811 95.000
89.70806 101.000
89.72801 103.000
89.74795 99.000
89.76790 111.000
89.78785 114.000
89.80779 95.000
89.82774 106.000
89.84769 95.000
89.86764 97.000
89.88758 104.000
89.90753 95.000
89.92748 69.000
89.94742 93.000
89.96737 117.000
89.98732 98.000
90.00726 100.000
