10.00000 149.000
10.01995 130.000
10.03989 145.000
10.05984 154.000
10.07979 142.000
10.09973 135.000
10.11968 148.000
10.13963 138.000
10.15958 125.000
10.17952 135.000
10.19947 144.000
10.21942 141.000
10.23936 172.000
10.25931 149.000
10.27926 136.000
10.29920 155.000
10.31915 154.000
10.33910 140.000
10.35905 121.000
10.37899 152.000
10.39894 147.000
10.41889 140.000
10.43883 152.000
10.45878 146.000
10.47873 141.000
10.49867 147.000
10.51862 151.000
10.53857 152.000
10.55851 139.000
10.57846 141.000
10.59841 142.000
10.61836 145.000
10.63830 138.000
10.65825 142.000
10.67820 147.000
10.69814 141.000
10.71809 144.000
10.73804 146.000
10.75798 133.000
10.77793 155.000
10.79788 161.000
10.81783 145.000
10.83777 157.000
10.85772 161.000
10.87767 114.000
10.89761 147.000
10.91756 152.000
10.93751 134.000
10.95745 148.000
10.97740 164.000
10.99735 156.000
11.01730 151.000
11.03724 160.000
11.05719 157.000
11.07714 156.000
11.09708 157.000
11.11703 138.000
11.13698 163.000
11.15692 131.000
11.17687 153.000
11.19682 168.000
11.21676 148.000
11.23671 141.000
11.25666 124.000
11.27661 155.000
11.29655 136.000
11.31650 168.000
11.33645 171.000
11.35639 140.000
11.37634 170.000
11.39629 156.000
11.41623 147.000
11.43618 151.000
11.45613 149.000
11.47608 158.000
11.49602 162.000
11.51597 163.000
11.53592 160.000
11.55586 138.000
11.57581 140.000
11.59576 158.000
11.61570 161.000
11.63565 179.000
11.65560 162.000
11.67554 170.000
11.69549 142.000
11.71544 155.000
11.73539 158.000
11.75533 149.000
11.77528 163.000
11.79523 137.000
11.81517 146.000
11.83512 162.000
11.85507 142.000
11.87501 134.000
11.89496 133.000
11.91491 132.000
11.93486 126.000
11.95480 144.000
11.97475 156.000
11.99470 136.000
12.01464 149.000
12.03459 157.000
12.05454 160.000
12.07448 143.000
12.09443 157.000
12.11438 143.000
12.13432 139.000
12.15427 170.000
12.17422 163.000
12.19417 144.000
12.21411 141.000
12.23406 161.000
12.25401 153.000
12.27395 160.000
12.29390 162.000
12.31385 142.000
12.33379 144.000
12.35374 146.000
12.37369 153.000
12.39364 145.000
12.41358 164.000
12.43353 160.000
12.45348 140.000
12.47342 145.000
12.49337 171.000
12.51332 139.000
12.53326 153.000
12.55321 158.000
12.57316 184.000
12.59311 175.000
12.61305 154.000
12.63300 143.000
12.65295 151.000
12.67289 171.000
12.69284 170.000
12.71279 165.000
12.73273 149.000
12.75268 166.000
12.77263 150.000
12.79257 151.000
12.81252 128.000
12.83247 139.000
12.85242 148.000
12.87236 148.000
12.89231 164.000
12.91226 167.000
12.93220 170.000
12.95215 146.000
12.97210 150.000
12.99204 156.000
13.01199 144.000
13.03194 158.000
13.05189 163.000
13.07183 158.000
13.09178 178.000
13.11173 132.000
13.13167 169.000
13.15162 141.000
13.17157 189.000
13.19151 131.000
13.21146 144.000
13.23141 139.000
13.25135 155.000
13.27130 154.000
13.29125 154.000
13.31120 152.000
13.33114 149.000
13.35109 169.000
13.37104 133.000
13.39098 152.000
13.41093 151.000
13.43088 168.000
13.45082 174.000
13.47077 151.000
13.49072 152.000
13.51067 164.000
13.53061 163.000
13.55056 142.000
13.57051 168.000
13.59045 155.000
13.61040 144.000
13.63035 136.000
13.65029 166.000
13.67024 158.000
13.69019 143.000
13.71013 163.000
13.73008 179.000
13.75003 153.000
13.76998 149.000
13.78992 148.000
13.80987 154.000
13.82982 152.000
13.84976 138.000
13.86971 152.000
13.88966 165.000
13.90960 134.000
13.92955 178.000
13.94950 139.000
13.96945 164.000
13.98939 148.000
14.00934 155.000
14.02929 129.000
14.04923 167.000
14.06918 177.000
14.08913 166.000
14.10907 169.000
14.12902 153.000
14.14897 175.000
14.16892 150.000
14.18886 144.000
14.20881 155.000
14.22876 168.000
14.24870 174.000
14.26865 152.000
14.28860 182.000
14.30854 148.000
14.32849 173.000
14.34844 158.000
14.36838 181.000
14.38833 140.000
14.40828 153.000
14.42823 165.000
14.44817 177.000
14.46812 147.000
14.48807 163.000
14.50801 188.000
14.52796 153.000
14.54791 168.000
14.56785 150.000
14.58780 171.000
14.60775 146.000
14.62770 177.000
14.64764 170.000
14.66759 181.000
14.68754 153.000
14.70748 182.000
14.72743 187.000
14.74738 149.000
14.76732 171.000
14.78727 173.000
14.80722 188.000
14.82716 141.000
14.84711 159.000
14.86706 170.000
14.88701 167.000
14.90695 160.000
14.92690 201.000
14.94685 168.000
14.96679 195.000
14.98674 176.000
15.00669 177.000
15.02663 183.000
15.04658 213.000
15.06653 175.000
15.08648 185.000
15.10642 179.000
15.12637 191.000
15.14632 195.000
15.16626 184.000
15.18621 209.000
15.20616 189.000
15.22610 203.000
15.24605 191.000
15.26600 185.000
15.28594 180.000
15.30589 204.000
15.32584 184.000
15.34579 210.000
15.36573 207.000
15.38568 218.000
15.40563 218.000
15.42557 204.000
15.44552 204.000
15.46547 229.000
15.48541 240.000
15.50536 247.000
15.52531 252.000
15.54526 276.000
15.56520 323.000
15.58515 305.000
15.60510 350.000
15.62504 402.000
15.64499 500.000
15.66494 623.000
15.68488 859.000
15.70483 1198.000
15.72478 1811.000
15.74472 2437.000
15.76467 3231.000
15.78462 3887.000
15.80457 4470.000
15.82451 4849.000
15.84446 4741.000
15.86441 4051.000
15.88435 3179.000
15.90430 2166.000
15.92425 1406.000
15.94419 855.000
15.96414 541.000
15.98409 408.000
16.00404 331.000
16.02398 293.000
16.04393 259.000
16.06388 270.000
16.08382 228.000
16.10377 222.000
16.12372 217.000
16.14366 232.000
16.16361 205.000
16.18356 191.000
16.20351 188.000
16.22345 183.000
16.24340 194.000
16.26335 212.000
16.28329 189.000
16.30324 193.000
16.32319 197.000
16.34313 177.000
16.36308 172.000
16.38303 179.000
16.40297 203.000
16.42292 181.000
16.44287 175.000
16.46282 187.000
16.48276 174.000
16.50271 201.000
16.52266 184.000
16.54260 185.000
16.56255 186.000
16.58250 170.000
16.60244 191.000
16.62239 168.000
16.64234 168.000
16.66229 187.000
16.68223 198.000
16.70218 168.000
16.72213 188.000
16.74207 151.000
16.76202 164.000
16.78197 190.000
16.80191 169.000
16.82186 169.000
16.84181 177.000
16.86175 156.000
16.88170 177.000
16.90165 174.000
16.92160 167.000
16.94154 177.000
16.96149 170.000
16.98144 148.000
17.00138 162.000
17.02133 194.000
17.04128 161.000
17.06122 137.000
17.08117 183.000
17.10112 173.000
17.12107 185.000
17.14101 169.000
17.16096 162.000
17.18091 200.000
17.20085 179.000
17.22080 196.000
17.24075 163.000
17.26069 161.000
17.28064 183.000
17.30059 166.000
17.32053 164.000
17.34048 162.000
17.36043 161.000
17.38038 165.000
17.40032 187.000
17.42027 160.000
17.44022 185.000
17.46016 177.000
17.48011 171.000
17.50006 171.000
17.52000 176.000
17.53995 173.000
17.55990 162.000
17.57985 178.000
17.59979 172.000
17.61974 163.000
17.63969 154.000
17.65963 179.000
17.67958 193.000
17.69953 184.000
17.71947 183.000
17.73942 187.000
17.75937 161.000
17.77932 179.000
17.79926 173.000
17.81921 169.000
17.83916 172.000
17.85910 196.000
17.87905 191.000
17.89900 188.000
17.91894 166.000
17.93889 169.000
17.95884 169.000
17.97878 177.000
17.99873 175.000
18.01868 181.000
18.03863 188.000
18.05857 186.000
18.07852 166.000
18.09847 188.000
18.11841 167.000
18.13836 186.000
18.15831 163.000
18.17825 197.000
18.19820 164.000
18.21815 180.000
18.23810 193.000
18.25804 170.000
18.27799 165.000
18.29794 201.000
18.31788 174.000
18.33783 214.000
18.35778 204.000
18.37772 221.000
18.39767 273.000
18.41762 267.000
18.43756 309.000
18.45751 360.000
18.47746 328.000
18.49741 321.000
18.51735 264.000
18.53730 274.000
18.55725 224.000
18.57719 216.000
18.59714 213.000
18.61709 182.000
18.63703 158.000
18.65698 185.000
18.67693 194.000
18.69688 191.000
18.71682 154.000
18.73677 180.000
18.75672 172.000
18.77666 190.000
18.79661 184.000
18.81656 153.000
18.83650 179.000
18.85645 182.000
18.87640 193.000
18.89634 165.000
18.91629 165.000
18.93624 172.000
18.95619 156.000
18.97613 171.000
18.99608 183.000
19.01603 176.000
19.03597 176.000
19.05592 194.000
19.07587 181.000
19.09581 165.000
19.11576 160.000
19.13571 175.000
19.15566 203.000
19.17560 159.000
19.19555 166.000
19.21550 182.000
19.23544 161.000
19.25539 178.000
19.27534 193.000
19.29528 174.000
19.31523 176.000
19.33518 199.000
19.35513 197.000
19.37507 186.000
19.39502 170.000
19.41497 158.000
19.43491 196.000
19.45486 181.000
19.47481 198.000
19.49475 171.000
19.51470 193.000
19.53465 171.000
19.55459 179.000
19.57454 188.000
19.59449 191.000
19.61444 181.000
19.63438 170.000
19.65433 188.000
19.67428 184.000
19.69422 209.000
19.71417 185.000
19.73412 166.000
19.75406 188.000
19.77401 179.000
19.79396 168.000
19.81391 172.000
19.83385 162.000
19.85380 152.000
19.87375 159.000
19.89369 177.000
19.91364 167.000
19.93359 150.000
19.95353 189.000
19.97348 182.000
19.99343 173.000
20.01337 177.000
20.03332 147.000
20.05327 194.000
20.07322 210.000
20.09316 177.000
20.11311 175.000
20.13306 183.000
20.15300 172.000
20.17295 179.000
20.19290 173.000
20.21284 164.000
20.23279 179.000
20.25274 221.000
20.27269 189.000
20.29263 180.000
20.31258 170.000
20.33253 201.000
20.35247 156.000
20.37242 193.000
20.39237 173.000
20.41231 167.000
20.43226 190.000
20.45221 182.000
20.47215 170.000
20.49210 209.000
20.51205 207.000
20.53200 174.000
20.55194 187.000
20.57189 189.000
20.59184 185.000
20.61178 176.000
20.63173 184.000
20.65168 185.000
20.67162 184.000
20.69157 194.000
20.71152 154.000
20.73147 217.000
20.75141 196.000
20.77136 182.000
20.79131 165.000
20.81125 187.000
20.83120 212.000
20.85115 193.000
20.87109 182.000
20.89104 189.000
20.91099 168.000
20.93094 163.000
20.95088 155.000
20.97083 172.000
20.99078 166.000
21.01072 178.000
21.03067 197.000
21.05062 192.000
21.07056 170.000
21.09051 184.000
21.11046 205.000
21.13040 191.000
21.15035 187.000
21.17030 210.000
21.19025 189.000
21.21019 212.000
21.23014 200.000
21.25009 184.000
21.27003 182.000
21.28998 208.000
21.30993 197.000
21.32987 176.000
21.34982 190.000
21.36977 193.000
21.38972 183.000
21.40966 202.000
21.42961 170.000
21.44956 180.000
21.46950 189.000
21.48945 190.000
21.50940 188.000
21.52934 188.000
21.54929 166.000
21.56924 193.000
21.58918 159.000
21.60913 188.000
21.62908 208.000
21.64903 196.000
21.66897 182.000
21.68892 186.000
21.70887 198.000
21.72881 172.000
21.74876 189.000
21.76871 201.000
21.78865 216.000
21.80860 199.000
21.82855 174.000
21.84850 209.000
21.86844 175.000
21.88839 161.000
21.90834 190.000
21.92828 184.000
21.94823 194.000
21.96818 213.000
21.98812 181.000
22.00807 180.000
22.02802 190.000
22.04796 192.000
22.06791 191.000
22.08786 182.000
22.10781 205.000
22.12775 203.000
22.14770 190.000
22.16765 206.000
22.18759 193.000
22.20754 170.000
22.22749 191.000
22.24743 170.000
22.26738 195.000
22.28733 165.000
22.30728 200.000
22.32722 179.000
22.34717 212.000
22.36712 192.000
22.38706 207.000
22.40701 190.000
22.42696 201.000
22.44690 187.000
22.46685 205.000
22.48680 198.000
22.50675 203.000
22.52669 177.000
22.54664 188.000
22.56659 181.000
22.58653 167.000
22.60648 201.000
22.62643 169.000
22.64637 191.000
22.66632 167.000
22.68627 194.000
22.70621 198.000
22.72616 201.000
22.74611 191.000
22.76606 183.000
22.78600 198.000
22.80595 192.000
22.82590 174.000
22.84584 195.000
22.86579 199.000
22.88574 203.000
22.90568 191.000
22.92563 194.000
22.94558 183.000
22.96553 199.000
22.98547 167.000
23.00542 192.000
23.02537 219.000
23.04531 209.000
23.06526 199.000
23.08521 200.000
23.10515 180.000
23.12510 202.000
23.14505 155.000
23.16499 202.000
23.18494 192.000
23.20489 202.000
23.22484 179.000
23.24478 193.000
23.26473 185.000
23.28468 167.000
23.30462 203.000
23.32457 190.000
23.34452 200.000
23.36446 182.000
23.38441 208.000
23.40436 174.000
23.42431 205.000
23.44425 207.000
23.46420 180.000
23.48415 198.000
23.50409 187.000
23.52404 192.000
23.54399 199.000
23.56393 205.000
23.58388 183.000
23.60383 196.000
23.62377 205.000
23.64372 195.000
23.66367 183.000
23.68362 172.000
23.70356 196.000
23.72351 194.000
23.74346 207.000
23.76340 167.000
23.78335 182.000
23.80330 193.000
23.82324 184.000
23.84319 208.000
23.86314 162.000
23.88309 200.000
23.90303 187.000
23.92298 216.000
23.94293 205.000
23.96287 204.000
23.98282 195.000
24.00277 194.000
24.02271 192.000
24.04266 216.000
24.06261 200.000
24.08256 172.000
24.10250 190.000
24.12245 200.000
24.14240 216.000
24.16234 200.000
24.18229 178.000
24.20224 191.000
24.22218 207.000
24.24213 201.000
24.26208 219.000
24.28202 212.000
24.30197 210.000
24.32192 207.000
24.34187 201.000
24.36181 185.000
24.38176 191.000
24.40171 208.000
24.42165 196.000
24.44160 181.000
24.46155 206.000
24.48149 198.000
24.50144 189.000
24.52139 198.000
24.54134 174.000
24.56128 183.000
24.58123 206.000
24.60118 220.000
24.62112 178.000
24.64107 190.000
24.66102 210.000
24.68096 182.000
24.70091 177.000
24.72086 198.000
24.74080 222.000
24.76075 191.000
24.78070 200.000
24.80065 223.000
24.82059 182.000
24.84054 204.000
24.86049 215.000
24.88043 190.000
24.90038 213.000
24.92033 215.000
24.94027 202.000
24.96022 201.000
24.98017 214.000
25.00012 206.000
25.02006 229.000
25.04001 195.000
25.05996 199.000
25.07990 182.000
25.09985 205.000
25.11980 186.000
25.13974 208.000
25.15969 221.000
25.17964 191.000
25.19958 182.000
25.21953 196.000
25.23948 225.000
25.25943 215.000
25.27937 179.000
25.29932 220.000
25.31927 191.000
25.33921 202.000
25.35916 192.000
25.37911 221.000
25.39905 212.000
25.41900 219.000
25.43895 218.000
25.45890 223.000
25.47884 207.000
25.49879 225.000
25.51874 208.000
25.53868 216.000
25.55863 237.000
25.57858 201.000
25.59852 203.000
25.61847 210.000
25.63842 204.000
25.65837 208.000
25.67831 182.000
25.69826 217.000
25.71821 219.000
25.73815 207.000
25.75810 214.000
25.77805 218.000
25.79799 219.000
25.81794 230.000
25.83789 197.000
25.85783 185.000
25.87778 221.000
25.89773 190.000
25.91768 182.000
25.93762 199.000
25.95757 204.000
25.97752 225.000
25.99746 214.000
26.01741 222.000
26.03736 218.000
26.05730 189.000
26.07725 226.000
26.09720 207.000
26.11715 194.000
26.13709 209.000
26.15704 215.000
26.17699 207.000
26.19693 224.000
26.21688 197.000
26.23683 228.000
26.25677 205.000
26.27672 217.000
26.29667 198.000
26.31661 205.000
26.33656 198.000
26.35651 191.000
26.37646 203.000
26.39640 213.000
26.41635 203.000
26.43630 235.000
26.45624 223.000
26.47619 212.000
26.49614 196.000
26.51608 185.000
26.53603 208.000
26.55598 199.000
26.57593 203.000
26.59587 207.000
26.61582 220.000
26.63577 243.000
26.65571 199.000
26.67566 231.000
26.69561 199.000
26.71555 209.000
26.73550 209.000
26.75545 189.000
26.77539 207.000
26.79534 200.000
26.81529 214.000
26.83524 219.000
26.85518 209.000
26.87513 228.000
26.89508 232.000
26.91502 235.000
26.93497 230.000
26.95492 204.000
26.97486 212.000
26.99481 205.000
27.01476 222.000
27.03471 220.000
27.05465 205.000
27.07460 223.000
27.09455 198.000
27.11449 194.000
27.13444 193.000
27.15439 209.000
27.17433 223.000
27.19428 204.000
27.21423 229.000
27.23417 222.000
27.25412 178.000
27.27407 219.000
27.29402 201.000
27.31396 227.000
27.33391 203.000
27.35386 210.000
27.37380 247.000
27.39375 218.000
27.41370 239.000
27.43364 229.000
27.45359 202.000
27.47354 185.000
27.49349 222.000
27.51343 235.000
27.53338 211.000
27.55333 210.000
27.57327 219.000
27.59322 216.000
27.61317 250.000
27.63311 202.000
27.65306 209.000
27.67301 218.000
27.69296 220.000
27.71290 225.000
27.73285 232.000
27.75280 226.000
27.77274 225.000
27.79269 222.000
27.81264 214.000
27.83258 244.000
27.85253 203.000
27.87248 214.000
27.89242 230.000
27.91237 197.000
27.93232 226.000
27.95227 204.000
27.97221 212.000
27.99216 198.000
28.01211 223.000
28.03205 217.000
28.05200 233.000
28.07195 195.000
28.09189 216.000
28.11184 237.000
28.13179 195.000
28.15174 208.000
28.17168 195.000
28.19163 220.000
28.21158 220.000
28.23152 184.000
28.25147 229.000
28.27142 216.000
28.29136 201.000
28.31131 225.000
28.33126 257.000
28.35120 202.000
28.37115 239.000
28.39110 230.000
28.41105 200.000
28.43099 232.000
28.45094 208.000
28.47089 205.000
28.49083 241.000
28.51078 206.000
28.53073 217.000
28.55067 230.000
28.57062 212.000
28.59057 210.000
28.61052 233.000
28.63046 225.000
28.65041 234.000
28.67036 209.000
28.69030 220.000
28.71025 217.000
28.73020 193.000
28.75014 220.000
28.77009 207.000
28.79004 190.000
28.80998 190.000
28.82993 215.000
28.84988 217.000
28.86983 197.000
28.88977 238.000
28.90972 209.000
28.92967 222.000
28.94961 192.000
28.96956 229.000
28.98951 187.000
29.00945 220.000
29.02940 217.000
29.04935 215.000
29.06930 219.000
29.08924 225.000
29.10919 236.000
29.12914 224.000
29.14908 236.000
29.16903 221.000
29.18898 233.000
29.20892 238.000
29.22887 209.000
29.24882 206.000
29.26877 243.000
29.28871 219.000
29.30866 217.000
29.32861 240.000
29.34855 245.000
29.36850 220.000
29.38845 212.000
29.40839 256.000
29.42834 242.000
29.44829 219.000
29.46823 204.000
29.48818 208.000
29.50813 227.000
29.52808 227.000
29.54802 225.000
29.56797 221.000
29.58792 241.000
29.60786 220.000
29.62781 206.000
29.64776 219.000
29.66770 254.000
29.68765 220.000
29.70760 228.000
29.72755 241.000
29.74749 215.000
29.76744 237.000
29.78739 214.000
29.80733 236.000
29.82728 213.000
29.84723 235.000
29.86717 235.000
29.88712 234.000
29.90707 229.000
29.92701 234.000
29.94696 237.000
29.96691 229.000
29.98686 205.000
30.00680 265.000
30.02675 244.000
30.04670 224.000
30.06664 256.000
30.08659 249.000
30.10654 244.000
30.12648 239.000
30.14643 242.000
30.16638 274.000
30.18633 268.000
30.20627 301.000
30.22622 364.000
30.24617 412.000
30.26611 444.000
30.28606 479.000
30.30601 503.000
30.32595 521.000
30.34590 494.000
30.36585 518.000
30.38579 425.000
30.40574 428.000
30.42569 390.000
30.44564 363.000
30.46558 296.000
30.48553 320.000
30.50548 262.000
30.52542 264.000
30.54537 238.000
30.56532 248.000
30.58526 233.000
30.60521 249.000
30.62516 251.000
30.64511 237.000
30.66505 207.000
30.68500 212.000
30.70495 215.000
30.72489 240.000
30.74484 223.000
30.76479 235.000
30.78473 227.000
30.80468 212.000
30.82463 250.000
30.84458 232.000
30.86452 243.000
30.88447 220.000
30.90442 223.000
30.92436 211.000
30.94431 270.000
30.96426 237.000
30.98420 225.000
31.00415 210.000
31.02410 214.000
31.04404 227.000
31.06399 229.000
31.08394 223.000
31.10389 231.000
31.12383 229.000
31.14378 258.000
31.16373 235.000
31.18367 224.000
31.20362 239.000
31.22357 236.000
31.24351 247.000
31.26346 232.000
31.28341 231.000
31.30336 232.000
31.32330 223.000
31.34325 213.000
31.36320 277.000
31.38314 260.000
31.40309 220.000
31.42304 211.000
31.44298 231.000
31.46293 252.000
31.48288 267.000
31.50282 261.000
31.52277 228.000
31.54272 242.000
31.56267 252.000
31.58261 237.000
31.60256 234.000
31.62251 261.000
31.64245 261.000
31.66240 281.000
31.68235 259.000
31.70229 284.000
31.72224 311.000
31.74219 311.000
31.76214 333.000
31.78208 368.000
31.80203 412.000
31.82198 489.000
31.84192 536.000
31.86187 643.000
31.88182 631.000
31.90176 671.000
31.92171 616.000
31.94166 588.000
31.96160 560.000
31.98155 472.000
32.00150 433.000
32.02145 391.000
32.04139 344.000
32.06134 322.000
32.08129 299.000
32.10123 282.000
32.12118 273.000
32.14113 266.000
32.16107 242.000
32.18102 266.000
32.20097 264.000
32.22092 246.000
32.24086 258.000
32.26081 250.000
32.28076 244.000
32.30070 209.000
32.32065 250.000
32.34060 262.000
32.36054 212.000
32.38049 243.000
32.40044 205.000
32.42039 237.000
32.44033 247.000
32.46028 246.000
32.48023 253.000
32.50017 300.000
32.52012 290.000
32.54007 309.000
32.56001 326.000
32.57996 317.000
32.59991 317.000
32.61985 303.000
32.63980 300.000
32.65975 322.000
32.67970 296.000
32.69964 254.000
32.71959 232.000
32.73954 229.000
32.75948 241.000
32.77943 232.000
32.79938 239.000
32.81932 226.000
32.83927 233.000
32.85922 232.000
32.87917 209.000
32.89911 226.000
32.91906 218.000
32.93901 213.000
32.95895 213.000
32.97890 241.000
32.99885 206.000
33.01879 236.000
33.03874 206.000
33.05869 208.000
33.07863 223.000
33.09858 211.000
33.11853 231.000
33.13848 236.000
33.15842 226.000
33.17837 228.000
33.19832 216.000
33.21826 227.000
33.23821 227.000
33.25816 243.000
33.27810 221.000
33.29805 245.000
33.31800 219.000
33.33795 225.000
33.35789 246.000
33.37784 211.000
33.39779 228.000
33.41773 227.000
33.43768 232.000
33.45763 249.000
33.47757 222.000
33.49752 235.000
33.51747 238.000
33.53741 231.000
33.55736 237.000
33.57731 229.000
33.59726 257.000
33.61720 226.000
33.63715 224.000
33.65710 224.000
33.67704 221.000
33.69699 213.000
33.71694 216.000
33.73688 214.000
33.75683 211.000
33.77678 272.000
33.79673 238.000
33.81667 214.000
33.83662 213.000
33.85657 203.000
33.87651 222.000
33.89646 234.000
33.91641 232.000
33.93635 232.000
33.95630 219.000
33.97625 257.000
33.99620 242.000
34.01614 207.000
34.03609 234.000
34.05604 234.000
34.07598 242.000
34.09593 247.000
34.11588 231.000
34.13582 249.000
34.15577 210.000
34.17572 230.000
34.19566 222.000
34.21561 233.000
34.23556 260.000
34.25551 238.000
34.27545 231.000
34.29540 223.000
34.31535 248.000
34.33529 233.000
34.35524 245.000
34.37519 227.000
34.39513 226.000
34.41508 251.000
34.43503 251.000
34.45498 239.000
34.47492 227.000
34.49487 222.000
34.51482 235.000
34.53476 233.000
34.55471 225.000
34.57466 215.000
34.59460 200.000
34.61455 228.000
34.63450 211.000
34.65444 240.000
34.67439 230.000
34.69434 249.000
34.71429 263.000
34.73423 223.000
34.75418 237.000
34.77413 264.000
34.79407 265.000
34.81402 263.000
34.83397 243.000
34.85391 249.000
34.87386 241.000
34.89381 259.000
34.91376 242.000
34.93370 278.000
34.95365 284.000
34.97360 265.000
34.99354 260.000
35.01349 302.000
35.03344 270.000
35.05338 281.000
35.07333 254.000
35.09328 276.000
35.11322 306.000
35.13317 267.000
35.15312 292.000
35.17307 253.000
35.19301 301.000
35.21296 295.000
35.23291 323.000
35.25285 277.000
35.27280 308.000
35.29275 303.000
35.31269 316.000
35.33264 358.000
35.35259 371.000
35.37254 387.000
35.39248 429.000
35.41243 532.000
35.43238 592.000
35.45232 662.000
35.47227 800.000
35.49222 898.000
35.51216 1037.000
35.53211 1207.000
35.55206 1366.000
35.57201 1473.000
35.59195 1753.000
35.61190 1883.000
35.63185 1987.000
35.65179 2068.000
35.67174 2055.000
35.69169 2087.000
35.71163 1922.000
35.73158 1814.000
35.75153 1613.000
35.77147 1445.000
35.79142 1258.000
35.81137 1114.000
35.83132 1074.000
35.85126 1016.000
35.87121 986.000
35.89116 1070.000
35.91110 1026.000
35.93105 1014.000
35.95100 937.000
35.97094 855.000
35.99089 738.000
36.01084 687.000
36.03079 646.000
36.05073 516.000
36.07068 440.000
36.09063 364.000
36.11057 368.000
36.13052 332.000
36.15047 291.000
36.17041 290.000
36.19036 266.000
36.21031 244.000
36.23025 290.000
36.25020 254.000
36.27015 265.000
36.29010 240.000
36.31004 233.000
36.32999 240.000
36.34994 280.000
36.36988 234.000
36.38983 275.000
36.40978 252.000
36.42972 241.000
36.44967 255.000
36.46962 232.000
36.48957 235.000
36.50951 240.000
36.52946 248.000
36.54941 249.000
36.56935 221.000
36.58930 232.000
36.60925 235.000
36.62919 247.000
36.64914 253.000
36.66909 249.000
36.68903 243.000
36.70898 251.000
36.72893 245.000
36.74888 294.000
36.76882 273.000
36.78877 289.000
36.80872 282.000
36.82866 304.000
36.84861 278.000
36.86856 270.000
36.88850 262.000
36.90845 290.000
36.92840 294.000
36.94835 272.000
36.96829 273.000
36.98824 218.000
37.00819 251.000
37.02813 247.000
37.04808 256.000
37.06803 222.000
37.08797 293.000
37.10792 243.000
37.12787 253.000
37.14781 256.000
37.16776 235.000
37.18771 226.000
37.20766 276.000
37.22760 283.000
37.24755 263.000
37.26750 296.000
37.28744 325.000
37.30739 309.000
37.32734 300.000
37.34728 313.000
37.36723 296.000
37.38718 289.000
37.40713 315.000
37.42707 288.000
37.44702 268.000
37.46697 255.000
37.48691 267.000
37.50686 260.000
37.52681 249.000
37.54675 253.000
37.56670 219.000
37.58665 283.000
37.60660 231.000
37.62654 245.000
37.64649 236.000
37.66644 236.000
37.68638 243.000
37.70633 293.000
37.72628 223.000
37.74622 250.000
37.76617 218.000
37.78612 230.000
37.80606 250.000
37.82601 264.000
37.84596 265.000
37.86591 263.000
37.88585 273.000
37.90580 255.000
37.92575 263.000
37.94569 237.000
37.96564 247.000
37.98559 247.000
38.00553 253.000
38.02548 269.000
38.04543 278.000
38.06538 253.000
38.08532 216.000
38.10527 242.000
38.12522 237.000
38.14516 251.000
38.16511 250.000
38.18506 266.000
38.20500 277.000
38.22495 268.000
38.24490 244.000
38.26484 273.000
38.28479 247.000
38.30474 253.000
38.32469 324.000
38.34463 286.000
38.36458 277.000
38.38453 289.000
38.40447 290.000
38.42442 271.000
38.44437 320.000
38.46431 307.000
38.48426 311.000
38.50421 317.000
38.52416 347.000
38.54410 353.000
38.56405 380.000
38.58400 461.000
38.60394 499.000
38.62389 537.000
38.64384 723.000
38.66378 738.000
38.68373 879.000
38.70368 1031.000
38.72362 1153.000
38.74357 1296.000
38.76352 1276.000
38.78347 1328.000
38.80341 1200.000
38.82336 1300.000
38.84331 1184.000
38.86325 1111.000
38.88320 986.000
38.90315 895.000
38.92309 831.000
38.94304 758.000
38.96299 695.000
38.98294 636.000
39.00288 624.000
39.02283 613.000
39.04278 575.000
39.06272 548.000
39.08267 546.000
39.10262 500.000
39.12256 501.000
39.14251 447.000
39.16246 449.000
39.18241 427.000
39.20235 421.000
39.22230 418.000
39.24225 415.000
39.26219 386.000
39.28214 470.000
39.30209 561.000
39.32203 554.000
39.34198 722.000
39.36193 872.000
39.38187 1002.000
39.40182 1157.000
39.42177 1345.000
39.44172 1448.000
39.46166 1413.000
39.48161 1354.000
39.50156 1225.000
39.52150 1106.000
39.54145 1090.000
39.56140 910.000
39.58134 743.000
39.60129 647.000
39.62124 533.000
39.64119 488.000
39.66113 398.000
39.68108 394.000
39.70103 312.000
39.72097 329.000
39.74092 306.000
39.76087 251.000
39.78081 279.000
39.80076 276.000
39.82071 247.000
39.84065 282.000
39.86060 227.000
39.88055 246.000
39.90050 268.000
39.92044 263.000
39.94039 241.000
39.96034 275.000
39.98028 242.000
40.00023 234.000
40.02018 230.000
40.04012 251.000
40.06007 223.000
40.08002 231.000
40.09997 220.000
40.11991 233.000
40.13986 229.000
40.15981 250.000
40.17975 227.000
40.19970 228.000
40.21965 240.000
40.23959 213.000
40.25954 201.000
40.27949 216.000
40.29943 243.000
40.31938 233.000
40.33933 229.000
40.35928 240.000
40.37922 233.000
40.39917 217.000
40.41912 208.000
40.43906 204.000
40.45901 249.000
40.47896 211.000
40.49890 236.000
40.51885 219.000
40.53880 214.000
40.55875 236.000
40.57869 240.000
40.59864 237.000
40.61859 208.000
40.63853 225.000
40.65848 238.000
40.67843 252.000
40.69837 209.000
40.71832 235.000
40.73827 211.000
40.75822 205.000
40.77816 207.000
40.79811 235.000
40.81806 210.000
40.83800 222.000
40.85795 236.000
40.87790 223.000
40.89784 216.000
40.91779 218.000
40.93774 254.000
40.95768 225.000
40.97763 229.000
40.99758 243.000
41.01753 238.000
41.03747 214.000
41.05742 220.000
41.07737 242.000
41.09731 233.000
41.11726 224.000
41.13721 206.000
41.15715 227.000
41.17710 216.000
41.19705 218.000
41.21700 238.000
41.23694 240.000
41.25689 222.000
41.27684 237.000
41.29678 219.000
41.31673 243.000
41.33668 219.000
41.35662 240.000
41.37657 256.000
41.39652 193.000
41.41646 232.000
41.43641 235.000
41.45636 264.000
41.47631 257.000
41.49625 217.000
41.51620 242.000
41.53615 196.000
41.55609 236.000
41.57604 252.000
41.59599 211.000
41.61593 209.000
41.63588 252.000
41.65583 220.000
41.67578 213.000
41.69572 212.000
41.71567 196.000
41.73562 233.000
41.75556 215.000
41.77551 223.000
41.79546 225.000
41.81540 240.000
41.83535 217.000
41.85530 234.000
41.87524 216.000
41.89519 224.000
41.91514 236.000
41.93509 214.000
41.95503 222.000
41.97498 220.000
41.99493 229.000
42.01487 241.000
42.03482 194.000
42.05477 213.000
42.07471 213.000
42.09466 213.000
42.11461 234.000
42.13456 214.000
42.15450 220.000
42.17445 207.000
42.19440 231.000
42.21434 205.000
42.23429 229.000
42.25424 257.000
42.27418 208.000
42.29413 208.000
42.31408 207.000
42.33403 233.000
42.35397 209.000
42.37392 199.000
42.39387 209.000
42.41381 220.000
42.43376 218.000
42.45371 226.000
42.47365 224.000
42.49360 203.000
42.51355 225.000
42.53349 231.000
42.55344 251.000
42.57339 245.000
42.59334 211.000
42.61328 218.000
42.63323 229.000
42.65318 252.000
42.67312 215.000
42.69307 229.000
42.71302 225.000
42.73296 226.000
42.75291 222.000
42.77286 227.000
42.79281 243.000
42.81275 233.000
42.83270 245.000
42.85265 219.000
42.87259 246.000
42.89254 233.000
42.91249 261.000
42.93243 243.000
42.95238 242.000
42.97233 222.000
42.99227 240.000
43.01222 231.000
43.03217 253.000
43.05212 253.000
43.07206 278.000
43.09201 259.000
43.11196 241.000
43.13190 238.000
43.15185 280.000
43.17180 272.000
43.19174 260.000
43.21169 302.000
43.23164 341.000
43.25159 340.000
43.27153 347.000
43.29148 378.000
43.31143 415.000
43.33137 461.000
43.35132 520.000
43.37127 536.000
43.39121 572.000
43.41116 621.000
43.43111 625.000
43.45105 668.000
43.47100 719.000
43.49095 742.000
43.51090 741.000
43.53084 733.000
43.55079 654.000
43.57074 700.000
43.59068 606.000
43.61063 575.000
43.63058 509.000
43.65052 423.000
43.67047 422.000
43.69042 381.000
43.71037 319.000
43.73031 298.000
43.75026 307.000
43.77021 271.000
43.79015 242.000
43.81010 243.000
43.83005 247.000
43.84999 234.000
43.86994 244.000
43.88989 260.000
43.90984 233.000
43.92978 222.000
43.94973 255.000
43.96968 233.000
43.98962 227.000
44.00957 225.000
44.02952 222.000
44.04946 215.000
44.06941 236.000
44.08936 220.000
44.10930 224.000
44.12925 223.000
44.14920 247.000
44.16915 226.000
44.18909 235.000
44.20904 217.000
44.22899 234.000
44.24893 228.000
44.26888 210.000
44.28883 243.000
44.30877 208.000
44.32872 205.000
44.34867 235.000
44.36862 237.000
44.38856 232.000
44.40851 211.000
44.42846 233.000
44.44840 230.000
44.46835 271.000
44.48830 212.000
44.50824 242.000
44.52819 239.000
44.54814 226.000
44.56808 225.000
44.58803 219.000
44.60798 211.000
44.62793 210.000
44.64787 184.000
44.66782 212.000
44.68777 207.000
44.70771 219.000
44.72766 249.000
44.74761 220.000
44.76755 216.000
44.78750 216.000
44.80745 217.000
44.82740 215.000
44.84734 214.000
44.86729 216.000
44.88724 223.000
44.90718 221.000
44.92713 212.000
44.94708 249.000
44.96702 219.000
44.98697 231.000
45.00692 268.000
45.02686 226.000
45.04681 217.000
45.06676 219.000
45.08671 215.000
45.10665 224.000
45.12660 261.000
45.14655 228.000
45.16649 218.000
45.18644 206.000
45.20639 251.000
45.22633 247.000
45.24628 195.000
45.26623 230.000
45.28618 239.000
45.30612 242.000
45.32607 246.000
45.34602 235.000
45.36596 218.000
45.38591 222.000
45.40586 216.000
45.42580 196.000
45.44575 222.000
45.46570 183.000
45.48565 233.000
45.50559 223.000
45.52554 227.000
45.54549 217.000
45.56543 233.000
45.58538 191.000
45.60533 224.000
45.62527 216.000
45.64522 234.000
45.66517 203.000
45.68511 216.000
45.70506 209.000
45.72501 190.000
45.74496 223.000
45.76490 220.000
45.78485 221.000
45.80480 228.000
45.82474 204.000
45.84469 242.000
45.86464 221.000
45.88458 198.000
45.90453 232.000
45.92448 218.000
45.94443 234.000
45.96437 203.000
45.98432 228.000
46.00427 204.000
46.02421 235.000
46.04416 206.000
46.06411 200.000
46.08405 224.000
46.10400 234.000
46.12395 242.000
46.14389 205.000
46.16384 221.000
46.18379 216.000
46.20374 222.000
46.22368 220.000
46.24363 218.000
46.26358 220.000
46.28352 222.000
46.30347 239.000
46.32342 232.000
46.34336 237.000
46.36331 225.000
46.38326 275.000
46.40321 257.000
46.42315 252.000
46.44310 209.000
46.46305 240.000
46.48299 230.000
46.50294 234.000
46.52289 224.000
46.54283 231.000
46.56278 235.000
46.58273 225.000
46.60267 216.000
46.62262 233.000
46.64257 220.000
46.66252 215.000
46.68246 180.000
46.70241 233.000
46.72236 206.000
46.74230 244.000
46.76225 227.000
46.78220 198.000
46.80214 222.000
46.82209 232.000
46.84204 222.000
46.86199 217.000
46.88193 233.000
46.90188 218.000
46.92183 224.000
46.94177 215.000
46.96172 226.000
46.98167 221.000
47.00161 222.000
47.02156 214.000
47.04151 226.000
47.06146 204.000
47.08140 212.000
47.10135 234.000
47.12130 214.000
47.14124 234.000
47.16119 206.000
47.18114 237.000
47.20108 228.000
47.22103 221.000
47.24098 228.000
47.26092 213.000
47.28087 238.000
47.30082 216.000
47.32077 223.000
47.34071 240.000
47.36066 230.000
47.38061 250.000
47.40055 221.000
47.42050 245.000
47.44045 238.000
47.46039 240.000
47.48034 239.000
47.50029 241.000
47.52024 230.000
47.54018 204.000
47.56013 215.000
47.58008 214.000
47.60002 248.000
47.61997 240.000
47.63992 201.000
47.65986 225.000
47.67981 235.000
47.69976 209.000
47.71970 244.000
47.73965 215.000
47.75960 219.000
47.77955 222.000
47.79949 206.000
47.81944 241.000
47.83939 243.000
47.85933 230.000
47.87928 233.000
47.89923 234.000
47.91917 228.000
47.93912 228.000
47.95907 218.000
47.97902 249.000
47.99896 250.000
48.01891 212.000
48.03886 252.000
48.05880 273.000
48.07875 224.000
48.09870 255.000
48.11864 260.000
48.13859 230.000
48.15854 236.000
48.17848 290.000
48.19843 244.000
48.21838 270.000
48.23833 271.000
48.25827 246.000
48.27822 248.000
48.29817 255.000
48.31811 300.000
48.33806 280.000
48.35801 266.000
48.37795 304.000
48.39790 303.000
48.41785 276.000
48.43780 305.000
48.45774 297.000
48.47769 351.000
48.49764 396.000
48.51758 404.000
48.53753 404.000
48.55748 467.000
48.57742 508.000
48.59737 554.000
48.61732 628.000
48.63726 752.000
48.65721 773.000
48.67716 1022.000
48.69711 1035.000
48.71705 1204.000
48.73700 1320.000
48.75695 1348.000
48.77689 1312.000
48.79684 1319.000
48.81679 1296.000
48.83673 1253.000
48.85668 1189.000
48.87663 1147.000
48.89658 1088.000
48.91652 965.000
48.93647 888.000
48.95642 784.000
48.97636 731.000
48.99631 604.000
49.01626 553.000
49.03620 519.000
49.05615 455.000
49.07610 384.000
49.09605 336.000
49.11599 333.000
49.13594 303.000
49.15589 333.000
49.17583 275.000
49.19578 253.000
49.21573 285.000
49.23567 281.000
49.25562 253.000
49.27557 259.000
49.29551 258.000
49.31546 257.000
49.33541 262.000
49.35536 259.000
49.37530 250.000
49.39525 241.000
49.41520 232.000
49.43514 245.000
49.45509 247.000
49.47504 244.000
49.49498 232.000
49.51493 252.000
49.53488 241.000
49.55483 215.000
49.57477 226.000
49.59472 246.000
49.61467 251.000
49.63461 220.000
49.65456 238.000
49.67451 216.000
49.69445 223.000
49.71440 215.000
49.73435 212.000
49.75429 228.000
49.77424 222.000
49.79419 222.000
49.81414 215.000
49.83408 234.000
49.85403 231.000
49.87398 227.000
49.89392 237.000
49.91387 212.000
49.93382 206.000
49.95376 239.000
49.97371 214.000
49.99366 231.000
50.01361 244.000
50.03355 226.000
50.05350 218.000
50.07345 221.000
50.09339 227.000
50.11334 220.000
50.13329 200.000
50.15323 215.000
50.17318 218.000
50.19313 231.000
50.21307 236.000
50.23302 213.000
50.25297 240.000
50.27292 243.000
50.29286 226.000
50.31281 204.000
50.33276 219.000
50.35270 219.000
50.37265 237.000
50.39260 215.000
50.41254 207.000
50.43249 233.000
50.45244 257.000
50.47239 228.000
50.49233 251.000
50.51228 206.000
50.53223 243.000
50.55217 211.000
50.57212 216.000
50.59207 224.000
50.61201 194.000
50.63196 225.000
50.65191 208.000
50.67186 202.000
50.69180 207.000
50.71175 239.000
50.73170 225.000
50.75164 246.000
50.77159 203.000
50.79154 224.000
50.81148 230.000
50.83143 229.000
50.85138 234.000
50.87132 236.000
50.89127 205.000
50.91122 218.000
50.93117 213.000
50.95111 210.000
50.97106 222.000
50.99101 208.000
51.01095 208.000
51.03090 255.000
51.05085 216.000
51.07079 225.000
51.09074 245.000
51.11069 233.000
51.13064 222.000
51.15058 250.000
51.17053 187.000
51.19048 229.000
51.21042 253.000
51.23037 225.000
51.25032 245.000
51.27026 220.000
51.29021 204.000
51.31016 254.000
51.33010 214.000
51.35005 217.000
51.37000 228.000
51.38995 229.000
51.40989 231.000
51.42984 209.000
51.44979 237.000
51.46973 220.000
51.48968 219.000
51.50963 233.000
51.52957 226.000
51.54952 242.000
51.56947 214.000
51.58942 228.000
51.60936 217.000
51.62931 226.000
51.64926 211.000
51.66920 235.000
51.68915 210.000
51.70910 224.000
51.72904 215.000
51.74899 225.000
51.76894 220.000
51.78888 216.000
51.80883 229.000
51.82878 216.000
51.84873 206.000
51.86867 217.000
51.88862 235.000
51.90857 200.000
51.92851 229.000
51.94846 205.000
51.96841 211.000
51.98835 231.000
52.00830 210.000
52.02825 240.000
52.04820 210.000
52.06814 220.000
52.08809 198.000
52.10804 224.000
52.12798 242.000
52.14793 227.000
52.16788 234.000
52.18782 201.000
52.20777 227.000
52.22772 210.000
52.24767 223.000
52.26761 216.000
52.28756 236.000
52.30751 220.000
52.32745 211.000
52.34740 190.000
52.36735 218.000
52.38729 217.000
52.40724 199.000
52.42719 242.000
52.44713 228.000
52.46708 241.000
52.48703 216.000
52.50698 234.000
52.52692 214.000
52.54687 216.000
52.56682 227.000
52.58676 209.000
52.60671 199.000
52.62666 231.000
52.64660 233.000
52.66655 199.000
52.68650 200.000
52.70645 206.000
52.72639 210.000
52.74634 239.000
52.76629 222.000
52.78623 207.000
52.80618 212.000
52.82613 232.000
52.84607 250.000
52.86602 227.000
52.88597 221.000
52.90591 218.000
52.92586 221.000
52.94581 222.000
52.96576 244.000
52.98570 238.000
53.00565 214.000
53.02560 209.000
53.04554 209.000
53.06549 209.000
53.08544 247.000
53.10538 203.000
53.12533 194.000
53.14528 218.000
53.16523 228.000
53.18517 240.000
53.20512 261.000
53.22507 224.000
53.24501 270.000
53.26496 243.000
53.28491 219.000
53.30485 273.000
53.32480 266.000
53.34475 260.000
53.36469 239.000
53.38464 270.000
53.40459 254.000
53.42454 272.000
53.44448 289.000
53.46443 265.000
53.48438 294.000
53.50432 290.000
53.52427 272.000
53.54422 279.000
53.56416 256.000
53.58411 284.000
53.60406 311.000
53.62401 287.000
53.64395 263.000
53.66390 296.000
53.68385 287.000
53.70379 308.000
53.72374 291.000
53.74369 303.000
53.76363 294.000
53.78358 283.000
53.80353 301.000
53.82348 310.000
53.84342 268.000
53.86337 278.000
53.88332 291.000
53.90326 252.000
53.92321 262.000
53.94316 272.000
53.96310 260.000
53.98305 271.000
54.00300 254.000
54.02294 240.000
54.04289 235.000
54.06284 240.000
54.08279 242.000
54.10273 228.000
54.12268 202.000
54.14263 229.000
54.16257 246.000
54.18252 219.000
54.20247 231.000
54.22241 212.000
54.24236 230.000
54.26231 215.000
54.28226 186.000
54.30220 219.000
54.32215 210.000
54.34210 207.000
54.36204 202.000
54.38199 214.000
54.40194 222.000
54.42188 220.000
54.44183 233.000
54.46178 226.000
54.48172 218.000
54.50167 227.000
54.52162 229.000
54.54157 214.000
54.56151 216.000
54.58146 215.000
54.60141 241.000
54.62135 199.000
54.64130 194.000
54.66125 245.000
54.68119 199.000
54.70114 220.000
54.72109 217.000
54.74104 229.000
54.76098 219.000
54.78093 207.000
54.80088 183.000
54.82082 226.000
54.84077 250.000
54.86072 207.000
54.88066 196.000
54.90061 196.000
54.92056 228.000
54.94050 228.000
54.96045 203.000
54.98040 205.000
55.00035 216.000
55.02029 232.000
55.04024 208.000
55.06019 199.000
55.08013 201.000
55.10008 214.000
55.12003 229.000
55.13997 225.000
55.15992 208.000
55.17987 235.000
55.19982 215.000
55.21976 248.000
55.23971 211.000
55.25966 237.000
55.27960 200.000
55.29955 218.000
55.31950 242.000
55.33944 232.000
55.35939 253.000
55.37934 221.000
55.39929 215.000
55.41923 202.000
55.43918 218.000
55.45913 223.000
55.47907 200.000
55.49902 246.000
55.51897 223.000
55.53891 219.000
55.55886 184.000
55.57881 205.000
55.59875 209.000
55.61870 221.000
55.63865 203.000
55.65860 198.000
55.67854 206.000
55.69849 221.000
55.71844 229.000
55.73838 236.000
55.75833 209.000
55.77828 221.000
55.79822 223.000
55.81817 207.000
55.83812 201.000
55.85807 217.000
55.87801 216.000
55.89796 198.000
55.91791 216.000
55.93785 203.000
55.95780 184.000
55.97775 227.000
55.99769 200.000
56.01764 200.000
56.03759 247.000
56.05753 208.000
56.07748 195.000
56.09743 237.000
56.11738 203.000
56.13732 225.000
56.15727 212.000
56.17722 229.000
56.19716 223.000
56.21711 237.000
56.23706 230.000
56.25700 231.000
56.27695 222.000
56.29690 204.000
56.31685 223.000
56.33679 192.000
56.35674 225.000
56.37669 225.000
56.39663 244.000
56.41658 215.000
56.43653 205.000
56.45647 231.000
56.47642 227.000
56.49637 214.000
56.51631 222.000
56.53626 212.000
56.55621 214.000
56.57616 219.000
56.59610 212.000
56.61605 209.000
56.63600 235.000
56.65594 229.000
56.67589 216.000
56.69584 222.000
56.71578 226.000
56.73573 227.000
56.75568 227.000
56.77563 227.000
56.79557 216.000
56.81552 219.000
56.83547 234.000
56.85541 223.000
56.87536 225.000
56.89531 216.000
56.91525 204.000
56.93520 240.000
56.95515 206.000
56.97510 229.000
56.99504 268.000
57.01499 241.000
57.03494 251.000
57.05488 232.000
57.07483 267.000
57.09478 240.000
57.11472 245.000
57.13467 278.000
57.15462 281.000
57.17456 298.000
57.19451 311.000
57.21446 300.000
57.23441 330.000
57.25435 363.000
57.27430 377.000
57.29425 443.000
57.31419 456.000
57.33414 405.000
57.35409 450.000
57.37403 452.000
57.39398 430.000
57.41393 400.000
57.43388 419.000
57.45382 402.000
57.47377 367.000
57.49372 330.000
57.51366 377.000
57.53361 373.000
57.55356 325.000
57.57350 327.000
57.59345 321.000
57.61340 274.000
57.63334 289.000
57.65329 294.000
57.67324 252.000
57.69319 254.000
57.71313 275.000
57.73308 225.000
57.75303 249.000
57.77297 244.000
57.79292 233.000
57.81287 224.000
57.83281 236.000
57.85276 250.000
57.87271 262.000
57.89266 273.000
57.91260 240.000
57.93255 213.000
57.95250 247.000
57.97244 250.000
57.99239 212.000
58.01234 241.000
58.03228 212.000
58.05223 249.000
58.07218 255.000
58.09212 230.000
58.11207 249.000
58.13202 264.000
58.15197 264.000
58.17191 277.000
58.19186 274.000
58.21181 298.000
58.23175 336.000
58.25170 340.000
58.27165 345.000
58.29159 358.000
58.31154 342.000
58.33149 351.000
58.35144 328.000
58.37138 382.000
58.39133 335.000
58.41128 336.000
58.43122 337.000
58.45117 314.000
58.47112 323.000
58.49106 313.000
58.51101 289.000
58.53096 297.000
58.55090 259.000
58.57085 245.000
58.59080 246.000
58.61075 239.000
58.63069 223.000
58.65064 242.000
58.67059 222.000
58.69053 231.000
58.71048 240.000
58.73043 245.000
58.75037 225.000
58.77032 235.000
58.79027 221.000
58.81022 274.000
58.83016 232.000
58.85011 215.000
58.87006 213.000
58.89000 230.000
58.90995 244.000
58.92990 216.000
58.94984 207.000
58.96979 226.000
58.98974 223.000
59.00969 231.000
59.02963 246.000
59.04958 218.000
59.06953 207.000
59.08947 240.000
59.10942 232.000
59.12937 239.000
59.14931 217.000
59.16926 232.000
59.18921 212.000
59.20915 233.000
59.22910 212.000
59.24905 226.000
59.26900 225.000
59.28894 207.000
59.30889 219.000
59.32884 215.000
59.34878 232.000
59.36873 226.000
59.38868 227.000
59.40862 211.000
59.42857 224.000
59.44852 240.000
59.46847 237.000
59.48841 216.000
59.50836 229.000
59.52831 204.000
59.54825 230.000
59.56820 211.000
59.58815 186.000
59.60809 210.000
59.62804 224.000
59.64799 219.000
59.66793 212.000
59.68788 202.000
59.70783 215.000
59.72778 210.000
59.74772 219.000
59.76767 207.000
59.78762 227.000
59.80756 205.000
59.82751 206.000
59.84746 230.000
59.86740 216.000
59.88735 221.000
59.90730 216.000
59.92725 210.000
59.94719 232.000
59.96714 212.000
59.98709 250.000
60.00703 246.000
60.02698 230.000
60.04693 247.000
60.06687 202.000
60.08682 200.000
60.10677 210.000
60.12671 211.000
60.14666 220.000
60.16661 227.000
60.18656 227.000
60.20650 214.000
60.22645 214.000
60.24640 230.000
60.26634 223.000
60.28629 225.000
60.30624 232.000
60.32618 207.000
60.34613 222.000
60.36608 219.000
60.38603 254.000
60.40597 241.000
60.42592 220.000
60.44587 237.000
60.46581 221.000
60.48576 217.000
60.50571 204.000
60.52565 197.000
60.54560 244.000
60.56555 240.000
60.58550 222.000
60.60544 236.000
60.62539 222.000
60.64534 223.000
60.66528 210.000
60.68523 240.000
60.70518 227.000
60.72512 260.000
60.74507 238.000
60.76502 237.000
60.78496 250.000
60.80491 228.000
60.82486 242.000
60.84481 231.000
60.86475 244.000
60.88470 232.000
60.90465 218.000
60.92459 234.000
60.94454 215.000
60.96449 239.000
60.98443 211.000
61.00438 204.000
61.02433 230.000
61.04428 236.000
61.06422 230.000
61.08417 212.000
61.10412 239.000
61.12406 237.000
61.14401 207.000
61.16396 248.000
61.18390 273.000
61.20385 232.000
61.22380 257.000
61.24374 240.000
61.26369 233.000
61.28364 239.000
61.30359 271.000
61.32353 253.000
61.34348 217.000
61.36343 258.000
61.38337 256.000
61.40332 258.000
61.42327 277.000
61.44321 263.000
61.46316 334.000
61.48311 294.000
61.50306 361.000
61.52300 351.000
61.54295 373.000
61.56290 416.000
61.58284 456.000
61.60279 470.000
61.62274 462.000
61.64268 480.000
61.66263 528.000
61.68258 485.000
61.70252 541.000
61.72247 532.000
61.74242 521.000
61.76237 602.000
61.78231 577.000
61.80226 607.000
61.82221 668.000
61.84215 623.000
61.86210 661.000
61.88205 612.000
61.90199 602.000
61.92194 557.000
61.94189 617.000
61.96184 572.000
61.98178 548.000
62.00173 512.000
62.02168 498.000
62.04162 462.000
62.06157 418.000
62.08152 451.000
62.10146 377.000
62.12141 376.000
62.14136 346.000
62.16131 367.000
62.18125 343.000
62.20120 268.000
62.22115 285.000
62.24109 273.000
62.26104 254.000
62.28099 303.000
62.30093 295.000
62.32088 258.000
62.34083 230.000
62.36077 279.000
62.38072 252.000
62.40067 244.000
62.42062 262.000
62.44056 242.000
62.46051 253.000
62.48046 245.000
62.50040 218.000
62.52035 294.000
62.54030 223.000
62.56024 270.000
62.58019 238.000
62.60014 244.000
62.62009 261.000
62.64003 230.000
62.65998 262.000
62.67993 283.000
62.69987 272.000
62.71982 258.000
62.73977 279.000
62.75971 314.000
62.77966 308.000
62.79961 318.000
62.81955 330.000
62.83950 361.000
62.85945 394.000
62.87940 420.000
62.89934 394.000
62.91929 463.000
62.93924 466.000
62.95918 499.000
62.97913 488.000
62.99908 473.000
63.01902 425.000
63.03897 455.000
63.05892 448.000
63.07887 413.000
63.09881 437.000
63.11876 409.000
63.13871 396.000
63.15865 357.000
63.17860 381.000
63.19855 340.000
63.21849 299.000
63.23844 336.000
63.25839 288.000
63.27833 284.000
63.29828 305.000
63.31823 284.000
63.33818 293.000
63.35812 247.000
63.37807 246.000
63.39802 230.000
63.41796 270.000
63.43791 253.000
63.45786 238.000
63.47780 227.000
63.49775 227.000
63.51770 267.000
63.53765 256.000
63.55759 233.000
63.57754 228.000
63.59749 234.000
63.61743 223.000
63.63738 234.000
63.65733 212.000
63.67727 242.000
63.69722 231.000
63.71717 217.000
63.73712 230.000
63.75706 215.000
63.77701 209.000
63.79696 218.000
63.81690 252.000
63.83685 260.000
63.85680 244.000
63.87674 224.000
63.89669 226.000
63.91664 244.000
63.93658 231.000
63.95653 255.000
63.97648 199.000
63.99643 233.000
64.01637 256.000
64.03632 242.000
64.05627 235.000
64.07621 234.000
64.09616 226.000
64.11611 236.000
64.13605 229.000
64.15600 261.000
64.17595 262.000
64.19590 276.000
64.21584 292.000
64.23579 248.000
64.25574 265.000
64.27568 283.000
64.29563 275.000
64.31558 288.000
64.33552 333.000
64.35547 376.000
64.37542 366.000
64.39536 462.000
64.41531 458.000
64.43526 521.000
64.45521 547.000
64.47515 488.000
64.49510 534.000
64.51505 481.000
64.53499 517.000
64.55494 472.000
64.57489 468.000
64.59483 437.000
64.61478 414.000
64.63473 403.000
64.65468 407.000
64.67462 439.000
64.69457 409.000
64.71452 330.000
64.73446 342.000
64.75441 333.000
64.77436 306.000
64.79430 267.000
64.81425 259.000
64.83420 241.000
64.85414 256.000
64.87409 242.000
64.89404 228.000
64.91399 263.000
64.93393 273.000
64.95388 253.000
64.97383 238.000
64.99377 250.000
65.01372 261.000
65.03367 221.000
65.05361 247.000
65.07356 234.000
65.09351 233.000
65.11346 235.000
65.13340 230.000
65.15335 239.000
65.17330 228.000
65.19324 253.000
65.21319 218.000
65.23314 219.000
65.25308 211.000
65.27303 256.000
65.29298 240.000
65.31293 221.000
65.33287 215.000
65.35282 262.000
65.37277 260.000
65.39271 203.000
65.41266 246.000
65.43261 274.000
65.45255 252.000
65.47250 206.000
65.49245 267.000
65.51239 257.000
65.53234 243.000
65.55229 245.000
65.57224 283.000
65.59218 296.000
65.61213 288.000
65.63208 269.000
65.65202 304.000
65.67197 288.000
65.69192 256.000
65.71186 327.000
65.73181 313.000
65.75176 321.000
65.77171 290.000
65.79165 293.000
65.81160 294.000
65.83155 320.000
65.85149 353.000
65.87144 332.000
65.89139 360.000
65.91133 349.000
65.93128 338.000
65.95123 322.000
65.97117 294.000
65.99112 314.000
66.01107 330.000
66.03102 312.000
66.05096 272.000
66.07091 298.000
66.09086 293.000
66.11080 287.000
66.13075 318.000
66.15070 304.000
66.17064 289.000
66.19059 286.000
66.21054 338.000
66.23049 356.000
66.25043 332.000
66.27038 368.000
66.29033 390.000
66.31027 376.000
66.33022 401.000
66.35017 396.000
66.37011 408.000
66.39006 403.000
66.41001 392.000
66.42995 364.000
66.44990 429.000
66.46985 395.000
66.48980 407.000
66.50974 347.000
66.52969 374.000
66.54964 351.000
66.56958 357.000
66.58953 356.000
66.60948 356.000
66.62942 342.000
66.64937 338.000
66.66932 357.000
66.68927 344.000
66.70921 345.000
66.72916 424.000
66.74911 363.000
66.76905 443.000
66.78900 401.000
66.80895 447.000
66.82889 445.000
66.84884 480.000
66.86879 413.000
66.88874 421.000
66.90868 407.000
66.92863 392.000
66.94858 359.000
66.96852 413.000
66.98847 350.000
67.00842 351.000
67.02836 352.000
67.04831 339.000
67.06826 288.000
67.08820 345.000
67.10815 286.000
67.12810 272.000
67.14805 296.000
67.16799 304.000
67.18794 273.000
67.20789 243.000
67.22783 261.000
67.24778 245.000
67.26773 244.000
67.28767 260.000
67.30762 232.000
67.32757 237.000
67.34752 212.000
67.36746 241.000
67.38741 251.000
67.40736 219.000
67.42730 232.000
67.44725 229.000
67.46720 220.000
67.48714 214.000
67.50709 234.000
67.52704 234.000
67.54698 227.000
67.56693 208.000
67.58688 246.000
67.60683 241.000
67.62677 275.000
67.64672 281.000
67.66667 247.000
67.68661 248.000
67.70656 259.000
67.72651 243.000
67.74645 259.000
67.76640 272.000
67.78635 283.000
67.80630 280.000
67.82624 293.000
67.84619 311.000
67.86614 323.000
67.88608 297.000
67.90603 346.000
67.92598 323.000
67.94592 299.000
67.96587 315.000
67.98582 307.000
68.00576 360.000
68.02571 361.000
68.04566 378.000
68.06561 385.000
68.08555 351.000
68.10550 353.000
68.12545 367.000
68.14539 321.000
68.16534 355.000
68.18529 332.000
68.20523 344.000
68.22518 340.000
68.24513 346.000
68.26508 311.000
68.28502 312.000
68.30497 329.000
68.32492 314.000
68.34486 315.000
68.36481 278.000
68.38476 247.000
68.40470 268.000
68.42465 262.000
68.44460 245.000
68.46455 236.000
68.48449 238.000
68.50444 222.000
68.52439 253.000
68.54433 237.000
68.56428 230.000
68.58423 230.000
68.60417 235.000
68.62412 226.000
68.64407 195.000
68.66401 204.000
68.68396 264.000
68.70391 236.000
68.72386 194.000
68.74380 173.000
68.76375 215.000
68.78370 220.000
68.80364 207.000
68.82359 228.000
68.84354 220.000
68.86348 222.000
68.88343 228.000
68.90338 237.000
68.92333 215.000
68.94327 210.000
68.96322 233.000
68.98317 228.000
69.00311 212.000
69.02306 212.000
69.04301 208.000
69.06295 228.000
69.08290 227.000
69.10285 206.000
69.12279 208.000
69.14274 224.000
69.16269 224.000
69.18264 201.000
69.20258 206.000
69.22253 228.000
69.24248 230.000
69.26242 225.000
69.28237 213.000
69.30232 200.000
69.32226 237.000
69.34221 220.000
69.36216 235.000
69.38211 202.000
69.40205 233.000
69.42200 221.000
69.44195 225.000
69.46189 219.000
69.48184 227.000
69.50179 235.000
69.52173 226.000
69.54168 233.000
69.56163 225.000
69.58157 226.000
69.60152 253.000
69.62147 214.000
69.64142 234.000
69.66136 231.000
69.68131 223.000
69.70126 212.000
69.72120 217.000
69.74115 205.000
69.76110 250.000
69.78104 208.000
69.80099 234.000
69.82094 228.000
69.84089 191.000
69.86083 233.000
69.88078 230.000
69.90073 209.000
69.92067 254.000
69.94062 210.000
69.96057 222.000
69.98051 218.000
70.00046 208.000
70.02041 214.000
70.04035 239.000
70.06030 203.000
70.08025 231.000
70.10020 214.000
70.12014 220.000
70.14009 237.000
70.16004 223.000
70.17998 250.000
70.19993 199.000
70.21988 228.000
70.23982 229.000
70.25977 227.000
70.27972 229.000
70.29967 205.000
70.31961 219.000
70.33956 229.000
70.35951 215.000
70.37945 213.000
70.39940 218.000
70.41935 234.000
70.43929 187.000
70.45924 198.000
70.47919 201.000
70.49914 218.000
70.51908 206.000
70.53903 202.000
70.55898 212.000
70.57892 211.000
70.59887 213.000
70.61882 198.000
70.63876 189.000
70.65871 221.000
70.67866 191.000
70.69860 209.000
70.71855 232.000
70.73850 193.000
70.75845 216.000
70.77839 202.000
70.79834 226.000
70.81829 238.000
70.83823 213.000
70.85818 226.000
70.87813 192.000
70.89807 223.000
70.91802 214.000
70.93797 194.000
70.95792 230.000
70.97786 212.000
70.99781 207.000
71.01776 201.000
71.03770 221.000
71.05765 225.000
71.07760 207.000
71.09754 228.000
71.11749 214.000
71.13744 214.000
71.15738 234.000
71.17733 242.000
71.19728 220.000
71.21723 241.000
71.23717 217.000
71.25712 231.000
71.27707 259.000
71.29701 236.000
71.31696 248.000
71.33691 255.000
71.35685 223.000
71.37680 228.000
71.39675 216.000
71.41670 238.000
71.43664 237.000
71.45659 215.000
71.47654 232.000
71.49648 247.000
71.51643 227.000
71.53638 261.000
71.55632 227.000
71.57627 226.000
71.59622 236.000
71.61616 251.000
71.63611 245.000
71.65606 235.000
71.67601 236.000
71.69595 208.000
71.71590 224.000
71.73585 226.000
71.75579 218.000
71.77574 237.000
71.79569 217.000
71.81563 223.000
71.83558 232.000
71.85553 234.000
71.87548 220.000
71.89542 254.000
71.91537 192.000
71.93532 240.000
71.95526 216.000
71.97521 236.000
71.99516 243.000
72.01510 240.000
72.03505 255.000
72.05500 219.000
72.07495 222.000
72.09489 232.000
72.11484 203.000
72.13479 237.000
72.15473 211.000
72.17468 211.000
72.19463 212.000
72.21457 221.000
72.23452 225.000
72.25447 232.000
72.27441 264.000
72.29436 260.000
72.31431 238.000
72.33426 278.000
72.35420 282.000
72.37415 263.000
72.39410 294.000
72.41404 258.000
72.43399 310.000
72.45394 271.000
72.47388 280.000
72.49383 265.000
72.51378 288.000
72.53373 259.000
72.55367 270.000
72.57362 264.000
72.59357 271.000
72.61351 285.000
72.63346 262.000
72.65341 254.000
72.67335 231.000
72.69330 242.000
72.71325 277.000
72.73319 242.000
72.75314 241.000
72.77309 261.000
72.79304 226.000
72.81298 235.000
72.83293 246.000
72.85288 233.000
72.87282 235.000
72.89277 212.000
72.91272 252.000
72.93266 240.000
72.95261 215.000
72.97256 242.000
72.99251 237.000
73.01245 201.000
73.03240 219.000
73.05235 199.000
73.07229 208.000
73.09224 226.000
73.11219 231.000
73.13213 203.000
73.15208 210.000
73.17203 193.000
73.19197 218.000
73.21192 258.000
73.23187 250.000
73.25182 217.000
73.27176 218.000
73.29171 246.000
73.31166 214.000
73.33160 243.000
73.35155 227.000
73.37150 228.000
73.39144 231.000
73.41139 249.000
73.43134 242.000
73.45129 244.000
73.47123 246.000
73.49118 274.000
73.51113 266.000
73.53107 266.000
73.55102 259.000
73.57097 272.000
73.59091 273.000
73.61086 305.000
73.63081 262.000
73.65076 283.000
73.67070 310.000
73.69065 277.000
73.71060 278.000
73.73054 297.000
73.75049 263.000
73.77044 321.000
73.79038 286.000
73.81033 293.000
73.83028 305.000
73.85022 291.000
73.87017 267.000
73.89012 314.000
73.91007 264.000
73.93001 249.000
73.94996 261.000
73.96991 261.000
73.98985 291.000
74.00980 241.000
74.02975 249.000
74.04969 253.000
74.06964 240.000
74.08959 263.000
74.10954 212.000
74.12948 211.000
74.14943 233.000
74.16938 230.000
74.18932 238.000
74.20927 242.000
74.22922 204.000
74.24916 218.000
74.26911 185.000
74.28906 235.000
74.30900 226.000
74.32895 238.000
74.34890 236.000
74.36885 238.000
74.38879 271.000
74.40874 232.000
74.42869 287.000
74.44863 247.000
74.46858 285.000
74.48853 258.000
74.50847 276.000
74.52842 239.000
74.54837 289.000
74.56832 265.000
74.58826 258.000
74.60821 261.000
74.62816 263.000
74.64810 248.000
74.66805 252.000
74.68800 250.000
74.70794 259.000
74.72789 259.000
74.74784 223.000
74.76778 312.000
74.78773 265.000
74.80768 262.000
74.82763 273.000
74.84757 238.000
74.86752 246.000
74.88747 247.000
74.90741 232.000
74.92736 259.000
74.94731 285.000
74.96725 288.000
74.98720 286.000
75.00715 288.000
75.02710 292.000
75.04704 281.000
75.06699 266.000
75.08694 292.000
75.10688 303.000
75.12683 272.000
75.14678 285.000
75.16672 276.000
75.18667 282.000
75.20662 288.000
75.22657 292.000
75.24651 281.000
75.26646 310.000
75.28641 304.000
75.30635 330.000
75.32630 307.000
75.34625 308.000
75.36619 297.000
75.38614 267.000
75.40609 314.000
75.42603 295.000
75.44598 252.000
75.46593 289.000
75.48588 271.000
75.50582 290.000
75.52577 273.000
75.54572 260.000
75.56566 311.000
75.58561 261.000
75.60556 276.000
75.62550 267.000
75.64545 253.000
75.66540 253.000
75.68535 260.000
75.70529 225.000
75.72524 236.000
75.74519 260.000
75.76513 240.000
75.78508 226.000
75.80503 247.000
75.82497 233.000
75.84492 239.000
75.86487 232.000
75.88481 257.000
75.90476 253.000
75.92471 254.000
75.94466 213.000
75.96460 240.000
75.98455 252.000
76.00450 252.000
76.02444 272.000
76.04439 260.000
76.06434 257.000
76.08428 248.000
76.10423 257.000
76.12418 252.000
76.14413 256.000
76.16407 261.000
76.18402 266.000
76.20397 231.000
76.22391 238.000
76.24386 250.000
76.26381 254.000
76.28375 233.000
76.30370 266.000
76.32365 246.000
76.34359 227.000
76.36354 250.000
76.38349 248.000
76.40344 212.000
76.42338 230.000
76.44333 207.000
76.46328 217.000
76.48322 224.000
76.50317 213.000
76.52312 209.000
76.54306 212.000
76.56301 249.000
76.58296 229.000
76.60291 209.000
76.62285 219.000
76.64280 248.000
76.66275 218.000
76.68269 248.000
76.70264 195.000
76.72259 203.000
76.74253 229.000
76.76248 219.000
76.78243 211.000
76.80238 194.000
76.82232 224.000
76.84227 218.000
76.86222 217.000
76.88216 209.000
76.90211 206.000
76.92206 241.000
76.94200 217.000
76.96195 217.000
76.98190 242.000
77.00184 217.000
77.02179 248.000
77.04174 216.000
77.06169 203.000
77.08163 219.000
77.10158 207.000
77.12153 170.000
77.14147 212.000
77.16142 203.000
77.18137 217.000
77.20131 210.000
77.22126 230.000
77.24121 231.000
77.26116 222.000
77.28110 229.000
77.30105 228.000
77.32100 216.000
77.34094 241.000
77.36089 223.000
77.38084 231.000
77.40078 253.000
77.42073 219.000
77.44068 240.000
77.46062 246.000
77.48057 222.000
77.50052 212.000
77.52047 244.000
77.54041 239.000
77.56036 248.000
77.58031 237.000
77.60025 254.000
77.62020 240.000
77.64015 244.000
77.66009 219.000
77.68004 240.000
77.69999 258.000
77.71994 271.000
77.73988 256.000
77.75983 262.000
77.77978 270.000
77.79972 292.000
77.81967 275.000
77.83962 295.000
77.85956 313.000
77.87951 316.000
77.89946 319.000
77.91940 292.000
77.93935 318.000
77.95930 344.000
77.97925 302.000
77.99919 285.000
78.01914 326.000
78.03909 303.000
78.05903 315.000
78.07898 326.000
78.09893 346.000
78.11887 366.000
78.13882 339.000
78.15877 367.000
78.17872 327.000
78.19866 327.000
78.21861 388.000
78.23856 356.000
78.25850 337.000
78.27845 291.000
78.29840 313.000
78.31834 300.000
78.33829 293.000
78.35824 297.000
78.37819 315.000
78.39813 293.000
78.41808 311.000
78.43803 290.000
78.45797 317.000
78.47792 295.000
78.49787 304.000
78.51781 276.000
78.53776 274.000
78.55771 266.000
78.57765 261.000
78.59760 262.000
78.61755 254.000
78.63750 216.000
78.65744 235.000
78.67739 245.000
78.69734 231.000
78.71728 230.000
78.73723 199.000
78.75718 245.000
78.77712 233.000
78.79707 208.000
78.81702 222.000
78.83697 218.000
78.85691 231.000
78.87686 209.000
78.89681 228.000
78.91675 218.000
78.93670 219.000
78.95665 251.000
78.97659 221.000
78.99654 231.000
79.01649 224.000
79.03643 215.000
79.05638 226.000
79.07633 212.000
79.09628 236.000
79.11622 232.000
79.13617 245.000
79.15612 233.000
79.17606 225.000
79.19601 218.000
79.21596 206.000
79.23590 206.000
79.25585 208.000
79.27580 206.000
79.29575 248.000
79.31569 236.000
79.33564 237.000
79.35559 236.000
79.37553 238.000
79.39548 238.000
79.41543 231.000
79.43537 221.000
79.45532 242.000
79.47527 221.000
79.49521 284.000
79.51516 215.000
79.53511 234.000
79.55506 214.000
79.57500 223.000
79.59495 269.000
79.61490 217.000
79.63484 214.000
79.65479 232.000
79.67474 233.000
79.69468 236.000
79.71463 207.000
79.73458 232.000
79.75453 218.000
79.77447 218.000
79.79442 217.000
79.81437 211.000
79.83431 253.000
79.85426 222.000
79.87421 220.000
79.89415 219.000
79.91410 230.000
79.93405 237.000
79.95399 241.000
79.97394 220.000
79.99389 200.000
80.01384 217.000
80.03378 234.000
80.05373 195.000
80.07368 207.000
80.09362 209.000
80.11357 225.000
80.13352 242.000
80.15346 225.000
80.17341 236.000
80.19336 224.000
80.21331 246.000
80.23325 220.000
80.25320 227.000
80.27315 228.000
80.29309 260.000
80.31304 223.000
80.33299 222.000
80.35293 229.000
80.37288 242.000
80.39283 234.000
80.41278 243.000
80.43272 232.000
80.45267 228.000
80.47262 275.000
80.49256 232.000
80.51251 260.000
80.53246 237.000
80.55240 229.000
80.57235 236.000
80.59230 217.000
80.61224 247.000
80.63219 196.000
80.65214 231.000
80.67209 242.000
80.69203 247.000
80.71198 227.000
80.73193 218.000
80.75187 253.000
80.77182 240.000
80.79177 197.000
80.81171 232.000
80.83166 229.000
80.85161 204.000
80.87156 213.000
80.89150 240.000
80.91145 232.000
80.93140 234.000
80.95134 246.000
80.97129 245.000
80.99124 237.000
81.01118 239.000
81.03113 224.000
81.05108 245.000
81.07102 205.000
81.09097 214.000
81.11092 238.000
81.13087 250.000
81.15081 237.000
81.17076 248.000
81.19071 248.000
81.21065 244.000
81.23060 236.000
81.25055 221.000
81.27049 231.000
81.29044 215.000
81.31039 182.000
81.33034 239.000
81.35028 232.000
81.37023 247.000
81.39018 220.000
81.41012 198.000
81.43007 211.000
81.45002 210.000
81.46996 220.000
81.48991 217.000
81.50986 244.000
81.52980 204.000
81.54975 237.000
81.56970 222.000
81.58965 219.000
81.60959 205.000
81.62954 202.000
81.64949 219.000
81.66943 217.000
81.68938 218.000
81.70933 216.000
81.72927 225.000
81.74922 249.000
81.76917 206.000
81.78912 211.000
81.80906 223.000
81.82901 213.000
81.84896 218.000
81.86890 227.000
81.88885 211.000
81.90880 211.000
81.92874 222.000
81.94869 207.000
81.96864 219.000
81.98859 238.000
82.00853 203.000
82.02848 220.000
82.04843 225.000
82.06837 225.000
82.08832 215.000
82.10827 224.000
82.12821 210.000
82.14816 215.000
82.16811 230.000
82.18805 232.000
82.20800 208.000
82.22795 245.000
82.24790 234.000
82.26784 236.000
82.28779 226.000
82.30774 214.000
82.32768 244.000
82.34763 236.000
82.36758 211.000
82.38752 197.000
82.40747 244.000
82.42742 224.000
82.44737 250.000
82.46731 269.000
82.48726 235.000
82.50721 266.000
82.52715 259.000
82.54710 255.000
82.56705 265.000
82.58699 261.000
82.60694 278.000
82.62689 267.000
82.64683 272.000
82.66678 246.000
82.68673 254.000
82.70668 274.000
82.72662 267.000
82.74657 235.000
82.76652 254.000
82.78646 260.000
82.80641 235.000
82.82636 256.000
82.84630 283.000
82.86625 228.000
82.88620 231.000
82.90615 239.000
82.92609 248.000
82.94604 247.000
82.96599 231.000
82.98593 239.000
83.00588 248.000
83.02583 228.000
83.04577 257.000
83.06572 236.000
83.08567 243.000
83.10561 242.000
83.12556 228.000
83.14551 214.000
83.16546 239.000
83.18540 266.000
83.20535 234.000
83.22530 232.000
83.24524 240.000
83.26519 228.000
83.28514 274.000
83.30508 234.000
83.32503 237.000
83.34498 216.000
83.36493 256.000
83.38487 224.000
83.40482 249.000
83.42477 254.000
83.44471 249.000
83.46466 253.000
83.48461 261.000
83.50455 241.000
83.52450 242.000
83.54445 220.000
83.56440 241.000
83.58434 237.000
83.60429 249.000
83.62424 247.000
83.64418 248.000
83.66413 262.000
83.68408 242.000
83.70402 247.000
83.72397 249.000
83.74392 238.000
83.76386 252.000
83.78381 256.000
83.80376 250.000
83.82371 233.000
83.84365 264.000
83.86360 237.000
83.88355 257.000
83.90349 265.000
83.92344 240.000
83.94339 237.000
83.96333 255.000
83.98328 226.000
84.00323 233.000
84.02318 243.000
84.04312 215.000
84.06307 213.000
84.08302 204.000
84.10296 254.000
84.12291 226.000
84.14286 237.000
84.16280 221.000
84.18275 235.000
84.20270 214.000
84.22264 211.000
84.24259 250.000
84.26254 205.000
84.28249 239.000
84.30243 259.000
84.32238 239.000
84.34233 229.000
84.36227 229.000
84.38222 239.000
84.40217 229.000
84.42211 214.000
84.44206 234.000
84.46201 253.000
84.48196 267.000
84.50190 260.000
84.52185 244.000
84.54180 254.000
84.56174 263.000
84.58169 254.000
84.60164 281.000
84.62158 292.000
84.64153 327.000
84.66148 290.000
84.68142 309.000
84.70137 307.000
84.72132 292.000
84.74127 318.000
84.76121 335.000
84.78116 324.000
84.80111 305.000
84.82105 303.000
84.84100 313.000
84.86095 259.000
84.88089 302.000
84.90084 283.000
84.92079 280.000
84.94074 294.000
84.96068 292.000
84.98063 276.000
85.00058 287.000
85.02052 267.000
85.04047 264.000
85.06042 274.000
85.08036 254.000
85.10031 260.000
85.12026 282.000
85.14021 275.000
85.16015 249.000
85.18010 230.000
85.20005 235.000
85.21999 251.000
85.23994 211.000
85.25989 249.000
85.27983 233.000
85.29978 228.000
85.31973 246.000
85.33967 207.000
85.35962 232.000
85.37957 242.000
85.39952 221.000
85.41946 218.000
85.43941 211.000
85.45936 224.000
85.47930 246.000
85.49925 224.000
85.51920 203.000
85.53914 209.000
85.55909 214.000
85.57904 231.000
85.59899 219.000
85.61893 227.000
85.63888 228.000
85.65883 191.000
85.67877 219.000
85.69872 221.000
85.71867 205.000
85.73861 252.000
85.75856 206.000
85.77851 223.000
85.79845 225.000
85.81840 193.000
85.83835 249.000
85.85830 201.000
85.87824 218.000
85.89819 238.000
85.91814 206.000
85.93808 225.000
85.95803 236.000
85.97798 226.000
85.99792 225.000
86.01787 200.000
86.03782 226.000
86.05777 222.000
86.07771 202.000
86.09766 218.000
86.11761 205.000
86.13755 230.000
86.15750 201.000
86.17745 224.000
86.19739 230.000
86.21734 217.000
86.23729 198.000
86.25723 216.000
86.27718 208.000
86.29713 236.000
86.31708 244.000
86.33702 224.000
86.35697 233.000
86.37692 256.000
86.39686 228.000
86.41681 219.000
86.43676 262.000
86.45670 235.000
86.47665 231.000
86.49660 236.000
86.51655 229.000
86.53649 243.000
86.55644 213.000
86.57639 259.000
86.59633 254.000
86.61628 249.000
86.63623 214.000
86.65617 203.000
86.67612 244.000
86.69607 226.000
86.71602 237.000
86.73596 224.000
86.75591 254.000
86.77586 230.000
86.79580 252.000
86.81575 206.000
86.83570 222.000
86.85564 225.000
86.87559 256.000
86.89554 237.000
86.91548 256.000
86.93543 263.000
86.95538 260.000
86.97533 225.000
86.99527 261.000
87.01522 240.000
87.03517 221.000
87.05511 253.000
87.07506 260.000
87.09501 232.000
87.11495 240.000
87.13490 225.000
87.15485 237.000
87.17480 245.000
87.19474 236.000
87.21469 244.000
87.23464 265.000
87.25458 239.000
87.27453 245.000
87.29448 260.000
87.31442 250.000
87.33437 248.000
87.35432 242.000
87.37426 259.000
87.39421 197.000
87.41416 232.000
87.43411 226.000
87.45405 258.000
87.47400 245.000
87.49395 247.000
87.51389 212.000
87.53384 243.000
87.55379 246.000
87.57373 245.000
87.59368 232.000
87.61363 257.000
87.63358 241.000
87.65352 254.000
87.67347 237.000
87.69342 245.000
87.71336 223.000
87.73331 231.000
87.75326 225.000
87.77320 224.000
87.79315 215.000
87.81310 242.000
87.83304 216.000
87.85299 241.000
87.87294 233.000
87.89289 223.000
87.91283 242.000
87.93278 214.000
87.95273 207.000
87.97267 222.000
87.99262 268.000
88.01257 187.000
88.03251 213.000
88.05246 216.000
88.07241 212.000
88.09236 215.000
88.11230 238.000
88.13225 222.000
88.15220 230.000
88.17214 229.000
88.19209 231.000
88.21204 231.000
88.23198 214.000
88.25193 202.000
88.27188 201.000
88.29183 245.000
88.31177 226.000
88.33172 207.000
88.35167 221.000
88.37161 193.000
88.39156 222.000
88.41151 207.000
88.43145 202.000
88.45140 232.000
88.47135 217.000
88.49129 236.000
88.51124 209.000
88.53119 226.000
88.55114 206.000
88.57108 204.000
88.59103 214.000
88.61098 212.000
88.63092 217.000
88.65087 200.000
88.67082 205.000
88.69076 224.000
88.71071 229.000
88.73066 234.000
88.75061 221.000
88.77055 203.000
88.79050 227.000
88.81045 225.000
88.83039 219.000
88.85034 218.000
88.87029 221.000
88.89023 213.000
88.91018 236.000
88.93013 216.000
88.95007 209.000
88.97002 231.000
88.98997 235.000
89.00992 207.000
89.02986 232.000
89.04981 202.000
89.06976 206.000
89.08970 230.000
89.10965 219.000
89.12960 214.000
89.14954 230.000
89.16949 222.000
89.18944 220.000
89.20939 233.000
89.22933 249.000
89.24928 231.000
89.26923 217.000
89.28917 234.000
89.30912 227.000
89.32907 248.000
89.34901 212.000
89.36896 236.000
89.38891 234.000
89.40885 235.000
89.42880 226.000
89.44875 253.000
89.46870 234.000
89.48864 253.000
89.50859 245.000
89.52854 236.000
89.54848 226.000
89.56843 222.000
89.58838 237.000
89.60832 234.000
89.62827 244.000
89.64822 258.000
89.66817 255.000
89.68811 254.000
89.70806 238.000
89.72801 235.000
89.74795 248.000
89.76790 251.000
89.78785 235.000
89.80779 256.000
89.82774 226.000
89.84769 260.000
89.86764 260.000
89.88758 210.000
89.90753 243.000
89.92748 245.000
89.94742 246.000
89.96737 235.000
89.98732 238.000
90.00726 246.000
