10.00000 118.000
10.01995 136.000
10.03989 113.000
10.05984 122.000
10.07979 128.000
10.09973 136.000
10.11968 118.000
10.13963 134.000
10.15958 122.000
10.17952 131.000
10.19947 118.000
10.21942 130.000
10.23936 126.000
10.25931 114.000
10.27926 126.000
10.29920 97.000
10.31915 115.000
10.33910 121.000
10.35905 130.000
10.37899 124.000
10.39894 119.000
10.41889 124.000
10.43883 132.000
10.45878 121.000
10.47873 114.000
10.49867 123.000
10.51862 121.000
10.53857 103.000
10.55851 127.000
10.57846 120.000
10.59841 119.000
10.61836 123.000
10.63830 141.000
10.65825 115.000
10.67820 127.000
10.69814 121.000
10.71809 103.000
10.73804 110.000
10.75798 125.000
10.77793 130.000
10.79788 130.000
10.81783 102.000
10.83777 128.000
10.85772 122.000
10.87767 126.000
10.89761 108.000
10.91756 118.000
10.93751 122.000
10.95745 129.000
10.97740 119.000
10.99735 149.000
11.01730 128.000
11.03724 138.000
11.05719 122.000
11.07714 123.000
11.09708 127.000
11.11703 113.000
11.13698 138.000
11.15692 138.000
11.17687 139.000
11.19682 143.000
11.21676 123.000
11.23671 131.000
11.25666 123.000
11.27661 136.000
11.29655 117.000
11.31650 123.000
11.33645 142.000
11.35639 112.000
11.37634 121.000
11.39629 122.000
11.41623 137.000
11.43618 136.000
11.45613 146.000
11.47608 125.000
11.49602 135.000
11.51597 111.000
11.53592 133.000
11.55586 113.000
11.57581 127.000
11.59576 117.000
11.61570 127.000
11.63565 122.000
11.65560 128.000
11.67554 125.000
11.69549 130.000
11.71544 116.000
11.73539 134.000
11.75533 120.000
11.77528 127.000
11.79523 99.000
11.81517 126.000
11.83512 133.000
11.85507 141.000
11.87501 122.000
11.89496 119.000
11.91491 131.000
11.93486 125.000
11.95480 119.000
11.97475 146.000
11.99470 129.000
12.01464 141.000
12.03459 136.000
12.05454 132.000
12.07448 122.000
12.09443 127.000
12.11438 129.000
12.13432 104.000
12.15427 125.000
12.17422 118.000
12.19417 148.000
12.21411 126.000
12.23406 139.000
12.25401 135.000
12.27395 123.000
12.29390 124.000
12.31385 114.000
12.33379 126.000
12.35374 109.000
12.37369 138.000
12.39364 131.000
12.41358 119.000
12.43353 125.000
12.45348 119.000
12.47342 119.000
12.49337 127.000
12.51332 135.000
12.53326 127.000
12.55321 109.000
12.57316 136.000
12.59311 137.000
12.61305 138.000
12.63300 133.000
12.65295 137.000
12.67289 142.000
12.69284 106.000
12.71279 136.000
12.73273 131.000
12.75268 107.000
12.77263 120.000
12.79257 132.000
12.81252 124.000
12.83247 130.000
12.85242 125.000
12.87236 152.000
12.89231 134.000
12.91226 139.000
12.93220 123.000
12.95215 118.000
12.97210 130.000
12.99204 118.000
13.01199 133.000
13.03194 137.000
13.05189 116.000
13.07183 116.000
13.09178 129.000
13.11173 145.000
13.13167 134.000
13.15162 128.000
13.17157 142.000
13.19151 137.000
13.21146 154.000
13.23141 134.000
13.25135 107.000
13.27130 137.000
13.29125 133.000
13.31120 120.000
13.33114 145.000
13.35109 136.000
13.37104 134.000
13.39098 134.000
13.41093 154.000
13.43088 124.000
13.45082 122.000
13.47077 128.000
13.49072 112.000
13.51067 154.000
13.53061 131.000
13.55056 123.000
13.57051 124.000
13.59045 135.000
13.61040 126.000
13.63035 131.000
13.65029 130.000
13.67024 138.000
13.69019 141.000
13.71013 128.000
13.73008 138.000
13.75003 136.000
13.76998 123.000
13.78992 155.000
13.80987 117.000
13.82982 134.000
13.84976 116.000
13.86971 134.000
13.88966 132.000
13.90960 127.000
13.92955 126.000
13.94950 138.000
13.96945 130.000
13.98939 127.000
14.00934 143.000
14.02929 138.000
14.04923 148.000
14.06918 124.000
14.08913 143.000
14.10907 118.000
14.12902 136.000
14.14897 124.000
14.16892 122.000
14.18886 132.000
14.20881 139.000
14.22876 116.000
14.24870 125.000
14.26865 120.000
14.28860 131.000
14.30854 140.000
14.32849 148.000
14.34844 137.000
14.36838 136.000
14.38833 141.000
14.40828 150.000
14.42823 135.000
14.44817 135.000
14.46812 133.000
14.48807 168.000
14.50801 135.000
14.52796 135.000
14.54791 127.000
14.56785 142.000
14.58780 133.000
14.60775 133.000
14.62770 127.000
14.64764 130.000
14.66759 145.000
14.68754 129.000
14.70748 133.000
14.72743 136.000
14.74738 148.000
14.76732 139.000
14.78727 145.000
14.80722 158.000
14.82716 129.000
14.84711 126.000
14.86706 151.000
14.88701 143.000
14.90695 108.000
14.92690 129.000
14.94685 130.000
14.96679 145.000
14.98674 140.000
15.00669 147.000
15.02663 128.000
15.04658 124.000
15.06653 155.000
15.08648 147.000
15.10642 165.000
15.12637 135.000
15.14632 155.000
15.16626 163.000
15.18621 171.000
15.20616 152.000
15.22610 159.000
15.24605 166.000
15.26600 159.000
15.28594 172.000
15.30589 180.000
15.32584 168.000
15.34579 160.000
15.36573 194.000
15.38568 191.000
15.40563 175.000
15.42557 206.000
15.44552 172.000
15.46547 177.000
15.48541 172.000
15.50536 200.000
15.52531 218.000
15.54526 189.000
15.56520 189.000
15.58515 195.000
15.60510 247.000
15.62504 237.000
15.64499 247.000
15.66494 256.000
15.68488 323.000
15.70483 410.000
15.72478 530.000
15.74472 681.000
15.76467 946.000
15.78462 1485.000
15.80457 2146.000
15.82451 2734.000
15.84446 3943.000
15.86441 4601.000
15.88435 5094.000
15.90430 5710.000
15.92425 5686.000
15.94419 4975.000
15.96414 4317.000
15.98409 3828.000
16.00404 2892.000
16.02398 1988.000
16.04393 1244.000
16.06388 768.000
16.08382 523.000
16.10377 561.000
16.12372 619.000
16.14366 775.000
16.16361 883.000
16.18356 980.000
16.20351 1161.000
16.22345 1321.000
16.24340 1466.000
16.26335 1508.000
16.28329 1522.000
16.30324 1401.000
16.32319 1288.000
16.34313 1060.000
16.36308 830.000
16.38303 651.000
16.40297 507.000
16.42292 412.000
16.44287 323.000
16.46282 232.000
16.48276 209.000
16.50271 197.000
16.52266 195.000
16.54260 177.000
16.56255 175.000
16.58250 149.000
16.60244 179.000
16.62239 180.000
16.64234 189.000
16.66229 129.000
16.68223 167.000
16.70218 153.000
16.72213 155.000
16.74207 168.000
16.76202 155.000
16.78197 165.000
16.80191 163.000
16.82186 163.000
16.84181 177.000
16.86175 156.000
16.88170 158.000
16.90165 164.000
16.92160 152.000
16.94154 148.000
16.96149 159.000
16.98144 142.000
17.00138 145.000
17.02133 162.000
17.04128 122.000
17.06122 144.000
17.08117 143.000
17.10112 142.000
17.12107 142.000
17.14101 132.000
17.16096 141.000
17.18091 145.000
17.20085 142.000
17.22080 142.000
17.24075 141.000
17.26069 146.000
17.28064 140.000
17.30059 142.000
17.32053 129.000
17.34048 124.000
17.36043 127.000
17.38038 126.000
17.40032 155.000
17.42027 136.000
17.44022 143.000
17.46016 141.000
17.48011 116.000
17.50006 126.000
17.52000 156.000
17.53995 148.000
17.55990 127.000
17.57985 125.000
17.59979 133.000
17.61974 158.000
17.63969 147.000
17.65963 135.000
17.67958 148.000
17.69953 148.000
17.71947 130.000
17.73942 139.000
17.75937 144.000
17.77932 143.000
17.79926 147.000
17.81921 139.000
17.83916 114.000
17.85910 133.000
17.87905 142.000
17.89900 151.000
17.91894 131.000
17.93889 148.000
17.95884 137.000
17.97878 126.000
17.99873 144.000
18.01868 130.000
18.03863 141.000
18.05857 136.000
18.07852 126.000
18.09847 123.000
18.11841 136.000
18.13836 147.000
18.15831 147.000
18.17825 131.000
18.19820 135.000
18.21815 148.000
18.23810 169.000
18.25804 123.000
18.27799 131.000
18.29794 144.000
18.31788 131.000
18.33783 119.000
18.35778 132.000
18.37772 156.000
18.39767 170.000
18.41762 148.000
18.43756 173.000
18.45751 156.000
18.47746 152.000
18.49741 154.000
18.51735 146.000
18.53730 163.000
18.55725 159.000
18.57719 137.000
18.59714 149.000
18.61709 147.000
18.63703 144.000
18.65698 147.000
18.67693 138.000
18.69688 114.000
18.71682 133.000
18.73677 115.000
18.75672 116.000
18.77666 131.000
18.79661 136.000
18.81656 131.000
18.83650 132.000
18.85645 115.000
18.87640 145.000
18.89634 131.000
18.91629 119.000
18.93624 142.000
18.95619 143.000
18.97613 133.000
18.99608 133.000
19.01603 141.000
19.03597 165.000
19.05592 131.000
19.07587 140.000
19.09581 157.000
19.11576 112.000
19.13571 159.000
19.15566 129.000
19.17560 140.000
19.19555 149.000
19.21550 142.000
19.23544 114.000
19.25539 135.000
19.27534 148.000
19.29528 148.000
19.31523 121.000
19.33518 127.000
19.35513 121.000
19.37507 147.000
19.39502 154.000
19.41497 119.000
19.43491 135.000
19.45486 143.000
19.47481 143.000
19.49475 128.000
19.51470 138.000
19.53465 138.000
19.55459 140.000
19.57454 164.000
19.59449 137.000
19.61444 148.000
19.63438 145.000
19.65433 161.000
19.67428 141.000
19.69422 145.000
19.71417 135.000
19.73412 134.000
19.75406 145.000
19.77401 132.000
19.79396 161.000
19.81391 138.000
19.83385 153.000
19.85380 123.000
19.87375 128.000
19.89369 128.000
19.91364 123.000
19.93359 138.000
19.95353 135.000
19.97348 149.000
19.99343 113.000
20.01337 120.000
20.03332 133.000
20.05327 149.000
20.07322 127.000
20.09316 128.000
20.11311 133.000
20.13306 107.000
20.15300 139.000
20.17295 141.000
20.19290 122.000
20.21284 160.000
20.23279 134.000
20.25274 152.000
20.27269 141.000
20.29263 143.000
20.31258 129.000
20.33253 143.000
20.35247 135.000
20.37242 148.000
20.39237 131.000
20.41231 136.000
20.43226 128.000
20.45221 120.000
20.47215 140.000
20.49210 141.000
20.51205 146.000
20.53200 148.000
20.55194 134.000
20.57189 152.000
20.59184 166.000
20.61178 125.000
20.63173 145.000
20.65168 143.000
20.67162 133.000
20.69157 155.000
20.71152 147.000
20.73147 141.000
20.75141 131.000
20.77136 163.000
20.79131 175.000
20.81125 175.000
20.83120 175.000
20.85115 182.000
20.87109 234.000
20.89104 189.000
20.91099 243.000
20.93094 252.000
20.95088 242.000
20.97083 270.000
20.99078 209.000
21.01072 203.000
21.03067 189.000
21.05062 186.000
21.07056 204.000
21.09051 162.000
21.11046 183.000
21.13040 190.000
21.15035 145.000
21.17030 158.000
21.19025 168.000
21.21019 148.000
21.23014 153.000
21.25009 157.000
21.27003 146.000
21.28998 140.000
21.30993 124.000
21.32987 136.000
21.34982 142.000
21.36977 139.000
21.38972 120.000
21.40966 143.000
21.42961 125.000
21.44956 131.000
21.46950 124.000
21.48945 149.000
21.50940 145.000
21.52934 134.000
21.54929 140.000
21.56924 153.000
21.58918 149.000
21.60913 128.000
21.62908 144.000
21.64903 144.000
21.66897 148.000
21.68892 130.000
21.70887 159.000
21.72881 127.000
21.74876 141.000
21.76871 137.000
21.78865 161.000
21.80860 133.000
21.82855 154.000
21.84850 126.000
21.86844 143.000
21.88839 139.000
21.90834 130.000
21.92828 136.000
21.94823 126.000
21.96818 123.000
21.98812 138.000
22.00807 136.000
22.02802 141.000
22.04796 152.000
22.06791 152.000
22.08786 137.000
22.10781 164.000
22.12775 144.000
22.14770 131.000
22.16765 136.000
22.18759 142.000
22.20754 157.000
22.22749 125.000
22.24743 145.000
22.26738 148.000
22.28733 141.000
22.30728 144.000
22.32722 150.000
22.34717 134.000
22.36712 132.000
22.38706 132.000
22.40701 164.000
22.42696 146.000
22.44690 144.000
22.46685 132.000
22.48680 163.000
22.50675 151.000
22.52669 144.000
22.54664 155.000
22.56659 148.000
22.58653 152.000
22.60648 138.000
22.62643 150.000
22.64637 116.000
22.66632 146.000
22.68627 139.000
22.70621 151.000
22.72616 157.000
22.74611 135.000
22.76606 145.000
22.78600 142.000
22.80595 147.000
22.82590 157.000
22.84584 129.000
22.86579 141.000
22.88574 167.000
22.90568 125.000
22.92563 136.000
22.94558 164.000
22.96553 140.000
22.98547 138.000
23.00542 143.000
23.02537 157.000
23.04531 147.000
23.06526 148.000
23.08521 141.000
23.10515 142.000
23.12510 147.000
23.14505 156.000
23.16499 142.000
23.18494 146.000
23.20489 134.000
23.22484 158.000
23.24478 143.000
23.26473 131.000
23.28468 128.000
23.30462 158.000
23.32457 150.000
23.34452 144.000
23.36446 149.000
23.38441 140.000
23.40436 142.000
23.42431 154.000
23.44425 141.000
23.46420 146.000
23.48415 125.000
23.50409 192.000
23.52404 136.000
23.54399 161.000
23.56393 144.000
23.58388 166.000
23.60383 168.000
23.62377 140.000
23.64372 153.000
23.66367 162.000
23.68362 127.000
23.70356 156.000
23.72351 168.000
23.74346 130.000
23.76340 138.000
23.78335 136.000
23.80330 150.000
23.82324 124.000
23.84319 138.000
23.86314 159.000
23.88309 126.000
23.90303 111.000
23.92298 156.000
23.94293 139.000
23.96287 171.000
23.98282 120.000
24.00277 119.000
24.02271 157.000
24.04266 149.000
24.06261 170.000
24.08256 152.000
24.10250 149.000
24.12245 142.000
24.14240 157.000
24.16234 148.000
24.18229 143.000
24.20224 154.000
24.22218 171.000
24.24213 155.000
24.26208 141.000
24.28202 155.000
24.30197 145.000
24.32192 144.000
24.34187 140.000
24.36181 145.000
24.38176 141.000
24.40171 157.000
24.42165 144.000
24.44160 148.000
24.46155 133.000
24.48149 170.000
24.50144 171.000
24.52139 170.000
24.54134 138.000
24.56128 142.000
24.58123 147.000
24.60118 151.000
24.62112 123.000
24.64107 143.000
24.66102 145.000
24.68096 140.000
24.70091 145.000
24.72086 165.000
24.74080 148.000
24.76075 177.000
24.78070 167.000
24.80065 163.000
24.82059 141.000
24.84054 138.000
24.86049 158.000
24.88043 139.000
24.90038 139.000
24.92033 158.000
24.94027 134.000
24.96022 148.000
24.98017 143.000
25.00012 139.000
25.02006 141.000
25.04001 135.000
25.05996 151.000
25.07990 161.000
25.09985 130.000
25.11980 167.000
25.13974 124.000
25.15969 114.000
25.17964 164.000
25.19958 162.000
25.21953 147.000
25.23948 157.000
25.25943 174.000
25.27937 156.000
25.29932 148.000
25.31927 133.000
25.33921 138.000
25.35916 159.000
25.37911 152.000
25.39905 164.000
25.41900 133.000
25.43895 168.000
25.45890 155.000
25.47884 116.000
25.49879 143.000
25.51874 132.000
25.53868 145.000
25.55863 167.000
25.57858 152.000
25.59852 161.000
25.61847 132.000
25.63842 144.000
25.65837 145.000
25.67831 156.000
25.69826 140.000
25.71821 128.000
25.73815 156.000
25.75810 152.000
25.77805 177.000
25.79799 146.000
25.81794 139.000
25.83789 159.000
25.85783 149.000
25.87778 147.000
25.89773 150.000
25.91768 145.000
25.93762 136.000
25.95757 164.000
25.97752 166.000
25.99746 144.000
26.01741 146.000
26.03736 145.000
26.05730 157.000
26.07725 132.000
26.09720 135.000
26.11715 147.000
26.13709 158.000
26.15704 149.000
26.17699 161.000
26.19693 168.000
26.21688 142.000
26.23683 141.000
26.25677 141.000
26.27672 146.000
26.29667 152.000
26.31661 139.000
26.33656 152.000
26.35651 144.000
26.37646 147.000
26.39640 181.000
26.41635 155.000
26.43630 172.000
26.45624 135.000
26.47619 148.000
26.49614 135.000
26.51608 156.000
26.53603 150.000
26.55598 150.000
26.57593 165.000
26.59587 149.000
26.61582 148.000
26.63577 155.000
26.65571 170.000
26.67566 179.000
26.69561 160.000
26.71555 138.000
26.73550 148.000
26.75545 132.000
26.77539 168.000
26.79534 142.000
26.81529 141.000
26.83524 159.000
26.85518 165.000
26.87513 176.000
26.89508 162.000
26.91502 172.000
26.93497 151.000
26.95492 154.000
26.97486 159.000
26.99481 140.000
27.01476 155.000
27.03471 152.000
27.05465 148.000
27.07460 164.000
27.09455 159.000
27.11449 157.000
27.13444 145.000
27.15439 138.000
27.17433 164.000
27.19428 156.000
27.21423 163.000
27.23417 156.000
27.25412 145.000
27.27407 159.000
27.29402 160.000
27.31396 149.000
27.33391 169.000
27.35386 147.000
27.37380 130.000
27.39375 160.000
27.41370 165.000
27.43364 142.000
27.45359 144.000
27.47354 137.000
27.49349 131.000
27.51343 155.000
27.53338 151.000
27.55333 140.000
27.57327 165.000
27.59322 158.000
27.61317 155.000
27.63311 159.000
27.65306 149.000
27.67301 152.000
27.69296 142.000
27.71290 161.000
27.73285 174.000
27.75280 150.000
27.77274 151.000
27.79269 167.000
27.81264 163.000
27.83258 145.000
27.85253 158.000
27.87248 161.000
27.89242 145.000
27.91237 179.000
27.93232 151.000
27.95227 156.000
27.97221 137.000
27.99216 155.000
28.01211 165.000
28.03205 156.000
28.05200 174.000
28.07195 168.000
28.09189 161.000
28.11184 167.000
28.13179 157.000
28.15174 150.000
28.17168 158.000
28.19163 145.000
28.21158 168.000
28.23152 145.000
28.25147 151.000
28.27142 159.000
28.29136 151.000
28.31131 152.000
28.33126 175.000
28.35120 152.000
28.37115 157.000
28.39110 179.000
28.41105 183.000
28.43099 163.000
28.45094 161.000
28.47089 187.000
28.49083 134.000
28.51078 141.000
28.53073 145.000
28.55067 131.000
28.57062 158.000
28.59057 177.000
28.61052 149.000
28.63046 158.000
28.65041 129.000
28.67036 159.000
28.69030 150.000
28.71025 182.000
28.73020 176.000
28.75014 145.000
28.77009 166.000
28.79004 146.000
28.80998 154.000
28.82993 147.000
28.84988 152.000
28.86983 160.000
28.88977 159.000
28.90972 147.000
28.92967 155.000
28.94961 175.000
28.96956 142.000
28.98951 128.000
29.00945 156.000
29.02940 159.000
29.04935 147.000
29.06930 166.000
29.08924 170.000
29.10919 178.000
29.12914 159.000
29.14908 182.000
29.16903 150.000
29.18898 161.000
29.20892 157.000
29.22887 152.000
29.24882 131.000
29.26877 183.000
29.28871 172.000
29.30866 154.000
29.32861 155.000
29.34855 167.000
29.36850 188.000
29.38845 181.000
29.40839 178.000
29.42834 206.000
29.44829 183.000
29.46823 174.000
29.48818 186.000
29.50813 184.000
29.52808 179.000
29.54802 205.000
29.56797 180.000
29.58792 183.000
29.60786 175.000
29.62781 170.000
29.64776 155.000
29.66770 176.000
29.68765 166.000
29.70760 149.000
29.72755 173.000
29.74749 151.000
29.76744 171.000
29.78739 176.000
29.80733 177.000
29.82728 181.000
29.84723 159.000
29.86717 163.000
29.88712 148.000
29.90707 147.000
29.92701 148.000
29.94696 162.000
29.96691 160.000
29.98686 153.000
30.00680 176.000
30.02675 171.000
30.04670 158.000
30.06664 169.000
30.08659 173.000
30.10654 170.000
30.12648 179.000
30.14643 192.000
30.16638 186.000
30.18633 175.000
30.20627 183.000
30.22622 218.000
30.24617 195.000
30.26611 190.000
30.28606 222.000
30.30601 257.000
30.32595 239.000
30.34590 218.000
30.36585 224.000
30.38579 225.000
30.40574 178.000
30.42569 217.000
30.44564 201.000
30.46558 199.000
30.48553 160.000
30.50548 159.000
30.52542 191.000
30.54537 145.000
30.56532 162.000
30.58526 138.000
30.60521 179.000
30.62516 168.000
30.64511 172.000
30.66505 149.000
30.68500 180.000
30.70495 143.000
30.72489 161.000
30.74484 146.000
30.76479 179.000
30.78473 150.000
30.80468 162.000
30.82463 171.000
30.84458 162.000
30.86452 154.000
30.88447 158.000
30.90442 175.000
30.92436 186.000
30.94431 162.000
30.96426 155.000
30.98420 174.000
31.00415 173.000
31.02410 167.000
31.04404 157.000
31.06399 175.000
31.08394 165.000
31.10389 145.000
31.12383 158.000
31.14378 178.000
31.16373 141.000
31.18367 155.000
31.20362 173.000
31.22357 167.000
31.24351 176.000
31.26346 177.000
31.28341 167.000
31.30336 162.000
31.32330 170.000
31.34325 190.000
31.36320 180.000
31.38314 173.000
31.40309 164.000
31.42304 161.000
31.44298 161.000
31.46293 172.000
31.48288 187.000
31.50282 165.000
31.52277 161.000
31.54272 129.000
31.56267 154.000
31.58261 159.000
31.60256 161.000
31.62251 178.000
31.64245 173.000
31.66240 148.000
31.68235 166.000
31.70229 183.000
31.72224 163.000
31.74219 175.000
31.76214 165.000
31.78208 182.000
31.80203 157.000
31.82198 193.000
31.84192 261.000
31.86187 291.000
31.88182 280.000
31.90176 325.000
31.92171 355.000
31.94166 379.000
31.96160 399.000
31.98155 421.000
32.00150 469.000
32.02145 526.000
32.04139 538.000
32.06134 532.000
32.08129 565.000
32.10123 549.000
32.12118 564.000
32.14113 510.000
32.16107 460.000
32.18102 505.000
32.20097 510.000
32.22092 435.000
32.24086 378.000
32.26081 295.000
32.28076 316.000
32.30070 284.000
32.32065 257.000
32.34060 219.000
32.36054 202.000
32.38049 200.000
32.40044 190.000
32.42039 181.000
32.44033 187.000
32.46028 212.000
32.48023 230.000
32.50017 232.000
32.52012 245.000
32.54007 250.000
32.56001 257.000
32.57996 254.000
32.59991 269.000
32.61985 288.000
32.63980 288.000
32.65975 270.000
32.67970 265.000
32.69964 316.000
32.71959 271.000
32.73954 286.000
32.75948 266.000
32.77943 308.000
32.79938 279.000
32.81932 302.000
32.83927 292.000
32.85922 287.000
32.87917 324.000
32.89911 275.000
32.91906 249.000
32.93901 249.000
32.95895 260.000
32.97890 255.000
32.99885 229.000
33.01879 208.000
33.03874 210.000
33.05869 203.000
33.07863 175.000
33.09858 205.000
33.11853 201.000
33.13848 185.000
33.15842 185.000
33.17837 161.000
33.19832 172.000
33.21826 156.000
33.23821 180.000
33.25816 169.000
33.27810 168.000
33.29805 152.000
33.31800 171.000
33.33795 143.000
33.35789 152.000
33.37784 166.000
33.39779 155.000
33.41773 175.000
33.43768 161.000
33.45763 159.000
33.47757 179.000
33.49752 158.000
33.51747 146.000
33.53741 143.000
33.55736 166.000
33.57731 158.000
33.59726 183.000
33.61720 168.000
33.63715 174.000
33.65710 170.000
33.67704 139.000
33.69699 148.000
33.71694 173.000
33.73688 174.000
33.75683 168.000
33.77678 176.000
33.79673 175.000
33.81667 159.000
33.83662 164.000
33.85657 162.000
33.87651 178.000
33.89646 183.000
33.91641 151.000
33.93635 152.000
33.95630 159.000
33.97625 161.000
33.99620 180.000
34.01614 171.000
34.03609 177.000
34.05604 151.000
34.07598 178.000
34.09593 206.000
34.11588 183.000
34.13582 163.000
34.15577 170.000
34.17572 185.000
34.19566 170.000
34.21561 193.000
34.23556 195.000
34.25551 198.000
34.27545 208.000
34.29540 204.000
34.31535 210.000
34.33529 211.000
34.35524 219.000
34.37519 259.000
34.39513 281.000
34.41508 256.000
34.43503 286.000
34.45498 273.000
34.47492 270.000
34.49487 279.000
34.51482 254.000
34.53476 296.000
34.55471 273.000
34.57466 247.000
34.59460 301.000
34.61455 244.000
34.63450 278.000
34.65444 257.000
34.67439 240.000
34.69434 226.000
34.71429 232.000
34.73423 244.000
34.75418 198.000
34.77413 220.000
34.79407 215.000
34.81402 207.000
34.83397 201.000
34.85391 219.000
34.87386 182.000
34.89381 191.000
34.91376 208.000
34.93370 214.000
34.95365 212.000
34.97360 172.000
34.99354 180.000
35.01349 200.000
35.03344 204.000
35.05338 206.000
35.07333 206.000
35.09328 168.000
35.11322 208.000
35.13317 197.000
35.15312 211.000
35.17307 213.000
35.19301 209.000
35.21296 227.000
35.23291 218.000
35.25285 245.000
35.27280 245.000
35.29275 242.000
35.31269 282.000
35.33264 266.000
35.35259 334.000
35.37254 369.000
35.39248 379.000
35.41243 434.000
35.43238 577.000
35.45232 655.000
35.47227 746.000
35.49222 886.000
35.51216 1017.000
35.53211 1127.000
35.55206 1258.000
35.57201 1391.000
35.59195 1434.000
35.61190 1523.000
35.63185 1461.000
35.65179 1406.000
35.67174 1356.000
35.69169 1245.000
35.71163 1090.000
35.73158 957.000
35.75153 871.000
35.77147 755.000
35.79142 670.000
35.81137 551.000
35.83132 462.000
35.85126 397.000
35.87121 368.000
35.89116 336.000
35.91110 303.000
35.93105 258.000
35.95100 279.000
35.97094 237.000
35.99089 251.000
36.01084 182.000
36.03079 210.000
36.05073 238.000
36.07068 193.000
36.09063 213.000
36.11057 193.000
36.13052 208.000
36.15047 185.000
36.17041 190.000
36.19036 191.000
36.21031 217.000
36.23025 193.000
36.25020 205.000
36.27015 192.000
36.29010 191.000
36.31004 188.000
36.32999 189.000
36.34994 169.000
36.36988 178.000
36.38983 191.000
36.40978 188.000
36.42972 194.000
36.44967 182.000
36.46962 197.000
36.48957 184.000
36.50951 200.000
36.52946 225.000
36.54941 224.000
36.56935 225.000
36.58930 208.000
36.60925 236.000
36.62919 221.000
36.64914 236.000
36.66909 261.000
36.68903 237.000
36.70898 280.000
36.72893 281.000
36.74888 304.000
36.76882 299.000
36.78877 329.000
36.80872 362.000
36.82866 376.000
36.84861 422.000
36.86856 396.000
36.88850 377.000
36.90845 433.000
36.92840 377.000
36.94835 347.000
36.96829 333.000
36.98824 323.000
37.00819 328.000
37.02813 273.000
37.04808 286.000
37.06803 252.000
37.08797 252.000
37.10792 248.000
37.12787 235.000
37.14781 244.000
37.16776 294.000
37.18771 254.000
37.20766 271.000
37.22760 229.000
37.24755 261.000
37.26750 263.000
37.28744 238.000
37.30739 217.000
37.32734 249.000
37.34728 204.000
37.36723 217.000
37.38718 207.000
37.40713 188.000
37.42707 182.000
37.44702 184.000
37.46697 174.000
37.48691 194.000
37.50686 189.000
37.52681 170.000
37.54675 176.000
37.56670 197.000
37.58665 188.000
37.60660 168.000
37.62654 151.000
37.64649 171.000
37.66644 168.000
37.68638 170.000
37.70633 175.000
37.72628 167.000
37.74622 180.000
37.76617 167.000
37.78612 155.000
37.80606 169.000
37.82601 168.000
37.84596 173.000
37.86591 178.000
37.88585 170.000
37.90580 206.000
37.92575 162.000
37.94569 164.000
37.96564 177.000
37.98559 167.000
38.00553 165.000
38.02548 196.000
38.04543 178.000
38.06538 161.000
38.08532 213.000
38.10527 199.000
38.12522 215.000
38.14516 182.000
38.16511 217.000
38.18506 185.000
38.20500 175.000
38.22495 204.000
38.24490 204.000
38.26484 197.000
38.28479 185.000
38.30474 188.000
38.32469 214.000
38.34463 206.000
38.36458 228.000
38.38453 204.000
38.40447 216.000
38.42442 214.000
38.44437 228.000
38.46431 216.000
38.48426 230.000
38.50421 261.000
38.52416 257.000
38.54410 270.000
38.56405 311.000
38.58400 321.000
38.60394 341.000
38.62389 397.000
38.64384 470.000
38.66378 583.000
38.68373 653.000
38.70368 783.000
38.72362 831.000
38.74357 882.000
38.76352 911.000
38.78347 958.000
38.80341 893.000
38.82336 894.000
38.84331 816.000
38.86325 776.000
38.88320 727.000
38.90315 678.000
38.92309 670.000
38.94304 581.000
38.96299 557.000
38.98294 566.000
39.00288 495.000
39.02283 539.000
39.04278 575.000
39.06272 636.000
39.08267 653.000
39.10262 720.000
39.12256 716.000
39.14251 781.000
39.16246 839.000
39.18241 871.000
39.20235 899.000
39.22230 833.000
39.24225 911.000
39.26219 809.000
39.28214 747.000
39.30209 661.000
39.32203 671.000
39.34198 590.000
39.36193 526.000
39.38187 468.000
39.40182 436.000
39.42177 395.000
39.44172 344.000
39.46166 317.000
39.48161 259.000
39.50156 252.000
39.52150 262.000
39.54145 217.000
39.56140 214.000
39.58134 184.000
39.60129 197.000
39.62124 183.000
39.64119 201.000
39.66113 168.000
39.68108 180.000
39.70103 192.000
39.72097 185.000
39.74092 199.000
39.76087 179.000
39.78081 156.000
39.80076 167.000
39.82071 193.000
39.84065 173.000
39.86060 150.000
39.88055 178.000
39.90050 177.000
39.92044 195.000
39.94039 188.000
39.96034 192.000
39.98028 185.000
40.00023 176.000
40.02018 172.000
40.04012 177.000
40.06007 183.000
40.08002 210.000
40.09997 164.000
40.11991 146.000
40.13986 160.000
40.15981 167.000
40.17975 152.000
40.19970 203.000
40.21965 177.000
40.23959 181.000
40.25954 115.000
40.27949 178.000
40.29943 179.000
40.31938 177.000
40.33933 176.000
40.35928 162.000
40.37922 196.000
40.39917 200.000
40.41912 171.000
40.43906 148.000
40.45901 178.000
40.47896 160.000
40.49890 172.000
40.51885 174.000
40.53880 164.000
40.55875 158.000
40.57869 185.000
40.59864 170.000
40.61859 185.000
40.63853 169.000
40.65848 176.000
40.67843 164.000
40.69837 156.000
40.71832 147.000
40.73827 180.000
40.75822 185.000
40.77816 160.000
40.79811 173.000
40.81806 156.000
40.83800 179.000
40.85795 156.000
40.87790 181.000
40.89784 145.000
40.91779 147.000
40.93774 175.000
40.95768 162.000
40.97763 176.000
40.99758 191.000
41.01753 179.000
41.03747 195.000
41.05742 196.000
41.07737 196.000
41.09731 178.000
41.11726 175.000
41.13721 188.000
41.15715 186.000
41.17710 188.000
41.19705 167.000
41.21700 170.000
41.23694 195.000
41.25689 171.000
41.27684 188.000
41.29678 222.000
41.31673 196.000
41.33668 206.000
41.35662 225.000
41.37657 215.000
41.39652 238.000
41.41646 234.000
41.43641 267.000
41.45636 307.000
41.47631 347.000
41.49625 412.000
41.51620 464.000
41.53615 544.000
41.55609 585.000
41.57604 709.000
41.59599 856.000
41.61593 1054.000
41.63588 1197.000
41.65583 1243.000
41.67578 1292.000
41.69572 1263.000
41.71567 1250.000
41.73562 1090.000
41.75556 966.000
41.77551 866.000
41.79546 777.000
41.81540 657.000
41.83535 514.000
41.85530 388.000
41.87524 355.000
41.89519 304.000
41.91514 289.000
41.93509 216.000
41.95503 230.000
41.97498 221.000
41.99493 195.000
42.01487 212.000
42.03482 203.000
42.05477 184.000
42.07471 183.000
42.09466 162.000
42.11461 191.000
42.13456 206.000
42.15450 150.000
42.17445 192.000
42.19440 192.000
42.21434 175.000
42.23429 187.000
42.25424 171.000
42.27418 173.000
42.29413 157.000
42.31408 175.000
42.33403 162.000
42.35397 158.000
42.37392 172.000
42.39387 185.000
42.41381 157.000
42.43376 160.000
42.45371 176.000
42.47365 159.000
42.49360 165.000
42.51355 150.000
42.53349 176.000
42.55344 166.000
42.57339 178.000
42.59334 186.000
42.61328 181.000
42.63323 177.000
42.65318 151.000
42.67312 144.000
42.69307 179.000
42.71302 171.000
42.73296 158.000
42.75291 173.000
42.77286 179.000
42.79281 184.000
42.81275 189.000
42.83270 183.000
42.85265 185.000
42.87259 216.000
42.89254 173.000
42.91249 179.000
42.93243 202.000
42.95238 210.000
42.97233 230.000
42.99227 195.000
43.01222 200.000
43.03217 241.000
43.05212 234.000
43.07206 238.000
43.09201 257.000
43.11196 287.000
43.13190 282.000
43.15185 273.000
43.17180 299.000
43.19174 322.000
43.21169 340.000
43.23164 356.000
43.25159 410.000
43.27153 457.000
43.29148 526.000
43.31143 535.000
43.33137 548.000
43.35132 504.000
43.37127 517.000
43.39121 506.000
43.41116 519.000
43.43111 446.000
43.45105 408.000
43.47100 414.000
43.49095 356.000
43.51090 326.000
43.53084 332.000
43.55079 270.000
43.57074 268.000
43.59068 238.000
43.61063 222.000
43.63058 206.000
43.65052 186.000
43.67047 177.000
43.69042 213.000
43.71037 193.000
43.73031 192.000
43.75026 182.000
43.77021 175.000
43.79015 173.000
43.81010 166.000
43.83005 162.000
43.84999 172.000
43.86994 163.000
43.88989 176.000
43.90984 177.000
43.92978 191.000
43.94973 153.000
43.96968 172.000
43.98962 181.000
44.00957 162.000
44.02952 188.000
44.04946 166.000
44.06941 176.000
44.08936 164.000
44.10930 146.000
44.12925 152.000
44.14920 147.000
44.16915 160.000
44.18909 183.000
44.20904 141.000
44.22899 171.000
44.24893 172.000
44.26888 150.000
44.28883 156.000
44.30877 157.000
44.32872 161.000
44.34867 150.000
44.36862 177.000
44.38856 158.000
44.40851 173.000
44.42846 179.000
44.44840 146.000
44.46835 144.000
44.48830 156.000
44.50824 176.000
44.52819 167.000
44.54814 175.000
44.56808 165.000
44.58803 159.000
44.60798 159.000
44.62793 163.000
44.64787 170.000
44.66782 155.000
44.68777 174.000
44.70771 158.000
44.72766 159.000
44.74761 158.000
44.76755 155.000
44.78750 148.000
44.80745 171.000
44.82740 172.000
44.84734 173.000
44.86729 187.000
44.88724 184.000
44.90718 194.000
44.92713 190.000
44.94708 215.000
44.96702 213.000
44.98697 210.000
45.00692 187.000
45.02686 192.000
45.04681 196.000
45.06676 209.000
45.08671 181.000
45.10665 175.000
45.12660 177.000
45.14655 181.000
45.16649 194.000
45.18644 156.000
45.20639 164.000
45.22633 162.000
45.24628 157.000
45.26623 159.000
45.28618 172.000
45.30612 125.000
45.32607 159.000
45.34602 155.000
45.36596 149.000
45.38591 175.000
45.40586 144.000
45.42580 162.000
45.44575 142.000
45.46570 160.000
45.48565 138.000
45.50559 147.000
45.52554 155.000
45.54549 165.000
45.56543 155.000
45.58538 153.000
45.60533 150.000
45.62527 156.000
45.64522 162.000
45.66517 166.000
45.68511 172.000
45.70506 143.000
45.72501 169.000
45.74496 142.000
45.76490 146.000
45.78485 151.000
45.80480 154.000
45.82474 144.000
45.84469 143.000
45.86464 144.000
45.88458 172.000
45.90453 174.000
45.92448 162.000
45.94443 155.000
45.96437 153.000
45.98432 146.000
46.00427 151.000
46.02421 155.000
46.04416 168.000
46.06411 174.000
46.08405 163.000
46.10400 171.000
46.12395 150.000
46.14389 158.000
46.16384 158.000
46.18379 155.000
46.20374 162.000
46.22368 171.000
46.24363 199.000
46.26358 165.000
46.28352 162.000
46.30347 163.000
46.32342 179.000
46.34336 175.000
46.36331 212.000
46.38326 169.000
46.40321 162.000
46.42315 160.000
46.44310 169.000
46.46305 184.000
46.48299 189.000
46.50294 155.000
46.52289 156.000
46.54283 164.000
46.56278 175.000
46.58273 164.000
46.60267 170.000
46.62262 171.000
46.64257 172.000
46.66252 163.000
46.68246 139.000
46.70241 168.000
46.72236 176.000
46.74230 161.000
46.76225 151.000
46.78220 151.000
46.80214 157.000
46.82209 154.000
46.84204 150.000
46.86199 181.000
46.88193 165.000
46.90188 184.000
46.92183 154.000
46.94177 158.000
46.96172 164.000
46.98167 160.000
47.00161 163.000
47.02156 157.000
47.04151 165.000
47.06146 145.000
47.08140 146.000
47.10135 151.000
47.12130 170.000
47.14124 182.000
47.16119 164.000
47.18114 180.000
47.20108 181.000
47.22103 150.000
47.24098 183.000
47.26092 139.000
47.28087 159.000
47.30082 152.000
47.32077 166.000
47.34071 153.000
47.36066 160.000
47.38061 161.000
47.40055 161.000
47.42050 171.000
47.44045 158.000
47.46039 154.000
47.48034 165.000
47.50029 160.000
47.52024 197.000
47.54018 178.000
47.56013 164.000
47.58008 161.000
47.60002 176.000
47.61997 163.000
47.63992 159.000
47.65986 152.000
47.67981 175.000
47.69976 179.000
47.71970 148.000
47.73965 150.000
47.75960 148.000
47.77955 174.000
47.79949 142.000
47.81944 173.000
47.83939 187.000
47.85933 169.000
47.87928 164.000
47.89923 168.000
47.91917 155.000
47.93912 173.000
47.95907 169.000
47.97902 177.000
47.99896 145.000
48.01891 162.000
48.03886 176.000
48.05880 196.000
48.07875 165.000
48.09870 161.000
48.11864 180.000
48.13859 194.000
48.15854 167.000
48.17848 188.000
48.19843 199.000
48.21838 195.000
48.23833 180.000
48.25827 216.000
48.27822 225.000
48.29817 198.000
48.31811 231.000
48.33806 222.000
48.35801 204.000
48.37795 237.000
48.39790 231.000
48.41785 268.000
48.43780 263.000
48.45774 281.000
48.47769 312.000
48.49764 338.000
48.51758 423.000
48.53753 501.000
48.55748 553.000
48.57742 621.000
48.59737 758.000
48.61732 860.000
48.63726 883.000
48.65721 878.000
48.67716 854.000
48.69711 814.000
48.71705 785.000
48.73700 786.000
48.75695 782.000
48.77689 691.000
48.79684 724.000
48.81679 648.000
48.83673 548.000
48.85668 541.000
48.87663 523.000
48.89658 536.000
48.91652 475.000
48.93647 400.000
48.95642 405.000
48.97636 352.000
48.99631 360.000
49.01626 325.000
49.03620 273.000
49.05615 264.000
49.07610 270.000
49.09605 245.000
49.11599 205.000
49.13594 211.000
49.15589 189.000
49.17583 199.000
49.19578 207.000
49.21573 196.000
49.23567 184.000
49.25562 191.000
49.27557 157.000
49.29551 185.000
49.31546 203.000
49.33541 174.000
49.35536 207.000
49.37530 188.000
49.39525 173.000
49.41520 146.000
49.43514 167.000
49.45509 184.000
49.47504 192.000
49.49498 182.000
49.51493 173.000
49.53488 153.000
49.55483 205.000
49.57477 177.000
49.59472 176.000
49.61467 164.000
49.63461 155.000
49.65456 178.000
49.67451 168.000
49.69445 163.000
49.71440 200.000
49.73435 172.000
49.75429 169.000
49.77424 163.000
49.79419 140.000
49.81414 200.000
49.83408 171.000
49.85403 185.000
49.87398 168.000
49.89392 167.000
49.91387 152.000
49.93382 186.000
49.95376 171.000
49.97371 153.000
49.99366 165.000
50.01361 158.000
50.03355 154.000
50.05350 173.000
50.07345 151.000
50.09339 150.000
50.11334 155.000
50.13329 188.000
50.15323 164.000
50.17318 181.000
50.19313 147.000
50.21307 152.000
50.23302 157.000
50.25297 158.000
50.27292 176.000
50.29286 165.000
50.31281 172.000
50.33276 155.000
50.35270 142.000
50.37265 147.000
50.39260 162.000
50.41254 155.000
50.43249 167.000
50.45244 161.000
50.47239 165.000
50.49233 139.000
50.51228 169.000
50.53223 139.000
50.55217 155.000
50.57212 164.000
50.59207 167.000
50.61201 150.000
50.63196 169.000
50.65191 160.000
50.67186 157.000
50.69180 145.000
50.71175 139.000
50.73170 148.000
50.75164 167.000
50.77159 136.000
50.79154 178.000
50.81148 147.000
50.83143 164.000
50.85138 154.000
50.87132 165.000
50.89127 124.000
50.91122 158.000
50.93117 147.000
50.95111 180.000
50.97106 151.000
50.99101 140.000
51.01095 183.000
51.03090 152.000
51.05085 181.000
51.07079 186.000
51.09074 161.000
51.11069 168.000
51.13064 160.000
51.15058 169.000
51.17053 159.000
51.19048 166.000
51.21042 151.000
51.23037 158.000
51.25032 175.000
51.27026 162.000
51.29021 177.000
51.31016 187.000
51.33010 147.000
51.35005 150.000
51.37000 164.000
51.38995 155.000
51.40989 172.000
51.42984 171.000
51.44979 158.000
51.46973 133.000
51.48968 162.000
51.50963 172.000
51.52957 188.000
51.54952 154.000
51.56947 153.000
51.58942 152.000
51.60936 149.000
51.62931 136.000
51.64926 152.000
51.66920 162.000
51.68915 139.000
51.70910 130.000
51.72904 152.000
51.74899 173.000
51.76894 173.000
51.78888 156.000
51.80883 177.000
51.82878 157.000
51.84873 169.000
51.86867 152.000
51.88862 147.000
51.90857 155.000
51.92851 163.000
51.94846 176.000
51.96841 175.000
51.98835 153.000
52.00830 161.000
52.02825 131.000
52.04820 178.000
52.06814 163.000
52.08809 159.000
52.10804 168.000
52.12798 172.000
52.14793 173.000
52.16788 170.000
52.18782 188.000
52.20777 168.000
52.22772 162.000
52.24767 186.000
52.26761 156.000
52.28756 175.000
52.30751 168.000
52.32745 155.000
52.34740 149.000
52.36735 190.000
52.38729 153.000
52.40724 177.000
52.42719 158.000
52.44713 170.000
52.46708 175.000
52.48703 159.000
52.50698 172.000
52.52692 155.000
52.54687 153.000
52.56682 166.000
52.58676 158.000
52.60671 158.000
52.62666 160.000
52.64660 166.000
52.66655 180.000
52.68650 210.000
52.70645 159.000
52.72639 155.000
52.74634 178.000
52.76629 171.000
52.78623 186.000
52.80618 189.000
52.82613 191.000
52.84607 222.000
52.86602 205.000
52.88597 207.000
52.90591 226.000
52.92586 248.000
52.94581 253.000
52.96576 299.000
52.98570 266.000
53.00565 276.000
53.02560 274.000
53.04554 296.000
53.06549 284.000
53.08544 308.000
53.10538 290.000
53.12533 266.000
53.14528 333.000
53.16523 251.000
53.18517 251.000
53.20512 229.000
53.22507 249.000
53.24501 255.000
53.26496 229.000
53.28491 187.000
53.30485 224.000
53.32480 231.000
53.34475 229.000
53.36469 210.000
53.38464 214.000
53.40459 215.000
53.42454 209.000
53.44448 213.000
53.46443 176.000
53.48438 224.000
53.50432 216.000
53.52427 205.000
53.54422 234.000
53.56416 189.000
53.58411 199.000
53.60406 203.000
53.62401 176.000
53.64395 211.000
53.66390 189.000
53.68385 189.000
53.70379 170.000
53.72374 200.000
53.74369 201.000
53.76363 191.000
53.78358 188.000
53.80353 174.000
53.82348 166.000
53.84342 198.000
53.86337 176.000
53.88332 167.000
53.90326 178.000
53.92321 182.000
53.94316 158.000
53.96310 180.000
53.98305 164.000
54.00300 163.000
54.02294 150.000
54.04289 167.000
54.06284 157.000
54.08279 170.000
54.10273 175.000
54.12268 147.000
54.14263 167.000
54.16257 195.000
54.18252 190.000
54.20247 174.000
54.22241 181.000
54.24236 146.000
54.26231 156.000
54.28226 158.000
54.30220 157.000
54.32215 154.000
54.34210 149.000
54.36204 151.000
54.38199 159.000
54.40194 185.000
54.42188 160.000
54.44183 162.000
54.46178 152.000
54.48172 164.000
54.50167 193.000
54.52162 166.000
54.54157 146.000
54.56151 169.000
54.58146 144.000
54.60141 163.000
54.62135 154.000
54.64130 144.000
54.66125 160.000
54.68119 142.000
54.70114 153.000
54.72109 139.000
54.74104 135.000
54.76098 148.000
54.78093 167.000
54.80088 161.000
54.82082 160.000
54.84077 175.000
54.86072 175.000
54.88066 165.000
54.90061 148.000
54.92056 165.000
54.94050 168.000
54.96045 179.000
54.98040 169.000
55.00035 135.000
55.02029 165.000
55.04024 176.000
55.06019 159.000
55.08013 133.000
55.10008 140.000
55.12003 161.000
55.13997 162.000
55.15992 154.000
55.17987 154.000
55.19982 163.000
55.21976 153.000
55.23971 166.000
55.25966 166.000
55.27960 167.000
55.29955 149.000
55.31950 185.000
55.33944 148.000
55.35939 163.000
55.37934 157.000
55.39929 184.000
55.41923 153.000
55.43918 164.000
55.45913 166.000
55.47907 141.000
55.49902 180.000
55.51897 168.000
55.53891 189.000
55.55886 149.000
55.57881 158.000
55.59875 153.000
55.61870 157.000
55.63865 153.000
55.65860 152.000
55.67854 144.000
55.69849 157.000
55.71844 142.000
55.73838 167.000
55.75833 152.000
55.77828 172.000
55.79822 162.000
55.81817 151.000
55.83812 143.000
55.85807 169.000
55.87801 158.000
55.89796 154.000
55.91791 158.000
55.93785 148.000
55.95780 180.000
55.97775 161.000
55.99769 153.000
56.01764 149.000
56.03759 153.000
56.05753 169.000
56.07748 183.000
56.09743 153.000
56.11738 135.000
56.13732 167.000
56.15727 143.000
56.17722 145.000
56.19716 160.000
56.21711 160.000
56.23706 172.000
56.25700 144.000
56.27695 167.000
56.29690 175.000
56.31685 156.000
56.33679 172.000
56.35674 146.000
56.37669 167.000
56.39663 160.000
56.41658 155.000
56.43653 164.000
56.45647 170.000
56.47642 144.000
56.49637 161.000
56.51631 180.000
56.53626 169.000
56.55621 170.000
56.57616 142.000
56.59610 153.000
56.61605 174.000
56.63600 162.000
56.65594 163.000
56.67589 185.000
56.69584 175.000
56.71578 166.000
56.73573 153.000
56.75568 177.000
56.77563 182.000
56.79557 174.000
56.81552 167.000
56.83547 144.000
56.85541 180.000
56.87536 179.000
56.89531 184.000
56.91525 169.000
56.93520 163.000
56.95515 175.000
56.97510 186.000
56.99504 171.000
57.01499 175.000
57.03494 170.000
57.05488 178.000
57.07483 187.000
57.09478 185.000
57.11472 183.000
57.13467 189.000
57.15462 202.000
57.17456 181.000
57.19451 170.000
57.21446 210.000
57.23441 187.000
57.25435 238.000
57.27430 200.000
57.29425 219.000
57.31419 223.000
57.33414 244.000
57.35409 213.000
57.37403 269.000
57.39398 234.000
57.41393 263.000
57.43388 224.000
57.45382 269.000
57.47377 250.000
57.49372 282.000
57.51366 291.000
57.53361 272.000
57.55356 300.000
57.57350 330.000
57.59345 308.000
57.61340 287.000
57.63334 339.000
57.65329 310.000
57.67324 308.000
57.69319 327.000
57.71313 318.000
57.73308 383.000
57.75303 368.000
57.77297 307.000
57.79292 327.000
57.81287 300.000
57.83281 296.000
57.85276 275.000
57.87271 291.000
57.89266 268.000
57.91260 265.000
57.93255 236.000
57.95250 237.000
57.97244 218.000
57.99239 207.000
58.01234 177.000
58.03228 226.000
58.05223 196.000
58.07218 186.000
58.09212 205.000
58.11207 189.000
58.13202 198.000
58.15197 210.000
58.17191 190.000
58.19186 206.000
58.21181 226.000
58.23175 253.000
58.25170 259.000
58.27165 254.000
58.29159 243.000
58.31154 253.000
58.33149 240.000
58.35144 239.000
58.37138 253.000
58.39133 230.000
58.41128 217.000
58.43122 243.000
58.45117 225.000
58.47112 210.000
58.49106 234.000
58.51101 250.000
58.53096 204.000
58.55090 190.000
58.57085 185.000
58.59080 180.000
58.61075 193.000
58.63069 205.000
58.65064 164.000
58.67059 184.000
58.69053 186.000
58.71048 159.000
58.73043 146.000
58.75037 140.000
58.77032 163.000
58.79027 191.000
58.81022 162.000
58.83016 180.000
58.85011 167.000
58.87006 161.000
58.89000 142.000
58.90995 142.000
58.92990 158.000
58.94984 162.000
58.96979 163.000
58.98974 172.000
59.00969 166.000
59.02963 173.000
59.04958 169.000
59.06953 167.000
59.08947 170.000
59.10942 172.000
59.12937 164.000
59.14931 171.000
59.16926 160.000
59.18921 182.000
59.20915 189.000
59.22910 172.000
59.24905 159.000
59.26900 172.000
59.28894 190.000
59.30889 180.000
59.32884 173.000
59.34878 137.000
59.36873 150.000
59.38868 173.000
59.40862 166.000
59.42857 141.000
59.44852 194.000
59.46847 173.000
59.48841 164.000
59.50836 155.000
59.52831 162.000
59.54825 165.000
59.56820 171.000
59.58815 156.000
59.60809 146.000
59.62804 169.000
59.64799 166.000
59.66793 156.000
59.68788 155.000
59.70783 145.000
59.72778 183.000
59.74772 161.000
59.76767 162.000
59.78762 160.000
59.80756 160.000
59.82751 151.000
59.84746 153.000
59.86740 161.000
59.88735 170.000
59.90730 151.000
59.92725 167.000
59.94719 146.000
59.96714 146.000
59.98709 157.000
60.00703 176.000
60.02698 158.000
60.04693 173.000
60.06687 177.000
60.08682 181.000
60.10677 157.000
60.12671 150.000
60.14666 153.000
60.16661 160.000
60.18656 157.000
60.20650 192.000
60.22645 159.000
60.24640 172.000
60.26634 174.000
60.28629 166.000
60.30624 175.000
60.32618 130.000
60.34613 162.000
60.36608 160.000
60.38603 187.000
60.40597 154.000
60.42592 169.000
60.44587 152.000
60.46581 129.000
60.48576 162.000
60.50571 161.000
60.52565 185.000
60.54560 156.000
60.56555 180.000
60.58550 160.000
60.60544 165.000
60.62539 181.000
60.64534 139.000
60.66528 152.000
60.68523 151.000
60.70518 176.000
60.72512 164.000
60.74507 154.000
60.76502 143.000
60.78496 175.000
60.80491 166.000
60.82486 171.000
60.84481 156.000
60.86475 151.000
60.88470 172.000
60.90465 165.000
60.92459 148.000
60.94454 181.000
60.96449 179.000
60.98443 164.000
61.00438 170.000
61.02433 161.000
61.04428 159.000
61.06422 191.000
61.08417 184.000
61.10412 168.000
61.12406 182.000
61.14401 177.000
61.16396 179.000
61.18390 169.000
61.20385 197.000
61.22380 185.000
61.24374 207.000
61.26369 181.000
61.28364 218.000
61.30359 189.000
61.32353 183.000
61.34348 174.000
61.36343 197.000
61.38337 197.000
61.40332 212.000
61.42327 214.000
61.44321 215.000
61.46316 247.000
61.48311 224.000
61.50306 243.000
61.52300 256.000
61.54295 330.000
61.56290 290.000
61.58284 298.000
61.60279 320.000
61.62274 311.000
61.64268 333.000
61.66263 356.000
61.68258 354.000
61.70252 312.000
61.72247 343.000
61.74242 374.000
61.76237 385.000
61.78231 439.000
61.80226 375.000
61.82221 455.000
61.84215 416.000
61.86210 449.000
61.88205 443.000
61.90199 456.000
61.92194 516.000
61.94189 492.000
61.96184 509.000
61.98178 511.000
62.00173 553.000
62.02168 462.000
62.04162 417.000
62.06157 401.000
62.08152 403.000
62.10146 377.000
62.12141 399.000
62.14136 343.000
62.16131 363.000
62.18125 331.000
62.20120 302.000
62.22115 293.000
62.24109 234.000
62.26104 250.000
62.28099 248.000
62.30093 234.000
62.32088 214.000
62.34083 232.000
62.36077 237.000
62.38072 202.000
62.40067 208.000
62.42062 203.000
62.44056 208.000
62.46051 195.000
62.48046 191.000
62.50040 205.000
62.52035 210.000
62.54030 216.000
62.56024 214.000
62.58019 213.000
62.60014 260.000
62.62009 251.000
62.64003 238.000
62.65998 261.000
62.67993 212.000
62.69987 239.000
62.71982 293.000
62.73977 291.000
62.75971 295.000
62.77966 297.000
62.79961 295.000
62.81955 285.000
62.83950 352.000
62.85945 334.000
62.87940 343.000
62.89934 369.000
62.91929 373.000
62.93924 372.000
62.95918 382.000
62.97913 356.000
62.99908 410.000
63.01902 374.000
63.03897 381.000
63.05892 372.000
63.07887 358.000
63.09881 309.000
63.11876 322.000
63.13871 307.000
63.15865 304.000
63.17860 280.000
63.19855 323.000
63.21849 269.000
63.23844 264.000
63.25839 274.000
63.27833 290.000
63.29828 231.000
63.31823 236.000
63.33818 224.000
63.35812 222.000
63.37807 203.000
63.39802 198.000
63.41796 213.000
63.43791 195.000
63.45786 207.000
63.47780 193.000
63.49775 194.000
63.51770 192.000
63.53765 201.000
63.55759 192.000
63.57754 199.000
63.59749 204.000
63.61743 210.000
63.63738 200.000
63.65733 254.000
63.67727 222.000
63.69722 233.000
63.71717 252.000
63.73712 252.000
63.75706 259.000
63.77701 241.000
63.79696 266.000
63.81690 248.000
63.83685 268.000
63.85680 239.000
63.87674 260.000
63.89669 304.000
63.91664 266.000
63.93658 231.000
63.95653 232.000
63.97648 273.000
63.99643 294.000
64.01637 296.000
64.03632 276.000
64.05627 255.000
64.07621 245.000
64.09616 244.000
64.11611 235.000
64.13605 237.000
64.15600 217.000
64.17595 210.000
64.19590 226.000
64.21584 232.000
64.23579 222.000
64.25574 228.000
64.27568 217.000
64.29563 234.000
64.31558 217.000
64.33552 222.000
64.35547 181.000
64.37542 209.000
64.39536 202.000
64.41531 203.000
64.43526 209.000
64.45521 206.000
64.47515 185.000
64.49510 209.000
64.51505 185.000
64.53499 192.000
64.55494 165.000
64.57489 157.000
64.59483 176.000
64.61478 168.000
64.63473 187.000
64.65468 161.000
64.67462 174.000
64.69457 157.000
64.71452 161.000
64.73446 188.000
64.75441 179.000
64.77436 174.000
64.79430 177.000
64.81425 176.000
64.83420 164.000
64.85414 152.000
64.87409 151.000
64.89404 178.000
64.91399 175.000
64.93393 166.000
64.95388 190.000
64.97383 174.000
64.99377 174.000
65.01372 206.000
65.03367 169.000
65.05361 173.000
65.07356 197.000
65.09351 188.000
65.11346 182.000
65.13340 191.000
65.15335 205.000
65.17330 174.000
65.19324 184.000
65.21319 176.000
65.23314 173.000
65.25308 201.000
65.27303 206.000
65.29298 229.000
65.31293 192.000
65.33287 212.000
65.35282 231.000
65.37277 225.000
65.39271 222.000
65.41266 197.000
65.43261 227.000
65.45255 252.000
65.47250 233.000
65.49245 259.000
65.51239 230.000
65.53234 253.000
65.55229 273.000
65.57224 305.000
65.59218 242.000
65.61213 290.000
65.63208 291.000
65.65202 277.000
65.67197 292.000
65.69192 286.000
65.71186 275.000
65.73181 282.000
65.75176 250.000
65.77171 281.000
65.79165 277.000
65.81160 277.000
65.83155 267.000
65.85149 263.000
65.87144 272.000
65.89139 247.000
65.91133 256.000
65.93128 269.000
65.95123 261.000
65.97117 262.000
65.99112 249.000
66.01107 245.000
66.03102 268.000
66.05096 259.000
66.07091 264.000
66.09086 265.000
66.11080 238.000
66.13075 270.000
66.15070 264.000
66.17064 290.000
66.19059 285.000
66.21054 291.000
66.23049 280.000
66.25043 297.000
66.27038 316.000
66.29033 315.000
66.31027 315.000
66.33022 313.000
66.35017 343.000
66.37011 359.000
66.39006 393.000
66.41001 324.000
66.42995 305.000
66.44990 314.000
66.46985 280.000
66.48980 342.000
66.50974 305.000
66.52969 304.000
66.54964 297.000
66.56958 288.000
66.58953 255.000
66.60948 246.000
66.62942 240.000
66.64937 261.000
66.66932 266.000
66.68927 246.000
66.70921 233.000
66.72916 210.000
66.74911 241.000
66.76905 219.000
66.78900 225.000
66.80895 218.000
66.82889 231.000
66.84884 215.000
66.86879 202.000
66.88874 185.000
66.90868 188.000
66.92863 212.000
66.94858 222.000
66.96852 185.000
66.98847 219.000
67.00842 196.000
67.02836 212.000
67.04831 207.000
67.06826 175.000
67.08820 199.000
67.10815 192.000
67.12810 214.000
67.14805 206.000
67.16799 183.000
67.18794 205.000
67.20789 218.000
67.22783 201.000
67.24778 186.000
67.26773 171.000
67.28767 215.000
67.30762 181.000
67.32757 204.000
67.34752 205.000
67.36746 198.000
67.38741 183.000
67.40736 187.000
67.42730 183.000
67.44725 175.000
67.46720 202.000
67.48714 201.000
67.50709 207.000
67.52704 175.000
67.54698 191.000
67.56693 198.000
67.58688 192.000
67.60683 191.000
67.62677 194.000
67.64672 179.000
67.66667 216.000
67.68661 191.000
67.70656 221.000
67.72651 209.000
67.74645 220.000
67.76640 256.000
67.78635 228.000
67.80630 224.000
67.82624 235.000
67.84619 266.000
67.86614 257.000
67.88608 262.000
67.90603 306.000
67.92598 245.000
67.94592 290.000
67.96587 281.000
67.98582 262.000
68.00576 282.000
68.02571 289.000
68.04566 312.000
68.06561 294.000
68.08555 269.000
68.10550 299.000
68.12545 294.000
68.14539 299.000
68.16534 266.000
68.18529 247.000
68.20523 276.000
68.22518 260.000
68.24513 245.000
68.26508 254.000
68.28502 263.000
68.30497 261.000
68.32492 258.000
68.34486 221.000
68.36481 226.000
68.38476 216.000
68.40470 235.000
68.42465 207.000
68.44460 207.000
68.46455 205.000
68.48449 223.000
68.50444 174.000
68.52439 188.000
68.54433 183.000
68.56428 173.000
68.58423 194.000
68.60417 178.000
68.62412 180.000
68.64407 193.000
68.66401 200.000
68.68396 168.000
68.70391 186.000
68.72386 178.000
68.74380 175.000
68.76375 158.000
68.78370 154.000
68.80364 193.000
68.82359 176.000
68.84354 195.000
68.86348 180.000
68.88343 184.000
68.90338 176.000
68.92333 173.000
68.94327 186.000
68.96322 155.000
68.98317 164.000
69.00311 169.000
69.02306 175.000
69.04301 172.000
69.06295 179.000
69.08290 197.000
69.10285 159.000
69.12279 162.000
69.14274 183.000
69.16269 136.000
69.18264 155.000
69.20258 192.000
69.22253 166.000
69.24248 192.000
69.26242 145.000
69.28237 153.000
69.30232 143.000
69.32226 171.000
69.34221 169.000
69.36216 149.000
69.38211 147.000
69.40205 178.000
69.42200 167.000
69.44195 149.000
69.46189 174.000
69.48184 167.000
69.50179 171.000
69.52173 167.000
69.54168 149.000
69.56163 157.000
69.58157 147.000
69.60152 160.000
69.62147 176.000
69.64142 153.000
69.66136 147.000
69.68131 168.000
69.70126 160.000
69.72120 181.000
69.74115 153.000
69.76110 157.000
69.78104 160.000
69.80099 163.000
69.82094 152.000
69.84089 147.000
69.86083 181.000
69.88078 173.000
69.90073 145.000
69.92067 192.000
69.94062 162.000
69.96057 171.000
69.98051 180.000
70.00046 188.000
70.02041 160.000
70.04035 160.000
70.06030 176.000
70.08025 180.000
70.10020 171.000
70.12014 156.000
70.14009 151.000
70.16004 159.000
70.17998 168.000
70.19993 145.000
70.21988 158.000
70.23982 150.000
70.25977 166.000
70.27972 141.000
70.29967 152.000
70.31961 177.000
70.33956 169.000
70.35951 151.000
70.37945 164.000
70.39940 153.000
70.41935 161.000
70.43929 172.000
70.45924 135.000
70.47919 149.000
70.49914 157.000
70.51908 188.000
70.53903 170.000
70.55898 143.000
70.57892 175.000
70.59887 174.000
70.61882 161.000
70.63876 183.000
70.65871 153.000
70.67866 167.000
70.69860 160.000
70.71855 152.000
70.73850 175.000
70.75845 163.000
70.77839 158.000
70.79834 147.000
70.81829 179.000
70.83823 172.000
70.85818 140.000
70.87813 171.000
70.89807 152.000
70.91802 160.000
70.93797 144.000
70.95792 127.000
70.97786 159.000
70.99781 160.000
71.01776 176.000
71.03770 154.000
71.05765 169.000
71.07760 133.000
71.09754 166.000
71.11749 191.000
71.13744 166.000
71.15738 150.000
71.17733 173.000
71.19728 162.000
71.21723 161.000
71.23717 154.000
71.25712 150.000
71.27707 171.000
71.29701 153.000
71.31696 152.000
71.33691 165.000
71.35685 139.000
71.37680 178.000
71.39675 161.000
71.41670 161.000
71.43664 139.000
71.45659 168.000
71.47654 163.000
71.49648 183.000
71.51643 149.000
71.53638 174.000
71.55632 143.000
71.57627 189.000
71.59622 190.000
71.61616 194.000
71.63611 173.000
71.65606 175.000
71.67601 161.000
71.69595 143.000
71.71590 168.000
71.73585 170.000
71.75579 174.000
71.77574 171.000
71.79569 155.000
71.81563 176.000
71.83558 169.000
71.85553 178.000
71.87548 166.000
71.89542 162.000
71.91537 153.000
71.93532 163.000
71.95526 171.000
71.97521 174.000
71.99516 155.000
72.01510 157.000
72.03505 149.000
72.05500 168.000
72.07495 160.000
72.09489 157.000
72.11484 154.000
72.13479 154.000
72.15473 187.000
72.17468 186.000
72.19463 194.000
72.21457 175.000
72.23452 180.000
72.25447 196.000
72.27441 179.000
72.29436 196.000
72.31431 151.000
72.33426 209.000
72.35420 209.000
72.37415 223.000
72.39410 223.000
72.41404 213.000
72.43399 242.000
72.45394 220.000
72.47388 221.000
72.49383 223.000
72.51378 204.000
72.53373 215.000
72.55367 225.000
72.57362 225.000
72.59357 222.000
72.61351 220.000
72.63346 209.000
72.65341 195.000
72.67335 223.000
72.69330 241.000
72.71325 227.000
72.73319 238.000
72.75314 216.000
72.77309 237.000
72.79304 208.000
72.81298 196.000
72.83293 248.000
72.85288 209.000
72.87282 199.000
72.89277 245.000
72.91272 239.000
72.93266 205.000
72.95261 218.000
72.97256 222.000
72.99251 215.000
73.01245 206.000
73.03240 194.000
73.05235 222.000
73.07229 234.000
73.09224 232.000
73.11219 224.000
73.13213 247.000
73.15208 222.000
73.17203 186.000
73.19197 235.000
73.21192 242.000
73.23187 225.000
73.25182 203.000
73.27176 195.000
73.29171 247.000
73.31166 219.000
73.33160 239.000
73.35155 224.000
73.37150 233.000
73.39144 208.000
73.41139 261.000
73.43134 203.000
73.45129 236.000
73.47123 243.000
73.49118 225.000
73.51113 217.000
73.53107 202.000
73.55102 194.000
73.57097 200.000
73.59091 180.000
73.61086 197.000
73.63081 218.000
73.65076 191.000
73.67070 225.000
73.69065 203.000
73.71060 204.000
73.73054 199.000
73.75049 218.000
73.77044 208.000
73.79038 185.000
73.81033 201.000
73.83028 189.000
73.85022 192.000
73.87017 194.000
73.89012 181.000
73.91007 210.000
73.93001 183.000
73.94996 183.000
73.96991 188.000
73.98985 161.000
74.00980 167.000
74.02975 219.000
74.04969 162.000
74.06964 191.000
74.08959 167.000
74.10954 154.000
74.12948 200.000
74.14943 161.000
74.16938 159.000
74.18932 177.000
74.20927 202.000
74.22922 192.000
74.24916 168.000
74.26911 165.000
74.28906 157.000
74.30900 156.000
74.32895 213.000
74.34890 167.000
74.36885 194.000
74.38879 173.000
74.40874 185.000
74.42869 159.000
74.44863 184.000
74.46858 183.000
74.48853 191.000
74.50847 205.000
74.52842 174.000
74.54837 183.000
74.56832 221.000
74.58826 197.000
74.60821 195.000
74.62816 188.000
74.64810 179.000
74.66805 177.000
74.68800 187.000
74.70794 193.000
74.72789 168.000
74.74784 185.000
74.76778 200.000
74.78773 192.000
74.80768 189.000
74.82763 193.000
74.84757 193.000
74.86752 178.000
74.88747 207.000
74.90741 188.000
74.92736 193.000
74.94731 203.000
74.96725 239.000
74.98720 218.000
75.00715 219.000
75.02710 228.000
75.04704 224.000
75.06699 233.000
75.08694 259.000
75.10688 231.000
75.12683 218.000
75.14678 244.000
75.16672 244.000
75.18667 248.000
75.20662 223.000
75.22657 236.000
75.24651 244.000
75.26646 242.000
75.28641 230.000
75.30635 241.000
75.32630 229.000
75.34625 227.000
75.36619 218.000
75.38614 217.000
75.40609 215.000
75.42603 204.000
75.44598 227.000
75.46593 232.000
75.48588 221.000
75.50582 204.000
75.52577 233.000
75.54572 221.000
75.56566 196.000
75.58561 204.000
75.60556 190.000
75.62550 178.000
75.64545 210.000
75.66540 178.000
75.68535 194.000
75.70529 194.000
75.72524 160.000
75.74519 183.000
75.76513 195.000
75.78508 177.000
75.80503 176.000
75.82497 171.000
75.84492 190.000
75.86487 140.000
75.88481 182.000
75.90476 157.000
75.92471 148.000
75.94466 173.000
75.96460 175.000
75.98455 164.000
76.00450 171.000
76.02444 172.000
76.04439 149.000
76.06434 159.000
76.08428 167.000
76.10423 161.000
76.12418 160.000
76.14413 180.000
76.16407 155.000
76.18402 179.000
76.20397 184.000
76.22391 168.000
76.24386 160.000
76.26381 172.000
76.28375 157.000
76.30370 161.000
76.32365 165.000
76.34359 160.000
76.36354 167.000
76.38349 154.000
76.40344 154.000
76.42338 187.000
76.44333 164.000
76.46328 140.000
76.48322 173.000
76.50317 158.000
76.52312 162.000
76.54306 158.000
76.56301 168.000
76.58296 168.000
76.60291 172.000
76.62285 183.000
76.64280 157.000
76.66275 165.000
76.68269 170.000
76.70264 159.000
76.72259 171.000
76.74253 179.000
76.76248 179.000
76.78243 139.000
76.80238 145.000
76.82232 159.000
76.84227 150.000
76.86222 155.000
76.88216 167.000
76.90211 159.000
76.92206 144.000
76.94200 155.000
76.96195 176.000
76.98190 160.000
77.00184 163.000
77.02179 163.000
77.04174 177.000
77.06169 180.000
77.08163 148.000
77.10158 179.000
77.12153 153.000
77.14147 173.000
77.16142 163.000
77.18137 178.000
77.20131 188.000
77.22126 167.000
77.24121 173.000
77.26116 182.000
77.28110 187.000
77.30105 177.000
77.32100 209.000
77.34094 163.000
77.36089 210.000
77.38084 183.000
77.40078 198.000
77.42073 188.000
77.44068 214.000
77.46062 166.000
77.48057 195.000
77.50052 203.000
77.52047 180.000
77.54041 189.000
77.56036 187.000
77.58031 189.000
77.60025 195.000
77.62020 189.000
77.64015 207.000
77.66009 192.000
77.68004 202.000
77.69999 195.000
77.71994 186.000
77.73988 176.000
77.75983 211.000
77.77978 190.000
77.79972 211.000
77.81967 201.000
77.83962 198.000
77.85956 228.000
77.87951 221.000
77.89946 215.000
77.91940 231.000
77.93935 221.000
77.95930 230.000
77.97925 199.000
77.99919 215.000
78.01914 225.000
78.03909 222.000
78.05903 258.000
78.07898 238.000
78.09893 229.000
78.11887 239.000
78.13882 230.000
78.15877 226.000
78.17872 263.000
78.19866 271.000
78.21861 256.000
78.23856 255.000
78.25850 232.000
78.27845 274.000
78.29840 275.000
78.31834 252.000
78.33829 236.000
78.35824 235.000
78.37819 252.000
78.39813 234.000
78.41808 276.000
78.43803 228.000
78.45797 234.000
78.47792 257.000
78.49787 209.000
78.51781 226.000
78.53776 217.000
78.55771 239.000
78.57765 210.000
78.59760 210.000
78.61755 189.000
78.63750 201.000
78.65744 197.000
78.67739 204.000
78.69734 186.000
78.71728 192.000
78.73723 174.000
78.75718 200.000
78.77712 161.000
78.79707 180.000
78.81702 177.000
78.83697 187.000
78.85691 181.000
78.87686 179.000
78.89681 166.000
78.91675 193.000
78.93670 163.000
78.95665 167.000
78.97659 194.000
78.99654 165.000
79.01649 162.000
79.03643 181.000
79.05638 173.000
79.07633 172.000
79.09628 167.000
79.11622 160.000
79.13617 162.000
79.15612 178.000
79.17606 184.000
79.19601 167.000
79.21596 189.000
79.23590 164.000
79.25585 173.000
79.27580 149.000
79.29575 168.000
79.31569 187.000
79.33564 181.000
79.35559 173.000
79.37553 149.000
79.39548 159.000
79.41543 183.000
79.43537 170.000
79.45532 151.000
79.47527 148.000
79.49521 151.000
79.51516 172.000
79.53511 170.000
79.55506 141.000
79.57500 140.000
79.59495 176.000
79.61490 182.000
79.63484 142.000
79.65479 163.000
79.67474 162.000
79.69468 185.000
79.71463 177.000
79.73458 185.000
79.75453 151.000
79.77447 161.000
79.79442 163.000
79.81437 138.000
79.83431 172.000
79.85426 159.000
79.87421 157.000
79.89415 144.000
79.91410 162.000
79.93405 169.000
79.95399 160.000
79.97394 173.000
79.99389 164.000
80.01384 169.000
80.03378 169.000
80.05373 130.000
80.07368 173.000
80.09362 179.000
80.11357 163.000
80.13352 155.000
80.15346 157.000
80.17341 178.000
80.19336 170.000
80.21331 187.000
80.23325 199.000
80.25320 168.000
80.27315 184.000
80.29309 176.000
80.31304 179.000
80.33299 186.000
80.35293 177.000
80.37288 184.000
80.39283 170.000
80.41278 181.000
80.43272 181.000
80.45267 164.000
80.47262 168.000
80.49256 171.000
80.51251 178.000
80.53246 168.000
80.55240 165.000
80.57235 156.000
80.59230 169.000
80.61224 157.000
80.63219 174.000
80.65214 178.000
80.67209 188.000
80.69203 180.000
80.71198 174.000
80.73193 154.000
80.75187 166.000
80.77182 180.000
80.79177 177.000
80.81171 156.000
80.83166 150.000
80.85161 176.000
80.87156 154.000
80.89150 172.000
80.91145 170.000
80.93140 159.000
80.95134 175.000
80.97129 170.000
80.99124 177.000
81.01118 170.000
81.03113 172.000
81.05108 160.000
81.07102 147.000
81.09097 180.000
81.11092 142.000
81.13087 163.000
81.15081 154.000
81.17076 176.000
81.19071 173.000
81.21065 164.000
81.23060 157.000
81.25055 148.000
81.27049 154.000
81.29044 177.000
81.31039 173.000
81.33034 164.000
81.35028 164.000
81.37023 163.000
81.39018 159.000
81.41012 157.000
81.43007 148.000
81.45002 165.000
81.46996 179.000
81.48991 151.000
81.50986 149.000
81.52980 177.000
81.54975 147.000
81.56970 158.000
81.58965 173.000
81.60959 166.000
81.62954 150.000
81.64949 140.000
81.66943 153.000
81.68938 165.000
81.70933 167.000
81.72927 155.000
81.74922 171.000
81.76917 168.000
81.78912 154.000
81.80906 165.000
81.82901 177.000
81.84896 141.000
81.86890 164.000
81.88885 141.000
81.90880 159.000
81.92874 143.000
81.94869 173.000
81.96864 171.000
81.98859 179.000
82.00853 143.000
82.02848 142.000
82.04843 158.000
82.06837 168.000
82.08832 171.000
82.10827 152.000
82.12821 149.000
82.14816 151.000
82.16811 162.000
82.18805 165.000
82.20800 181.000
82.22795 176.000
82.24790 192.000
82.26784 154.000
82.28779 175.000
82.30774 183.000
82.32768 162.000
82.34763 191.000
82.36758 192.000
82.38752 173.000
82.40747 172.000
82.42742 165.000
82.44737 173.000
82.46731 218.000
82.48726 205.000
82.50721 152.000
82.52715 172.000
82.54710 171.000
82.56705 197.000
82.58699 180.000
82.60694 219.000
82.62689 188.000
82.64683 180.000
82.66678 193.000
82.68673 190.000
82.70668 197.000
82.72662 176.000
82.74657 191.000
82.76652 199.000
82.78646 183.000
82.80641 193.000
82.82636 175.000
82.84630 171.000
82.86625 176.000
82.88620 200.000
82.90615 164.000
82.92609 167.000
82.94604 178.000
82.96599 191.000
82.98593 164.000
83.00588 165.000
83.02583 182.000
83.04577 189.000
83.06572 197.000
83.08567 176.000
83.10561 191.000
83.12556 162.000
83.14551 175.000
83.16546 164.000
83.18540 181.000
83.20535 203.000
83.22530 188.000
83.24524 190.000
83.26519 171.000
83.28514 165.000
83.30508 162.000
83.32503 163.000
83.34498 173.000
83.36493 169.000
83.38487 182.000
83.40482 158.000
83.42477 163.000
83.44471 178.000
83.46466 164.000
83.48461 168.000
83.50455 191.000
83.52450 185.000
83.54445 176.000
83.56440 183.000
83.58434 179.000
83.60429 188.000
83.62424 186.000
83.64418 184.000
83.66413 217.000
83.68408 171.000
83.70402 174.000
83.72397 185.000
83.74392 179.000
83.76386 180.000
83.78381 174.000
83.80376 198.000
83.82371 202.000
83.84365 168.000
83.86360 174.000
83.88355 206.000
83.90349 178.000
83.92344 181.000
83.94339 199.000
83.96333 208.000
83.98328 167.000
84.00323 204.000
84.02318 229.000
84.04312 196.000
84.06307 204.000
84.08302 197.000
84.10296 196.000
84.12291 212.000
84.14286 213.000
84.16280 196.000
84.18275 207.000
84.20270 193.000
84.22264 210.000
84.24259 206.000
84.26254 194.000
84.28249 188.000
84.30243 179.000
84.32238 209.000
84.34233 237.000
84.36227 207.000
84.38222 202.000
84.40217 219.000
84.42211 191.000
84.44206 206.000
84.46201 179.000
84.48196 206.000
84.50190 218.000
84.52185 203.000
84.54180 189.000
84.56174 203.000
84.58169 179.000
84.60164 182.000
84.62158 191.000
84.64153 175.000
84.66148 178.000
84.68142 170.000
84.70137 204.000
84.72132 174.000
84.74127 189.000
84.76121 156.000
84.78116 197.000
84.80111 174.000
84.82105 159.000
84.84100 172.000
84.86095 184.000
84.88089 184.000
84.90084 164.000
84.92079 173.000
84.94074 148.000
84.96068 176.000
84.98063 178.000
85.00058 179.000
85.02052 179.000
85.04047 150.000
85.06042 161.000
85.08036 137.000
85.10031 173.000
85.12026 148.000
85.14021 173.000
85.16015 159.000
85.18010 189.000
85.20005 155.000
85.21999 168.000
85.23994 158.000
85.25989 168.000
85.27983 149.000
85.29978 159.000
85.31973 171.000
85.33967 167.000
85.35962 159.000
85.37957 149.000
85.39952 156.000
85.41946 185.000
85.43941 141.000
85.45936 167.000
85.47930 145.000
85.49925 160.000
85.51920 159.000
85.53914 157.000
85.55909 152.000
85.57904 163.000
85.59899 159.000
85.61893 165.000
85.63888 152.000
85.65883 148.000
85.67877 145.000
85.69872 165.000
85.71867 148.000
85.73861 142.000
85.75856 165.000
85.77851 162.000
85.79845 173.000
85.81840 153.000
85.83835 140.000
85.85830 143.000
85.87824 170.000
85.89819 177.000
85.91814 160.000
85.93808 151.000
85.95803 148.000
85.97798 151.000
85.99792 151.000
86.01787 172.000
86.03782 147.000
86.05777 164.000
86.07771 170.000
86.09766 179.000
86.11761 147.000
86.13755 158.000
86.15750 175.000
86.17745 163.000
86.19739 158.000
86.21734 142.000
86.23729 166.000
86.25723 146.000
86.27718 165.000
86.29713 157.000
86.31708 161.000
86.33702 139.000
86.35697 138.000
86.37692 169.000
86.39686 163.000
86.41681 153.000
86.43676 166.000
86.45670 178.000
86.47665 180.000
86.49660 179.000
86.51655 180.000
86.53649 184.000
86.55644 170.000
86.57639 186.000
86.59633 189.000
86.61628 195.000
86.63623 179.000
86.65617 177.000
86.67612 197.000
86.69607 174.000
86.71602 176.000
86.73596 187.000
86.75591 180.000
86.77586 189.000
86.79580 181.000
86.81575 178.000
86.83570 165.000
86.85564 186.000
86.87559 187.000
86.89554 187.000
86.91548 187.000
86.93543 182.000
86.95538 183.000
86.97533 188.000
86.99527 192.000
87.01522 180.000
87.03517 204.000
87.05511 206.000
87.07506 187.000
87.09501 180.000
87.11495 192.000
87.13490 164.000
87.15485 174.000
87.17480 188.000
87.19474 184.000
87.21469 186.000
87.23464 172.000
87.25458 175.000
87.27453 171.000
87.29448 186.000
87.31442 180.000
87.33437 183.000
87.35432 196.000
87.37426 181.000
87.39421 168.000
87.41416 187.000
87.43411 187.000
87.45405 193.000
87.47400 171.000
87.49395 148.000
87.51389 168.000
87.53384 161.000
87.55379 170.000
87.57373 184.000
87.59368 182.000
87.61363 191.000
87.63358 157.000
87.65352 174.000
87.67347 169.000
87.69342 184.000
87.71336 185.000
87.73331 166.000
87.75326 160.000
87.77320 158.000
87.79315 161.000
87.81310 167.000
87.83304 172.000
87.85299 154.000
87.87294 178.000
87.89289 188.000
87.91283 170.000
87.93278 162.000
87.95273 181.000
87.97267 159.000
87.99262 173.000
88.01257 152.000
88.03251 175.000
88.05246 177.000
88.07241 167.000
88.09236 163.000
88.11230 176.000
88.13225 157.000
88.15220 180.000
88.17214 155.000
88.19209 168.000
88.21204 175.000
88.23198 174.000
88.25193 157.000
88.27188 146.000
88.29183 149.000
88.31177 150.000
88.33172 156.000
88.35167 152.000
88.37161 158.000
88.39156 137.000
88.41151 175.000
88.43145 166.000
88.45140 150.000
88.47135 152.000
88.49129 163.000
88.51124 157.000
88.53119 149.000
88.55114 174.000
88.57108 158.000
88.59103 160.000
88.61098 173.000
88.63092 158.000
88.65087 149.000
88.67082 154.000
88.69076 179.000
88.71071 156.000
88.73066 167.000
88.75061 162.000
88.77055 160.000
88.79050 190.000
88.81045 146.000
88.83039 162.000
88.85034 154.000
88.87029 177.000
88.89023 169.000
88.91018 151.000
88.93013 147.000
88.95007 162.000
88.97002 162.000
88.98997 160.000
89.00992 187.000
89.02986 151.000
89.04981 165.000
89.06976 163.000
89.08970 163.000
89.10965 135.000
89.12960 185.000
89.14954 142.000
89.16949 171.000
89.18944 172.000
89.20939 170.000
89.22933 166.000
89.24928 168.000
89.26923 178.000
89.28917 161.000
89.30912 151.000
89.32907 153.000
89.34901 162.000
89.36896 168.000
89.38891 157.000
89.40885 168.000
89.42880 204.000
89.44875 178.000
89.46870 166.000
89.48864 185.000
89.50859 167.000
89.52854 164.000
89.54848 175.000
89.56843 168.000
89.58838 189.000
89.60832 181.000
89.62827 182.000
89.64822 160.000
89.66817 158.000
89.68811 185.000
89.70806 178.000
89.72801 166.000
89.74795 188.000
89.76790 178.000
89.78785 190.000
89.80779 157.000
89.82774 179.000
89.84769 172.000
89.86764 184.000
89.88758 180.000
89.90753 181.000
89.92748 199.000
89.94742 165.000
89.96737 184.000
89.98732 181.000
90.00726 183.000
