10.00000 127.000
10.01995 96.000
10.03989 118.000
10.05984 98.000
10.07979 97.000
10.09973 99.000
10.11968 90.000
10.13963 97.000
10.15958 110.000
10.17952 97.000
10.19947 112.000
10.21942 99.000
10.23936 116.000
10.25931 92.000
10.27926 93.000
10.29920 95.000
10.31915 105.000
10.33910 117.000
10.35905 107.000
10.37899 103.000
10.39894 106.000
10.41889 102.000
10.43883 104.000
10.45878 101.000
10.47873 114.000
10.49867 109.000
10.51862 98.000
10.53857 106.000
10.55851 96.000
10.57846 109.000
10.59841 110.000
10.61836 114.000
10.63830 95.000
10.65825 101.000
10.67820 109.000
10.69814 116.000
10.71809 93.000
10.73804 94.000
10.75798 126.000
10.77793 115.000
10.79788 132.000
10.81783 112.000
10.83777 104.000
10.85772 102.000
10.87767 104.000
10.89761 109.000
10.91756 97.000
10.93751 115.000
10.95745 116.000
10.97740 99.000
10.99735 102.000
11.01730 117.000
11.03724 120.000
11.05719 97.000
11.07714 89.000
11.09708 103.000
11.11703 113.000
11.13698 106.000
11.15692 113.000
11.17687 114.000
11.19682 109.000
11.21676 114.000
11.23671 111.000
11.25666 100.000
11.27661 98.000
11.29655 117.000
11.31650 105.000
11.33645 88.000
11.35639 92.000
11.37634 110.000
11.39629 105.000
11.41623 109.000
11.43618 99.000
11.45613 92.000
11.47608 115.000
11.49602 108.000
11.51597 112.000
11.53592 108.000
11.55586 94.000
11.57581 104.000
11.59576 92.000
11.61570 121.000
11.63565 128.000
11.65560 100.000
11.67554 101.000
11.69549 90.000
11.71544 125.000
11.73539 127.000
11.75533 118.000
11.77528 110.000
11.79523 126.000
11.81517 132.000
11.83512 98.000
11.85507 117.000
11.87501 92.000
11.89496 105.000
11.91491 107.000
11.93486 119.000
11.95480 116.000
11.97475 108.000
11.99470 109.000
12.01464 103.000
12.03459 99.000
12.05454 97.000
12.07448 101.000
12.09443 101.000
12.11438 114.000
12.13432 124.000
12.15427 95.000
12.17422 134.000
12.19417 129.000
12.21411 105.000
12.23406 103.000
12.25401 111.000
12.27395 99.000
12.29390 91.000
12.31385 112.000
12.33379 94.000
12.35374 113.000
12.37369 114.000
12.39364 115.000
12.41358 115.000
12.43353 133.000
12.45348 104.000
12.47342 118.000
12.49337 109.000
12.51332 112.000
12.53326 134.000
12.55321 99.000
12.57316 116.000
12.59311 107.000
12.61305 102.000
12.63300 113.000
12.65295 115.000
12.67289 98.000
12.69284 117.000
12.71279 123.000
12.73273 122.000
12.75268 120.000
12.77263 109.000
12.79257 118.000
12.81252 123.000
12.83247 115.000
12.85242 109.000
12.87236 128.000
12.89231 106.000
12.91226 131.000
12.93220 106.000
12.95215 110.000
12.97210 98.000
12.99204 113.000
13.01199 80.000
13.03194 102.000
13.05189 120.000
13.07183 114.000
13.09178 120.000
13.11173 102.000
13.13167 108.000
13.15162 133.000
13.17157 103.000
13.19151 100.000
13.21146 119.000
13.23141 117.000
13.25135 113.000
13.27130 130.000
13.29125 116.000
13.31120 124.000
13.33114 126.000
13.35109 101.000
13.37104 107.000
13.39098 114.000
13.41093 108.000
13.43088 106.000
13.45082 100.000
13.47077 114.000
13.49072 126.000
13.51067 133.000
13.53061 122.000
13.55056 120.000
13.57051 107.000
13.59045 97.000
13.61040 111.000
13.63035 119.000
13.65029 90.000
13.67024 114.000
13.69019 110.000
13.71013 122.000
13.73008 107.000
13.75003 105.000
13.76998 102.000
13.78992 99.000
13.80987 113.000
13.82982 119.000
13.84976 114.000
13.86971 85.000
13.88966 104.000
13.90960 105.000
13.92955 110.000
13.94950 112.000
13.96945 88.000
13.98939 110.000
14.00934 113.000
14.02929 107.000
14.04923 109.000
14.06918 113.000
14.08913 86.000
14.10907 108.000
14.12902 105.000
14.14897 121.000
14.16892 117.000
14.18886 116.000
14.20881 113.000
14.22876 135.000
14.24870 124.000
14.26865 129.000
14.28860 124.000
14.30854 119.000
14.32849 127.000
14.34844 128.000
14.36838 136.000
14.38833 117.000
14.40828 121.000
14.42823 134.000
14.44817 113.000
14.46812 121.000
14.48807 108.000
14.50801 120.000
14.52796 115.000
14.54791 112.000
14.56785 112.000
14.58780 123.000
14.60775 103.000
14.62770 135.000
14.64764 139.000
14.66759 132.000
14.68754 115.000
14.70748 108.000
14.72743 131.000
14.74738 122.000
14.76732 112.000
14.78727 119.000
14.80722 126.000
14.82716 120.000
14.84711 131.000
14.86706 117.000
14.88701 152.000
14.90695 133.000
14.92690 140.000
14.94685 135.000
14.96679 137.000
14.98674 135.000
15.00669 152.000
15.02663 161.000
15.04658 162.000
15.06653 166.000
15.08648 149.000
15.10642 179.000
15.12637 215.000
15.14632 181.000
15.16626 197.000
15.18621 207.000
15.20616 199.000
15.22610 205.000
15.24605 202.000
15.26600 211.000
15.28594 209.000
15.30589 221.000
15.32584 216.000
15.34579 200.000
15.36573 228.000
15.38568 242.000
15.40563 216.000
15.42557 242.000
15.44552 271.000
15.46547 276.000
15.48541 279.000
15.50536 313.000
15.52531 361.000
15.54526 364.000
15.56520 402.000
15.58515 442.000
15.60510 474.000
15.62504 624.000
15.64499 792.000
15.66494 985.000
15.68488 1360.000
15.70483 2000.000
15.72478 3183.000
15.74472 4965.000
15.76467 8092.000
15.78462 12004.000
15.80457 15248.000
15.82451 17333.000
15.84446 16890.000
15.86441 13581.000
15.88435 8461.000
15.90430 4991.000
15.92425 2306.000
15.94419 1062.000
15.96414 777.000
15.98409 616.000
16.00404 465.000
16.02398 439.000
16.04393 381.000
16.06388 347.000
16.08382 309.000
16.10377 275.000
16.12372 287.000
16.14366 232.000
16.16361 228.000
16.18356 224.000
16.20351 222.000
16.22345 218.000
16.24340 225.000
16.26335 232.000
16.28329 211.000
16.30324 203.000
16.32319 186.000
16.34313 187.000
16.36308 180.000
16.38303 161.000
16.40297 144.000
16.42292 150.000
16.44287 152.000
16.46282 158.000
16.48276 153.000
16.50271 169.000
16.52266 171.000
16.54260 136.000
16.56255 168.000
16.58250 149.000
16.60244 154.000
16.62239 133.000
16.64234 120.000
16.66229 126.000
16.68223 147.000
16.70218 131.000
16.72213 154.000
16.74207 123.000
16.76202 136.000
16.78197 138.000
16.80191 110.000
16.82186 142.000
16.84181 158.000
16.86175 135.000
16.88170 139.000
16.90165 127.000
16.92160 116.000
16.94154 115.000
16.96149 110.000
16.98144 103.000
17.00138 138.000
17.02133 136.000
17.04128 127.000
17.06122 102.000
17.08117 121.000
17.10112 104.000
17.12107 108.000
17.14101 148.000
17.16096 94.000
17.18091 103.000
17.20085 115.000
17.22080 106.000
17.24075 103.000
17.26069 107.000
17.28064 106.000
17.30059 103.000
17.32053 105.000
17.34048 116.000
17.36043 104.000
17.38038 112.000
17.40032 119.000
17.42027 129.000
17.44022 107.000
17.46016 102.000
17.48011 117.000
17.50006 99.000
17.52000 93.000
17.53995 101.000
17.55990 103.000
17.57985 116.000
17.59979 89.000
17.61974 100.000
17.63969 113.000
17.65963 118.000
17.67958 111.000
17.69953 99.000
17.71947 108.000
17.73942 109.000
17.75937 90.000
17.77932 113.000
17.79926 89.000
17.81921 102.000
17.83916 116.000
17.85910 96.000
17.87905 107.000
17.89900 100.000
17.91894 86.000
17.93889 134.000
17.95884 101.000
17.97878 114.000
17.99873 106.000
18.01868 106.000
18.03863 109.000
18.05857 103.000
18.07852 116.000
18.09847 111.000
18.11841 101.000
18.13836 81.000
18.15831 106.000
18.17825 94.000
18.19820 106.000
18.21815 104.000
18.23810 108.000
18.25804 93.000
18.27799 100.000
18.29794 98.000
18.31788 96.000
18.33783 99.000
18.35778 101.000
18.37772 91.000
18.39767 95.000
18.41762 104.000
18.43756 96.000
18.45751 106.000
18.47746 107.000
18.49741 103.000
18.51735 83.000
18.53730 109.000
18.55725 88.000
18.57719 96.000
18.59714 99.000
18.61709 94.000
18.63703 92.000
18.65698 98.000
18.67693 113.000
18.69688 99.000
18.71682 87.000
18.73677 104.000
18.75672 126.000
18.77666 83.000
18.79661 120.000
18.81656 100.000
18.83650 105.000
18.85645 99.000
18.87640 93.000
18.89634 89.000
18.91629 91.000
18.93624 96.000
18.95619 96.000
18.97613 111.000
18.99608 112.000
19.01603 99.000
19.03597 100.000
19.05592 106.000
19.07587 127.000
19.09581 86.000
19.11576 110.000
19.13571 88.000
19.15566 104.000
19.17560 87.000
19.19555 78.000
19.21550 104.000
19.23544 106.000
19.25539 99.000
19.27534 103.000
19.29528 114.000
19.31523 99.000
19.33518 84.000
19.35513 109.000
19.37507 118.000
19.39502 98.000
19.41497 104.000
19.43491 82.000
19.45486 104.000
19.47481 95.000
19.49475 120.000
19.51470 98.000
19.53465 91.000
19.55459 96.000
19.57454 89.000
19.59449 104.000
19.61444 93.000
19.63438 94.000
19.65433 109.000
19.67428 116.000
19.69422 106.000
19.71417 114.000
19.73412 85.000
19.75406 102.000
19.77401 110.000
19.79396 100.000
19.81391 115.000
19.83385 90.000
19.85380 95.000
19.87375 104.000
19.89369 105.000
19.91364 108.000
19.93359 113.000
19.95353 98.000
19.97348 76.000
19.99343 97.000
20.01337 101.000
20.03332 87.000
20.05327 124.000
20.07322 112.000
20.09316 104.000
20.11311 104.000
20.13306 108.000
20.15300 102.000
20.17295 87.000
20.19290 102.000
20.21284 99.000
20.23279 111.000
20.25274 126.000
20.27269 98.000
20.29263 94.000
20.31258 95.000
20.33253 110.000
20.35247 91.000
20.37242 90.000
20.39237 124.000
20.41231 102.000
20.43226 96.000
20.45221 115.000
20.47215 116.000
20.49210 105.000
20.51205 128.000
20.53200 100.000
20.55194 114.000
20.57189 125.000
20.59184 107.000
20.61178 112.000
20.63173 99.000
20.65168 97.000
20.67162 94.000
20.69157 99.000
20.71152 110.000
20.73147 105.000
20.75141 96.000
20.77136 129.000
20.79131 136.000
20.81125 144.000
20.83120 95.000
20.85115 125.000
20.87109 114.000
20.89104 117.000
20.91099 107.000
20.93094 106.000
20.95088 108.000
20.97083 106.000
20.99078 93.000
21.01072 102.000
21.03067 120.000
21.05062 103.000
21.07056 86.000
21.09051 96.000
21.11046 99.000
21.13040 111.000
21.15035 96.000
21.17030 102.000
21.19025 88.000
21.21019 101.000
21.23014 102.000
21.25009 99.000
21.27003 99.000
21.28998 95.000
21.30993 121.000
21.32987 92.000
21.34982 103.000
21.36977 119.000
21.38972 96.000
21.40966 95.000
21.42961 94.000
21.44956 91.000
21.46950 81.000
21.48945 113.000
21.50940 101.000
21.52934 118.000
21.54929 98.000
21.56924 118.000
21.58918 92.000
21.60913 87.000
21.62908 88.000
21.64903 96.000
21.66897 97.000
21.68892 112.000
21.70887 78.000
21.72881 101.000
21.74876 112.000
21.76871 74.000
21.78865 112.000
21.80860 110.000
21.82855 98.000
21.84850 92.000
21.86844 122.000
21.88839 107.000
21.90834 103.000
21.92828 121.000
21.94823 114.000
21.96818 109.000
21.98812 125.000
22.00807 117.000
22.02802 109.000
22.04796 121.000
22.06791 113.000
22.08786 102.000
22.10781 116.000
22.12775 105.000
22.14770 94.000
22.16765 120.000
22.18759 94.000
22.20754 106.000
22.22749 106.000
22.24743 126.000
22.26738 110.000
22.28733 98.000
22.30728 100.000
22.32722 92.000
22.34717 97.000
22.36712 94.000
22.38706 106.000
22.40701 87.000
22.42696 104.000
22.44690 111.000
22.46685 111.000
22.48680 99.000
22.50675 110.000
22.52669 108.000
22.54664 105.000
22.56659 103.000
22.58653 71.000
22.60648 101.000
22.62643 109.000
22.64637 102.000
22.66632 102.000
22.68627 89.000
22.70621 111.000
22.72616 112.000
22.74611 88.000
22.76606 100.000
22.78600 101.000
22.80595 106.000
22.82590 105.000
22.84584 99.000
22.86579 100.000
22.88574 75.000
22.90568 97.000
22.92563 99.000
22.94558 116.000
22.96553 125.000
22.98547 102.000
23.00542 96.000
23.02537 103.000
23.04531 101.000
23.06526 99.000
23.08521 104.000
23.10515 94.000
23.12510 100.000
23.14505 103.000
23.16499 91.000
23.18494 99.000
23.20489 101.000
23.22484 116.000
23.24478 119.000
23.26473 95.000
23.28468 114.000
23.30462 85.000
23.32457 111.000
23.34452 125.000
23.36446 89.000
23.38441 103.000
23.40436 98.000
23.42431 119.000
23.44425 132.000
23.46420 106.000
23.48415 103.000
23.50409 106.000
23.52404 98.000
23.54399 104.000
23.56393 112.000
23.58388 107.000
23.60383 108.000
23.62377 114.000
23.64372 108.000
23.66367 103.000
23.68362 113.000
23.70356 111.000
23.72351 94.000
23.74346 109.000
23.76340 103.000
23.78335 111.000
23.80330 94.000
23.82324 104.000
23.84319 104.000
23.86314 98.000
23.88309 94.000
23.90303 98.000
23.92298 118.000
23.94293 86.000
23.96287 96.000
23.98282 99.000
24.00277 105.000
24.02271 101.000
24.04266 111.000
24.06261 101.000
24.08256 103.000
24.10250 111.000
24.12245 91.000
24.14240 95.000
24.16234 110.000
24.18229 112.000
24.20224 87.000
24.22218 112.000
24.24213 111.000
24.26208 104.000
24.28202 132.000
24.30197 120.000
24.32192 102.000
24.34187 120.000
24.36181 120.000
24.38176 81.000
24.40171 115.000
24.42165 97.000
24.44160 102.000
24.46155 104.000
24.48149 88.000
24.50144 134.000
24.52139 102.000
24.54134 105.000
24.56128 108.000
24.58123 96.000
24.60118 112.000
24.62112 109.000
24.64107 97.000
24.66102 124.000
24.68096 93.000
24.70091 108.000
24.72086 109.000
24.74080 116.000
24.76075 107.000
24.78070 95.000
24.80065 111.000
24.82059 107.000
24.84054 100.000
24.86049 93.000
24.88043 108.000
24.90038 110.000
24.92033 101.000
24.94027 110.000
24.96022 121.000
24.98017 122.000
25.00012 138.000
25.02006 115.000
25.04001 126.000
25.05996 121.000
25.07990 132.000
25.09985 121.000
25.11980 115.000
25.13974 106.000
25.15969 108.000
25.17964 113.000
25.19958 105.000
25.21953 126.000
25.23948 129.000
25.25943 114.000
25.27937 98.000
25.29932 95.000
25.31927 94.000
25.33921 104.000
25.35916 125.000
25.37911 111.000
25.39905 105.000
25.41900 106.000
25.43895 108.000
25.45890 104.000
25.47884 116.000
25.49879 114.000
25.51874 112.000
25.53868 110.000
25.55863 101.000
25.57858 111.000
25.59852 102.000
25.61847 108.000
25.63842 112.000
25.65837 108.000
25.67831 117.000
25.69826 104.000
25.71821 129.000
25.73815 109.000
25.75810 103.000
25.77805 106.000
25.79799 105.000
25.81794 103.000
25.83789 121.000
25.85783 121.000
25.87778 94.000
25.89773 122.000
25.91768 109.000
25.93762 106.000
25.95757 125.000
25.97752 112.000
25.99746 129.000
26.01741 117.000
26.03736 109.000
26.05730 119.000
26.07725 124.000
26.09720 121.000
26.11715 104.000
26.13709 105.000
26.15704 97.000
26.17699 106.000
26.19693 138.000
26.21688 101.000
26.23683 117.000
26.25677 94.000
26.27672 122.000
26.29667 110.000
26.31661 88.000
26.33656 101.000
26.35651 106.000
26.37646 113.000
26.39640 117.000
26.41635 97.000
26.43630 111.000
26.45624 108.000
26.47619 103.000
26.49614 119.000
26.51608 121.000
26.53603 101.000
26.55598 109.000
26.57593 95.000
26.59587 95.000
26.61582 93.000
26.63577 108.000
26.65571 116.000
26.67566 111.000
26.69561 115.000
26.71555 119.000
26.73550 113.000
26.75545 126.000
26.77539 101.000
26.79534 117.000
26.81529 92.000
26.83524 102.000
26.85518 125.000
26.87513 116.000
26.89508 110.000
26.91502 123.000
26.93497 110.000
26.95492 126.000
26.97486 120.000
26.99481 112.000
27.01476 122.000
27.03471 108.000
27.05465 118.000
27.07460 131.000
27.09455 119.000
27.11449 115.000
27.13444 137.000
27.15439 133.000
27.17433 154.000
27.19428 121.000
27.21423 134.000
27.23417 137.000
27.25412 115.000
27.27407 127.000
27.29402 132.000
27.31396 112.000
27.33391 117.000
27.35386 123.000
27.37380 107.000
27.39375 128.000
27.41370 132.000
27.43364 118.000
27.45359 110.000
27.47354 124.000
27.49349 135.000
27.51343 124.000
27.53338 111.000
27.55333 119.000
27.57327 99.000
27.59322 113.000
27.61317 133.000
27.63311 121.000
27.65306 121.000
27.67301 104.000
27.69296 138.000
27.71290 121.000
27.73285 122.000
27.75280 113.000
27.77274 104.000
27.79269 105.000
27.81264 101.000
27.83258 126.000
27.85253 119.000
27.87248 120.000
27.89242 135.000
27.91237 108.000
27.93232 111.000
27.95227 118.000
27.97221 106.000
27.99216 117.000
28.01211 102.000
28.03205 105.000
28.05200 121.000
28.07195 95.000
28.09189 124.000
28.11184 132.000
28.13179 144.000
28.15174 108.000
28.17168 91.000
28.19163 114.000
28.21158 115.000
28.23152 138.000
28.25147 120.000
28.27142 122.000
28.29136 120.000
28.31131 134.000
28.33126 135.000
28.35120 139.000
28.37115 155.000
28.39110 126.000
28.41105 143.000
28.43099 140.000
28.45094 127.000
28.47089 130.000
28.49083 138.000
28.51078 135.000
28.53073 119.000
28.55067 109.000
28.57062 115.000
28.59057 130.000
28.61052 118.000
28.63046 123.000
28.65041 119.000
28.67036 130.000
28.69030 129.000
28.71025 105.000
28.73020 111.000
28.75014 105.000
28.77009 122.000
28.79004 102.000
28.80998 119.000
28.82993 131.000
28.84988 123.000
28.86983 124.000
28.88977 120.000
28.90972 115.000
28.92967 112.000
28.94961 118.000
28.96956 116.000
28.98951 108.000
29.00945 115.000
29.02940 131.000
29.04935 120.000
29.06930 108.000
29.08924 98.000
29.10919 116.000
29.12914 127.000
29.14908 130.000
29.16903 126.000
29.18898 128.000
29.20892 112.000
29.22887 114.000
29.24882 109.000
29.26877 105.000
29.28871 139.000
29.30866 120.000
29.32861 153.000
29.34855 145.000
29.36850 167.000
29.38845 164.000
29.40839 145.000
29.42834 155.000
29.44829 145.000
29.46823 164.000
29.48818 155.000
29.50813 133.000
29.52808 116.000
29.54802 127.000
29.56797 123.000
29.58792 127.000
29.60786 115.000
29.62781 102.000
29.64776 113.000
29.66770 116.000
29.68765 115.000
29.70760 126.000
29.72755 132.000
29.74749 114.000
29.76744 121.000
29.78739 109.000
29.80733 118.000
29.82728 124.000
29.84723 123.000
29.86717 128.000
29.88712 114.000
29.90707 120.000
29.92701 115.000
29.94696 117.000
29.96691 135.000
29.98686 125.000
30.00680 127.000
30.02675 116.000
30.04670 149.000
30.06664 117.000
30.08659 151.000
30.10654 145.000
30.12648 156.000
30.14643 125.000
30.16638 113.000
30.18633 156.000
30.20627 125.000
30.22622 114.000
30.24617 106.000
30.26611 113.000
30.28606 115.000
30.30601 123.000
30.32595 107.000
30.34590 118.000
30.36585 118.000
30.38579 91.000
30.40574 124.000
30.42569 116.000
30.44564 130.000
30.46558 115.000
30.48553 111.000
30.50548 124.000
30.52542 112.000
30.54537 144.000
30.56532 124.000
30.58526 113.000
30.60521 116.000
30.62516 130.000
30.64511 114.000
30.66505 120.000
30.68500 112.000
30.70495 113.000
30.72489 128.000
30.74484 116.000
30.76479 116.000
30.78473 113.000
30.80468 111.000
30.82463 145.000
30.84458 122.000
30.86452 121.000
30.88447 115.000
30.90442 108.000
30.92436 123.000
30.94431 109.000
30.96426 105.000
30.98420 129.000
31.00415 114.000
31.02410 120.000
31.04404 113.000
31.06399 124.000
31.08394 116.000
31.10389 110.000
31.12383 110.000
31.14378 102.000
31.16373 112.000
31.18367 128.000
31.20362 117.000
31.22357 119.000
31.24351 114.000
31.26346 116.000
31.28341 114.000
31.30336 106.000
31.32330 112.000
31.34325 147.000
31.36320 119.000
31.38314 153.000
31.40309 123.000
31.42304 123.000
31.44298 142.000
31.46293 115.000
31.48288 129.000
31.50282 125.000
31.52277 122.000
31.54272 137.000
31.56267 143.000
31.58261 160.000
31.60256 137.000
31.62251 158.000
31.64245 167.000
31.66240 182.000
31.68235 143.000
31.70229 183.000
31.72224 181.000
31.74219 165.000
31.76214 214.000
31.78208 235.000
31.80203 284.000
31.82198 333.000
31.84192 412.000
31.86187 480.000
31.88182 663.000
31.90176 766.000
31.92171 877.000
31.94166 1014.000
31.96160 1137.000
31.98155 1181.000
32.00150 1283.000
32.02145 1203.000
32.04139 1103.000
32.06134 807.000
32.08129 666.000
32.10123 584.000
32.12118 451.000
32.14113 351.000
32.16107 249.000
32.18102 182.000
32.20097 168.000
32.22092 157.000
32.24086 153.000
32.26081 140.000
32.28076 130.000
32.30070 133.000
32.32065 122.000
32.34060 126.000
32.36054 135.000
32.38049 125.000
32.40044 126.000
32.42039 138.000
32.44033 130.000
32.46028 136.000
32.48023 126.000
32.50017 133.000
32.52012 120.000
32.54007 137.000
32.56001 124.000
32.57996 135.000
32.59991 123.000
32.61985 115.000
32.63980 110.000
32.65975 113.000
32.67970 125.000
32.69964 96.000
32.71959 126.000
32.73954 115.000
32.75948 125.000
32.77943 101.000
32.79938 126.000
32.81932 130.000
32.83927 122.000
32.85922 115.000
32.87917 119.000
32.89911 111.000
32.91906 115.000
32.93901 120.000
32.95895 109.000
32.97890 120.000
32.99885 128.000
33.01879 109.000
33.03874 122.000
33.05869 115.000
33.07863 144.000
33.09858 135.000
33.11853 137.000
33.13848 127.000
33.15842 127.000
33.17837 114.000
33.19832 120.000
33.21826 142.000
33.23821 107.000
33.25816 113.000
33.27810 125.000
33.29805 125.000
33.31800 118.000
33.33795 113.000
33.35789 107.000
33.37784 135.000
33.39779 96.000
33.41773 121.000
33.43768 123.000
33.45763 117.000
33.47757 119.000
33.49752 124.000
33.51747 104.000
33.53741 107.000
33.55736 125.000
33.57731 119.000
33.59726 105.000
33.61720 134.000
33.63715 122.000
33.65710 109.000
33.67704 126.000
33.69699 120.000
33.71694 128.000
33.73688 109.000
33.75683 110.000
33.77678 100.000
33.79673 108.000
33.81667 120.000
33.83662 112.000
33.85657 127.000
33.87651 119.000
33.89646 112.000
33.91641 110.000
33.93635 120.000
33.95630 127.000
33.97625 148.000
33.99620 113.000
34.01614 118.000
34.03609 118.000
34.05604 124.000
34.07598 131.000
34.09593 128.000
34.11588 132.000
34.13582 139.000
34.15577 130.000
34.17572 114.000
34.19566 130.000
34.21561 134.000
34.23556 129.000
34.25551 142.000
34.27545 147.000
34.29540 128.000
34.31535 128.000
34.33529 140.000
34.35524 130.000
34.37519 155.000
34.39513 135.000
34.41508 132.000
34.43503 147.000
34.45498 116.000
34.47492 138.000
34.49487 164.000
34.51482 137.000
34.53476 146.000
34.55471 119.000
34.57466 131.000
34.59460 140.000
34.61455 147.000
34.63450 117.000
34.65444 138.000
34.67439 123.000
34.69434 128.000
34.71429 125.000
34.73423 136.000
34.75418 136.000
34.77413 117.000
34.79407 147.000
34.81402 104.000
34.83397 161.000
34.85391 153.000
34.87386 134.000
34.89381 131.000
34.91376 147.000
34.93370 121.000
34.95365 152.000
34.97360 126.000
34.99354 134.000
35.01349 125.000
35.03344 136.000
35.05338 113.000
35.07333 123.000
35.09328 131.000
35.11322 135.000
35.13317 156.000
35.15312 130.000
35.17307 120.000
35.19301 129.000
35.21296 135.000
35.23291 124.000
35.25285 145.000
35.27280 108.000
35.29275 110.000
35.31269 142.000
35.33264 158.000
35.35259 151.000
35.37254 130.000
35.39248 151.000
35.41243 153.000
35.43238 160.000
35.45232 142.000
35.47227 159.000
35.49222 168.000
35.51216 200.000
35.53211 213.000
35.55206 195.000
35.57201 187.000
35.59195 198.000
35.61190 192.000
35.63185 197.000
35.65179 186.000
35.67174 187.000
35.69169 185.000
35.71163 192.000
35.73158 217.000
35.75153 240.000
35.77147 319.000
35.79142 415.000
35.81137 573.000
35.83132 604.000
35.85126 776.000
35.87121 871.000
35.89116 990.000
35.91110 1115.000
35.93105 1140.000
35.95100 1206.000
35.97094 1145.000
35.99089 1039.000
36.01084 903.000
36.03079 807.000
36.05073 708.000
36.07068 611.000
36.09063 469.000
36.11057 407.000
36.13052 333.000
36.15047 269.000
36.17041 205.000
36.19036 214.000
36.21031 170.000
36.23025 157.000
36.25020 158.000
36.27015 193.000
36.29010 153.000
36.31004 143.000
36.32999 120.000
36.34994 153.000
36.36988 152.000
36.38983 165.000
36.40978 166.000
36.42972 157.000
36.44967 139.000
36.46962 151.000
36.48957 137.000
36.50951 179.000
36.52946 160.000
36.54941 175.000
36.56935 145.000
36.58930 160.000
36.60925 139.000
36.62919 153.000
36.64914 155.000
36.66909 172.000
36.68903 132.000
36.70898 180.000
36.72893 163.000
36.74888 164.000
36.76882 192.000
36.78877 200.000
36.80872 222.000
36.82866 254.000
36.84861 211.000
36.86856 258.000
36.88850 233.000
36.90845 222.000
36.92840 204.000
36.94835 207.000
36.96829 182.000
36.98824 181.000
37.00819 189.000
37.02813 165.000
37.04808 179.000
37.06803 175.000
37.08797 138.000
37.10792 154.000
37.12787 165.000
37.14781 148.000
37.16776 167.000
37.18771 147.000
37.20766 165.000
37.22760 150.000
37.24755 150.000
37.26750 169.000
37.28744 141.000
37.30739 134.000
37.32734 137.000
37.34728 144.000
37.36723 134.000
37.38718 112.000
37.40713 114.000
37.42707 142.000
37.44702 138.000
37.46697 135.000
37.48691 115.000
37.50686 123.000
37.52681 147.000
37.54675 120.000
37.56670 147.000
37.58665 112.000
37.60660 134.000
37.62654 142.000
37.64649 125.000
37.66644 131.000
37.68638 125.000
37.70633 124.000
37.72628 121.000
37.74622 148.000
37.76617 123.000
37.78612 138.000
37.80606 123.000
37.82601 136.000
37.84596 142.000
37.86591 149.000
37.88585 129.000
37.90580 146.000
37.92575 168.000
37.94569 156.000
37.96564 139.000
37.98559 136.000
38.00553 163.000
38.02548 146.000
38.04543 110.000
38.06538 147.000
38.08532 149.000
38.10527 143.000
38.12522 141.000
38.14516 159.000
38.16511 110.000
38.18506 128.000
38.20500 130.000
38.22495 134.000
38.24490 118.000
38.26484 129.000
38.28479 142.000
38.30474 131.000
38.32469 119.000
38.34463 158.000
38.36458 151.000
38.38453 134.000
38.40447 139.000
38.42442 132.000
38.44437 145.000
38.46431 130.000
38.48426 127.000
38.50421 135.000
38.52416 125.000
38.54410 165.000
38.56405 145.000
38.58400 169.000
38.60394 141.000
38.62389 170.000
38.64384 189.000
38.66378 202.000
38.68373 209.000
38.70368 186.000
38.72362 200.000
38.74357 171.000
38.76352 183.000
38.78347 181.000
38.80341 143.000
38.82336 166.000
38.84331 156.000
38.86325 160.000
38.88320 124.000
38.90315 190.000
38.92309 181.000
38.94304 172.000
38.96299 185.000
38.98294 155.000
39.00288 169.000
39.02283 169.000
39.04278 183.000
39.06272 237.000
39.08267 203.000
39.10262 183.000
39.12256 212.000
39.14251 216.000
39.16246 246.000
39.18241 247.000
39.20235 250.000
39.22230 295.000
39.24225 335.000
39.26219 365.000
39.28214 397.000
39.30209 474.000
39.32203 540.000
39.34198 692.000
39.36193 849.000
39.38187 1087.000
39.40182 1385.000
39.42177 1630.000
39.44172 1864.000
39.46166 2127.000
39.48161 2261.000
39.50156 2208.000
39.52150 2131.000
39.54145 2013.000
39.56140 1898.000
39.58134 1603.000
39.60129 1357.000
39.62124 1194.000
39.64119 990.000
39.66113 752.000
39.68108 607.000
39.70103 547.000
39.72097 404.000
39.74092 371.000
39.76087 314.000
39.78081 289.000
39.80076 247.000
39.82071 226.000
39.84065 196.000
39.86060 222.000
39.88055 231.000
39.90050 209.000
39.92044 207.000
39.94039 200.000
39.96034 163.000
39.98028 139.000
40.00023 165.000
40.02018 179.000
40.04012 142.000
40.06007 169.000
40.08002 157.000
40.09997 179.000
40.11991 139.000
40.13986 147.000
40.15981 134.000
40.17975 134.000
40.19970 140.000
40.21965 137.000
40.23959 130.000
40.25954 130.000
40.27949 140.000
40.29943 136.000
40.31938 121.000
40.33933 120.000
40.35928 131.000
40.37922 118.000
40.39917 137.000
40.41912 119.000
40.43906 126.000
40.45901 155.000
40.47896 129.000
40.49890 124.000
40.51885 115.000
40.53880 117.000
40.55875 124.000
40.57869 143.000
40.59864 134.000
40.61859 127.000
40.63853 111.000
40.65848 120.000
40.67843 128.000
40.69837 121.000
40.71832 127.000
40.73827 115.000
40.75822 121.000
40.77816 136.000
40.79811 135.000
40.81806 118.000
40.83800 111.000
40.85795 116.000
40.87790 116.000
40.89784 134.000
40.91779 122.000
40.93774 123.000
40.95768 139.000
40.97763 111.000
40.99758 135.000
41.01753 121.000
41.03747 123.000
41.05742 115.000
41.07737 119.000
41.09731 139.000
41.11726 104.000
41.13721 136.000
41.15715 123.000
41.17710 119.000
41.19705 121.000
41.21700 135.000
41.23694 151.000
41.25689 119.000
41.27684 117.000
41.29678 121.000
41.31673 128.000
41.33668 119.000
41.35662 131.000
41.37657 126.000
41.39652 126.000
41.41646 117.000
41.43641 139.000
41.45636 119.000
41.47631 129.000
41.49625 104.000
41.51620 141.000
41.53615 142.000
41.55609 125.000
41.57604 154.000
41.59599 133.000
41.61593 99.000
41.63588 114.000
41.65583 133.000
41.67578 145.000
41.69572 113.000
41.71567 118.000
41.73562 115.000
41.75556 126.000
41.77551 131.000
41.79546 126.000
41.81540 130.000
41.83535 121.000
41.85530 123.000
41.87524 136.000
41.89519 124.000
41.91514 93.000
41.93509 137.000
41.95503 122.000
41.97498 105.000
41.99493 129.000
42.01487 124.000
42.03482 113.000
42.05477 123.000
42.07471 128.000
42.09466 120.000
42.11461 117.000
42.13456 124.000
42.15450 130.000
42.17445 110.000
42.19440 110.000
42.21434 130.000
42.23429 98.000
42.25424 133.000
42.27418 132.000
42.29413 134.000
42.31408 123.000
42.33403 133.000
42.35397 128.000
42.37392 96.000
42.39387 147.000
42.41381 146.000
42.43376 140.000
42.45371 137.000
42.47365 144.000
42.49360 134.000
42.51355 168.000
42.53349 134.000
42.55344 128.000
42.57339 150.000
42.59334 139.000
42.61328 137.000
42.63323 120.000
42.65318 128.000
42.67312 123.000
42.69307 136.000
42.71302 122.000
42.73296 128.000
42.75291 117.000
42.77286 122.000
42.79281 141.000
42.81275 123.000
42.83270 103.000
42.85265 136.000
42.87259 125.000
42.89254 135.000
42.91249 140.000
42.93243 126.000
42.95238 146.000
42.97233 129.000
42.99227 135.000
43.01222 136.000
43.03217 125.000
43.05212 128.000
43.07206 116.000
43.09201 144.000
43.11196 156.000
43.13190 145.000
43.15185 133.000
43.17180 173.000
43.19174 140.000
43.21169 186.000
43.23164 186.000
43.25159 147.000
43.27153 156.000
43.29148 184.000
43.31143 192.000
43.33137 177.000
43.35132 218.000
43.37127 245.000
43.39121 240.000
43.41116 246.000
43.43111 316.000
43.45105 331.000
43.47100 443.000
43.49095 506.000
43.51090 658.000
43.53084 723.000
43.55079 884.000
43.57074 900.000
43.59068 910.000
43.61063 876.000
43.63058 787.000
43.65052 824.000
43.67047 726.000
43.69042 665.000
43.71037 576.000
43.73031 488.000
43.75026 431.000
43.77021 358.000
43.79015 304.000
43.81010 256.000
43.83005 223.000
43.84999 202.000
43.86994 184.000
43.88989 170.000
43.90984 179.000
43.92978 162.000
43.94973 146.000
43.96968 144.000
43.98962 147.000
44.00957 134.000
44.02952 151.000
44.04946 164.000
44.06941 153.000
44.08936 147.000
44.10930 137.000
44.12925 124.000
44.14920 145.000
44.16915 112.000
44.18909 145.000
44.20904 130.000
44.22899 140.000
44.24893 127.000
44.26888 122.000
44.28883 133.000
44.30877 136.000
44.32872 108.000
44.34867 123.000
44.36862 100.000
44.38856 113.000
44.40851 137.000
44.42846 140.000
44.44840 108.000
44.46835 118.000
44.48830 130.000
44.50824 118.000
44.52819 121.000
44.54814 116.000
44.56808 131.000
44.58803 129.000
44.60798 121.000
44.62793 107.000
44.64787 123.000
44.66782 98.000
44.68777 111.000
44.70771 126.000
44.72766 128.000
44.74761 82.000
44.76755 115.000
44.78750 121.000
44.80745 120.000
44.82740 131.000
44.84734 137.000
44.86729 109.000
44.88724 117.000
44.90718 134.000
44.92713 114.000
44.94708 116.000
44.96702 113.000
44.98697 104.000
45.00692 119.000
45.02686 125.000
45.04681 105.000
45.06676 124.000
45.08671 118.000
45.10665 120.000
45.12660 107.000
45.14655 117.000
45.16649 101.000
45.18644 114.000
45.20639 123.000
45.22633 106.000
45.24628 111.000
45.26623 112.000
45.28618 124.000
45.30612 127.000
45.32607 131.000
45.34602 117.000
45.36596 127.000
45.38591 112.000
45.40586 122.000
45.42580 134.000
45.44575 112.000
45.46570 129.000
45.48565 113.000
45.50559 118.000
45.52554 120.000
45.54549 114.000
45.56543 114.000
45.58538 113.000
45.60533 122.000
45.62527 119.000
45.64522 120.000
45.66517 124.000
45.68511 129.000
45.70506 103.000
45.72501 120.000
45.74496 115.000
45.76490 89.000
45.78485 116.000
45.80480 124.000
45.82474 126.000
45.84469 120.000
45.86464 116.000
45.88458 119.000
45.90453 132.000
45.92448 110.000
45.94443 126.000
45.96437 113.000
45.98432 122.000
46.00427 96.000
46.02421 111.000
46.04416 125.000
46.06411 100.000
46.08405 96.000
46.10400 120.000
46.12395 100.000
46.14389 110.000
46.16384 126.000
46.18379 125.000
46.20374 110.000
46.22368 120.000
46.24363 120.000
46.26358 115.000
46.28352 113.000
46.30347 105.000
46.32342 116.000
46.34336 108.000
46.36331 108.000
46.38326 104.000
46.40321 120.000
46.42315 111.000
46.44310 110.000
46.46305 110.000
46.48299 121.000
46.50294 123.000
46.52289 106.000
46.54283 122.000
46.56278 116.000
46.58273 113.000
46.60267 139.000
46.62262 126.000
46.64257 117.000
46.66252 139.000
46.68246 106.000
46.70241 121.000
46.72236 108.000
46.74230 122.000
46.76225 133.000
46.78220 113.000
46.80214 121.000
46.82209 124.000
46.84204 123.000
46.86199 149.000
46.88193 93.000
46.90188 115.000
46.92183 114.000
46.94177 110.000
46.96172 122.000
46.98167 126.000
47.00161 129.000
47.02156 90.000
47.04151 125.000
47.06146 108.000
47.08140 124.000
47.10135 108.000
47.12130 114.000
47.14124 104.000
47.16119 112.000
47.18114 122.000
47.20108 117.000
47.22103 128.000
47.24098 119.000
47.26092 115.000
47.28087 104.000
47.30082 130.000
47.32077 118.000
47.34071 106.000
47.36066 127.000
47.38061 122.000
47.40055 126.000
47.42050 131.000
47.44045 138.000
47.46039 135.000
47.48034 125.000
47.50029 112.000
47.52024 100.000
47.54018 119.000
47.56013 112.000
47.58008 123.000
47.60002 112.000
47.61997 111.000
47.63992 116.000
47.65986 134.000
47.67981 124.000
47.69976 122.000
47.71970 136.000
47.73965 103.000
47.75960 118.000
47.77955 139.000
47.79949 131.000
47.81944 122.000
47.83939 136.000
47.85933 130.000
47.87928 143.000
47.89923 145.000
47.91917 124.000
47.93912 146.000
47.95907 157.000
47.97902 127.000
47.99896 162.000
48.01891 134.000
48.03886 147.000
48.05880 159.000
48.07875 133.000
48.09870 156.000
48.11864 188.000
48.13859 136.000
48.15854 148.000
48.17848 155.000
48.19843 173.000
48.21838 156.000
48.23833 173.000
48.25827 148.000
48.27822 162.000
48.29817 176.000
48.31811 186.000
48.33806 176.000
48.35801 171.000
48.37795 189.000
48.39790 201.000
48.41785 202.000
48.43780 225.000
48.45774 219.000
48.47769 226.000
48.49764 265.000
48.51758 256.000
48.53753 295.000
48.55748 276.000
48.57742 324.000
48.59737 333.000
48.61732 340.000
48.63726 449.000
48.65721 456.000
48.67716 474.000
48.69711 621.000
48.71705 700.000
48.73700 900.000
48.75695 1090.000
48.77689 1334.000
48.79684 1728.000
48.81679 1889.000
48.83673 2027.000
48.85668 2048.000
48.87663 1934.000
48.89658 1848.000
48.91652 1752.000
48.93647 1619.000
48.95642 1519.000
48.97636 1417.000
48.99631 1210.000
49.01626 1094.000
49.03620 890.000
49.05615 764.000
49.07610 628.000
49.09605 492.000
49.11599 466.000
49.13594 380.000
49.15589 328.000
49.17583 282.000
49.19578 235.000
49.21573 263.000
49.23567 225.000
49.25562 233.000
49.27557 214.000
49.29551 197.000
49.31546 212.000
49.33541 216.000
49.35536 178.000
49.37530 189.000
49.39525 173.000
49.41520 155.000
49.43514 168.000
49.45509 164.000
49.47504 140.000
49.49498 155.000
49.51493 180.000
49.53488 161.000
49.55483 163.000
49.57477 151.000
49.59472 150.000
49.61467 130.000
49.63461 151.000
49.65456 155.000
49.67451 154.000
49.69445 143.000
49.71440 131.000
49.73435 133.000
49.75429 133.000
49.77424 146.000
49.79419 118.000
49.81414 129.000
49.83408 122.000
49.85403 120.000
49.87398 147.000
49.89392 121.000
49.91387 133.000
49.93382 154.000
49.95376 135.000
49.97371 113.000
49.99366 118.000
50.01361 115.000
50.03355 110.000
50.05350 130.000
50.07345 116.000
50.09339 121.000
50.11334 130.000
50.13329 114.000
50.15323 127.000
50.17318 103.000
50.19313 105.000
50.21307 112.000
50.23302 136.000
50.25297 118.000
50.27292 141.000
50.29286 121.000
50.31281 126.000
50.33276 122.000
50.35270 122.000
50.37265 114.000
50.39260 115.000
50.41254 119.000
50.43249 137.000
50.45244 102.000
50.47239 127.000
50.49233 101.000
50.51228 87.000
50.53223 120.000
50.55217 120.000
50.57212 106.000
50.59207 107.000
50.61201 122.000
50.63196 109.000
50.65191 95.000
50.67186 107.000
50.69180 104.000
50.71175 121.000
50.73170 103.000
50.75164 99.000
50.77159 98.000
50.79154 110.000
50.81148 103.000
50.83143 116.000
50.85138 105.000
50.87132 100.000
50.89127 108.000
50.91122 101.000
50.93117 116.000
50.95111 115.000
50.97106 101.000
50.99101 100.000
51.01095 93.000
51.03090 103.000
51.05085 114.000
51.07079 117.000
51.09074 121.000
51.11069 116.000
51.13064 102.000
51.15058 108.000
51.17053 101.000
51.19048 111.000
51.21042 108.000
51.23037 104.000
51.25032 103.000
51.27026 112.000
51.29021 102.000
51.31016 108.000
51.33010 106.000
51.35005 112.000
51.37000 110.000
51.38995 90.000
51.40989 114.000
51.42984 126.000
51.44979 116.000
51.46973 111.000
51.48968 112.000
51.50963 106.000
51.52957 110.000
51.54952 104.000
51.56947 112.000
51.58942 105.000
51.60936 104.000
51.62931 110.000
51.64926 110.000
51.66920 126.000
51.68915 110.000
51.70910 97.000
51.72904 112.000
51.74899 116.000
51.76894 97.000
51.78888 102.000
51.80883 116.000
51.82878 120.000
51.84873 116.000
51.86867 112.000
51.88862 115.000
51.90857 117.000
51.92851 116.000
51.94846 122.000
51.96841 119.000
51.98835 122.000
52.00830 119.000
52.02825 134.000
52.04820 117.000
52.06814 115.000
52.08809 134.000
52.10804 131.000
52.12798 141.000
52.14793 108.000
52.16788 114.000
52.18782 121.000
52.20777 126.000
52.22772 116.000
52.24767 118.000
52.26761 128.000
52.28756 120.000
52.30751 116.000
52.32745 117.000
52.34740 97.000
52.36735 128.000
52.38729 111.000
52.40724 130.000
52.42719 119.000
52.44713 118.000
52.46708 117.000
52.48703 126.000
52.50698 101.000
52.52692 105.000
52.54687 109.000
52.56682 111.000
52.58676 92.000
52.60671 110.000
52.62666 111.000
52.64660 110.000
52.66655 127.000
52.68650 101.000
52.70645 124.000
52.72639 117.000
52.74634 103.000
52.76629 101.000
52.78623 109.000
52.80618 108.000
52.82613 109.000
52.84607 114.000
52.86602 96.000
52.88597 118.000
52.90591 98.000
52.92586 76.000
52.94581 113.000
52.96576 118.000
52.98570 102.000
53.00565 105.000
53.02560 88.000
53.04554 105.000
53.06549 93.000
53.08544 107.000
53.10538 93.000
53.12533 111.000
53.14528 107.000
53.16523 108.000
53.18517 108.000
53.20512 99.000
53.22507 101.000
53.24501 114.000
53.26496 121.000
53.28491 114.000
53.30485 100.000
53.32480 116.000
53.34475 117.000
53.36469 117.000
53.38464 99.000
53.40459 125.000
53.42454 103.000
53.44448 109.000
53.46443 108.000
53.48438 120.000
53.50432 105.000
53.52427 116.000
53.54422 124.000
53.56416 109.000
53.58411 99.000
53.60406 116.000
53.62401 122.000
53.64395 111.000
53.66390 113.000
53.68385 114.000
53.70379 117.000
53.72374 104.000
53.74369 112.000
53.76363 111.000
53.78358 128.000
53.80353 94.000
53.82348 106.000
53.84342 118.000
53.86337 98.000
53.88332 103.000
53.90326 94.000
53.92321 98.000
53.94316 102.000
53.96310 91.000
53.98305 112.000
54.00300 86.000
54.02294 129.000
54.04289 122.000
54.06284 102.000
54.08279 115.000
54.10273 96.000
54.12268 101.000
54.14263 114.000
54.16257 96.000
54.18252 109.000
54.20247 110.000
54.22241 96.000
54.24236 102.000
54.26231 105.000
54.28226 106.000
54.30220 108.000
54.32215 115.000
54.34210 102.000
54.36204 82.000
54.38199 99.000
54.40194 106.000
54.42188 106.000
54.44183 117.000
54.46178 107.000
54.48172 96.000
54.50167 99.000
54.52162 89.000
54.54157 102.000
54.56151 114.000
54.58146 96.000
54.60141 91.000
54.62135 93.000
54.64130 106.000
54.66125 94.000
54.68119 99.000
54.70114 114.000
54.72109 99.000
54.74104 111.000
54.76098 92.000
54.78093 120.000
54.80088 109.000
54.82082 93.000
54.84077 105.000
54.86072 101.000
54.88066 105.000
54.90061 106.000
54.92056 103.000
54.94050 116.000
54.96045 111.000
54.98040 116.000
55.00035 96.000
55.02029 108.000
55.04024 96.000
55.06019 90.000
55.08013 108.000
55.10008 95.000
55.12003 109.000
55.13997 98.000
55.15992 115.000
55.17987 101.000
55.19982 115.000
55.21976 122.000
55.23971 113.000
55.25966 105.000
55.27960 111.000
55.29955 118.000
55.31950 125.000
55.33944 95.000
55.35939 116.000
55.37934 111.000
55.39929 97.000
55.41923 99.000
55.43918 124.000
55.45913 101.000
55.47907 125.000
55.49902 112.000
55.51897 96.000
55.53891 95.000
55.55886 106.000
55.57881 120.000
55.59875 90.000
55.61870 110.000
55.63865 103.000
55.65860 114.000
55.67854 114.000
55.69849 121.000
55.71844 109.000
55.73838 113.000
55.75833 105.000
55.77828 95.000
55.79822 109.000
55.81817 102.000
55.83812 101.000
55.85807 107.000
55.87801 96.000
55.89796 114.000
55.91791 97.000
55.93785 111.000
55.95780 102.000
55.97775 109.000
55.99769 95.000
56.01764 109.000
56.03759 104.000
56.05753 102.000
56.07748 115.000
56.09743 116.000
56.11738 84.000
56.13732 106.000
56.15727 101.000
56.17722 95.000
56.19716 108.000
56.21711 106.000
56.23706 109.000
56.25700 110.000
56.27695 98.000
56.29690 99.000
56.31685 111.000
56.33679 98.000
56.35674 100.000
56.37669 110.000
56.39663 122.000
56.41658 105.000
56.43653 107.000
56.45647 105.000
56.47642 94.000
56.49637 119.000
56.51631 88.000
56.53626 108.000
56.55621 106.000
56.57616 108.000
56.59610 96.000
56.61605 109.000
56.63600 101.000
56.65594 119.000
56.67589 102.000
56.69584 105.000
56.71578 95.000
56.73573 119.000
56.75568 116.000
56.77563 99.000
56.79557 116.000
56.81552 111.000
56.83547 133.000
56.85541 111.000
56.87536 125.000
56.89531 102.000
56.91525 97.000
56.93520 126.000
56.95515 110.000
56.97510 107.000
56.99504 89.000
57.01499 102.000
57.03494 96.000
57.05488 105.000
57.07483 107.000
57.09478 108.000
57.11472 115.000
57.13467 109.000
57.15462 97.000
57.17456 102.000
57.19451 93.000
57.21446 106.000
57.23441 126.000
57.25435 113.000
57.27430 101.000
57.29425 131.000
57.31419 117.000
57.33414 97.000
57.35409 105.000
57.37403 88.000
57.39398 114.000
57.41393 93.000
57.43388 98.000
57.45382 121.000
57.47377 106.000
57.49372 95.000
57.51366 99.000
57.53361 128.000
57.55356 93.000
57.57350 99.000
57.59345 103.000
57.61340 122.000
57.63334 108.000
57.65329 90.000
57.67324 111.000
57.69319 119.000
57.71313 100.000
57.73308 97.000
57.75303 106.000
57.77297 93.000
57.79292 100.000
57.81287 97.000
57.83281 108.000
57.85276 112.000
57.87271 119.000
57.89266 99.000
57.91260 99.000
57.93255 89.000
57.95250 124.000
57.97244 106.000
57.99239 99.000
58.01234 106.000
58.03228 103.000
58.05223 106.000
58.07218 125.000
58.09212 122.000
58.11207 118.000
58.13202 103.000
58.15197 109.000
58.17191 105.000
58.19186 106.000
58.21181 115.000
58.23175 116.000
58.25170 121.000
58.27165 118.000
58.29159 106.000
58.31154 128.000
58.33149 128.000
58.35144 118.000
58.37138 117.000
58.39133 150.000
58.41128 125.000
58.43122 123.000
58.45117 110.000
58.47112 118.000
58.49106 115.000
58.51101 109.000
58.53096 119.000
58.55090 111.000
58.57085 125.000
58.59080 102.000
58.61075 130.000
58.63069 122.000
58.65064 114.000
58.67059 106.000
58.69053 116.000
58.71048 124.000
58.73043 114.000
58.75037 121.000
58.77032 124.000
58.79027 129.000
58.81022 117.000
58.83016 114.000
58.85011 120.000
58.87006 123.000
58.89000 114.000
58.90995 108.000
58.92990 123.000
58.94984 108.000
58.96979 103.000
58.98974 123.000
59.00969 128.000
59.02963 100.000
59.04958 140.000
59.06953 97.000
59.08947 115.000
59.10942 115.000
59.12937 123.000
59.14931 105.000
59.16926 107.000
59.18921 118.000
59.20915 113.000
59.22910 131.000
59.24905 125.000
59.26900 118.000
59.28894 121.000
59.30889 128.000
59.32884 103.000
59.34878 105.000
59.36873 110.000
59.38868 100.000
59.40862 110.000
59.42857 101.000
59.44852 123.000
59.46847 99.000
59.48841 97.000
59.50836 109.000
59.52831 126.000
59.54825 97.000
59.56820 114.000
59.58815 115.000
59.60809 113.000
59.62804 96.000
59.64799 102.000
59.66793 104.000
59.68788 120.000
59.70783 114.000
59.72778 103.000
59.74772 120.000
59.76767 110.000
59.78762 88.000
59.80756 103.000
59.82751 122.000
59.84746 112.000
59.86740 106.000
59.88735 107.000
59.90730 111.000
59.92725 116.000
59.94719 115.000
59.96714 120.000
59.98709 108.000
60.00703 127.000
60.02698 86.000
60.04693 109.000
60.06687 114.000
60.08682 105.000
60.10677 108.000
60.12671 116.000
60.14666 131.000
60.16661 91.000
60.18656 123.000
60.20650 116.000
60.22645 122.000
60.24640 125.000
60.26634 100.000
60.28629 115.000
60.30624 114.000
60.32618 106.000
60.34613 110.000
60.36608 115.000
60.38603 118.000
60.40597 124.000
60.42592 109.000
60.44587 124.000
60.46581 112.000
60.48576 114.000
60.50571 118.000
60.52565 133.000
60.54560 119.000
60.56555 119.000
60.58550 120.000
60.60544 118.000
60.62539 87.000
60.64534 116.000
60.66528 98.000
60.68523 99.000
60.70518 114.000
60.72512 116.000
60.74507 114.000
60.76502 110.000
60.78496 128.000
60.80491 119.000
60.82486 128.000
60.84481 112.000
60.86475 109.000
60.88470 137.000
60.90465 137.000
60.92459 121.000
60.94454 101.000
60.96449 106.000
60.98443 151.000
61.00438 121.000
61.02433 114.000
61.04428 113.000
61.06422 134.000
61.08417 154.000
61.10412 108.000
61.12406 148.000
61.14401 123.000
61.16396 124.000
61.18390 110.000
61.20385 138.000
61.22380 119.000
61.24374 131.000
61.26369 140.000
61.28364 126.000
61.30359 115.000
61.32353 132.000
61.34348 132.000
61.36343 137.000
61.38337 108.000
61.40332 127.000
61.42327 134.000
61.44321 134.000
61.46316 136.000
61.48311 160.000
61.50306 159.000
61.52300 157.000
61.54295 176.000
61.56290 162.000
61.58284 171.000
61.60279 151.000
61.62274 158.000
61.64268 159.000
61.66263 158.000
61.68258 204.000
61.70252 187.000
61.72247 192.000
61.74242 177.000
61.76237 224.000
61.78231 223.000
61.80226 229.000
61.82221 278.000
61.84215 244.000
61.86210 279.000
61.88205 326.000
61.90199 391.000
61.92194 427.000
61.94189 430.000
61.96184 502.000
61.98178 580.000
62.00173 628.000
62.02168 710.000
62.04162 760.000
62.06157 779.000
62.08152 817.000
62.10146 814.000
62.12141 773.000
62.14136 720.000
62.16131 696.000
62.18125 649.000
62.20120 607.000
62.22115 561.000
62.24109 544.000
62.26104 505.000
62.28099 473.000
62.30093 438.000
62.32088 368.000
62.34083 357.000
62.36077 334.000
62.38072 282.000
62.40067 253.000
62.42062 233.000
62.44056 203.000
62.46051 194.000
62.48046 191.000
62.50040 163.000
62.52035 169.000
62.54030 158.000
62.56024 156.000
62.58019 161.000
62.60014 162.000
62.62009 169.000
62.64003 136.000
62.65998 169.000
62.67993 135.000
62.69987 166.000
62.71982 153.000
62.73977 134.000
62.75971 127.000
62.77966 143.000
62.79961 139.000
62.81955 141.000
62.83950 116.000
62.85945 149.000
62.87940 134.000
62.89934 142.000
62.91929 128.000
62.93924 120.000
62.95918 129.000
62.97913 142.000
62.99908 126.000
63.01902 140.000
63.03897 131.000
63.05892 139.000
63.07887 136.000
63.09881 134.000
63.11876 139.000
63.13871 102.000
63.15865 132.000
63.17860 101.000
63.19855 118.000
63.21849 116.000
63.23844 123.000
63.25839 120.000
63.27833 126.000
63.29828 110.000
63.31823 122.000
63.33818 131.000
63.35812 100.000
63.37807 130.000
63.39802 124.000
63.41796 97.000
63.43791 104.000
63.45786 116.000
63.47780 115.000
63.49775 118.000
63.51770 110.000
63.53765 128.000
63.55759 136.000
63.57754 114.000
63.59749 115.000
63.61743 135.000
63.63738 131.000
63.65733 108.000
63.67727 114.000
63.69722 138.000
63.71717 112.000
63.73712 129.000
63.75706 118.000
63.77701 128.000
63.79696 108.000
63.81690 115.000
63.83685 108.000
63.85680 109.000
63.87674 102.000
63.89669 123.000
63.91664 111.000
63.93658 117.000
63.95653 128.000
63.97648 117.000
63.99643 128.000
64.01637 129.000
64.03632 110.000
64.05627 115.000
64.07621 131.000
64.09616 141.000
64.11611 133.000
64.13605 143.000
64.15600 149.000
64.17595 143.000
64.19590 143.000
64.21584 147.000
64.23579 158.000
64.25574 148.000
64.27568 183.000
64.29563 207.000
64.31558 207.000
64.33552 260.000
64.35547 279.000
64.37542 270.000
64.39536 347.000
64.41531 321.000
64.43526 363.000
64.45521 353.000
64.47515 389.000
64.49510 462.000
64.51505 439.000
64.53499 491.000
64.55494 531.000
64.57489 507.000
64.59483 567.000
64.61478 481.000
64.63473 595.000
64.65468 529.000
64.67462 542.000
64.69457 494.000
64.71452 481.000
64.73446 434.000
64.75441 437.000
64.77436 452.000
64.79430 398.000
64.81425 396.000
64.83420 345.000
64.85414 334.000
64.87409 285.000
64.89404 275.000
64.91399 262.000
64.93393 238.000
64.95388 206.000
64.97383 189.000
64.99377 202.000
65.01372 178.000
65.03367 185.000
65.05361 169.000
65.07356 148.000
65.09351 127.000
65.11346 147.000
65.13340 154.000
65.15335 130.000
65.17330 147.000
65.19324 143.000
65.21319 149.000
65.23314 113.000
65.25308 144.000
65.27303 136.000
65.29298 137.000
65.31293 117.000
65.33287 117.000
65.35282 129.000
65.37277 127.000
65.39271 154.000
65.41266 129.000
65.43261 140.000
65.45255 130.000
65.47250 121.000
65.49245 118.000
65.51239 144.000
65.53234 137.000
65.55229 137.000
65.57224 127.000
65.59218 114.000
65.61213 132.000
65.63208 148.000
65.65202 122.000
65.67197 133.000
65.69192 149.000
65.71186 121.000
65.73181 122.000
65.75176 133.000
65.77171 124.000
65.79165 121.000
65.81160 127.000
65.83155 115.000
65.85149 128.000
65.87144 123.000
65.89139 115.000
65.91133 107.000
65.93128 115.000
65.95123 128.000
65.97117 120.000
65.99112 111.000
66.01107 129.000
66.03102 140.000
66.05096 117.000
66.07091 142.000
66.09086 131.000
66.11080 133.000
66.13075 136.000
66.15070 128.000
66.17064 123.000
66.19059 133.000
66.21054 122.000
66.23049 125.000
66.25043 119.000
66.27038 135.000
66.29033 156.000
66.31027 140.000
66.33022 136.000
66.35017 114.000
66.37011 129.000
66.39006 155.000
66.41001 134.000
66.42995 161.000
66.44990 146.000
66.46985 156.000
66.48980 151.000
66.50974 153.000
66.52969 148.000
66.54964 163.000
66.56958 163.000
66.58953 169.000
66.60948 188.000
66.62942 171.000
66.64937 181.000
66.66932 192.000
66.68927 214.000
66.70921 220.000
66.72916 280.000
66.74911 288.000
66.76905 272.000
66.78900 336.000
66.80895 333.000
66.82889 368.000
66.84884 412.000
66.86879 412.000
66.88874 414.000
66.90868 433.000
66.92863 449.000
66.94858 451.000
66.96852 522.000
66.98847 511.000
67.00842 509.000
67.02836 458.000
67.04831 476.000
67.06826 473.000
67.08820 412.000
67.10815 424.000
67.12810 394.000
67.14805 373.000
67.16799 343.000
67.18794 356.000
67.20789 308.000
67.22783 272.000
67.24778 253.000
67.26773 196.000
67.28767 244.000
67.30762 199.000
67.32757 168.000
67.34752 163.000
67.36746 177.000
67.38741 163.000
67.40736 144.000
67.42730 165.000
67.44725 137.000
67.46720 123.000
67.48714 142.000
67.50709 137.000
67.52704 133.000
67.54698 121.000
67.56693 141.000
67.58688 127.000
67.60683 140.000
67.62677 102.000
67.64672 116.000
67.66667 126.000
67.68661 112.000
67.70656 98.000
67.72651 110.000
67.74645 114.000
67.76640 119.000
67.78635 118.000
67.80630 123.000
67.82624 122.000
67.84619 144.000
67.86614 105.000
67.88608 130.000
67.90603 114.000
67.92598 108.000
67.94592 115.000
67.96587 133.000
67.98582 141.000
68.00576 144.000
68.02571 108.000
68.04566 103.000
68.06561 112.000
68.08555 103.000
68.10550 120.000
68.12545 105.000
68.14539 101.000
68.16534 93.000
68.18529 102.000
68.20523 108.000
68.22518 117.000
68.24513 108.000
68.26508 98.000
68.28502 123.000
68.30497 130.000
68.32492 118.000
68.34486 91.000
68.36481 102.000
68.38476 118.000
68.40470 101.000
68.42465 108.000
68.44460 119.000
68.46455 101.000
68.48449 120.000
68.50444 113.000
68.52439 113.000
68.54433 116.000
68.56428 118.000
68.58423 101.000
68.60417 116.000
68.62412 109.000
68.64407 115.000
68.66401 112.000
68.68396 96.000
68.70391 107.000
68.72386 130.000
68.74380 90.000
68.76375 99.000
68.78370 111.000
68.80364 102.000
68.82359 121.000
68.84354 104.000
68.86348 93.000
68.88343 100.000
68.90338 111.000
68.92333 95.000
68.94327 115.000
68.96322 123.000
68.98317 121.000
69.00311 120.000
69.02306 126.000
69.04301 113.000
69.06295 106.000
69.08290 106.000
69.10285 109.000
69.12279 103.000
69.14274 96.000
69.16269 124.000
69.18264 96.000
69.20258 125.000
69.22253 88.000
69.24248 129.000
69.26242 106.000
69.28237 126.000
69.30232 95.000
69.32226 117.000
69.34221 122.000
69.36216 109.000
69.38211 114.000
69.40205 117.000
69.42200 120.000
69.44195 99.000
69.46189 100.000
69.48184 123.000
69.50179 107.000
69.52173 119.000
69.54168 113.000
69.56163 95.000
69.58157 122.000
69.60152 113.000
69.62147 121.000
69.64142 115.000
69.66136 101.000
69.68131 116.000
69.70126 102.000
69.72120 105.000
69.74115 121.000
69.76110 120.000
69.78104 118.000
69.80099 115.000
69.82094 142.000
69.84089 137.000
69.86083 105.000
69.88078 112.000
69.90073 108.000
69.92067 117.000
69.94062 105.000
69.96057 118.000
69.98051 110.000
70.00046 123.000
70.02041 108.000
70.04035 114.000
70.06030 106.000
70.08025 127.000
70.10020 106.000
70.12014 116.000
70.14009 101.000
70.16004 106.000
70.17998 89.000
70.19993 94.000
70.21988 114.000
70.23982 138.000
70.25977 116.000
70.27972 105.000
70.29967 112.000
70.31961 106.000
70.33956 115.000
70.35951 103.000
70.37945 110.000
70.39940 99.000
70.41935 111.000
70.43929 98.000
70.45924 101.000
70.47919 111.000
70.49914 99.000
70.51908 117.000
70.53903 91.000
70.55898 101.000
70.57892 100.000
70.59887 102.000
70.61882 87.000
70.63876 117.000
70.65871 108.000
70.67866 123.000
70.69860 111.000
70.71855 106.000
70.73850 101.000
70.75845 100.000
70.77839 105.000
70.79834 113.000
70.81829 104.000
70.83823 95.000
70.85818 106.000
70.87813 111.000
70.89807 126.000
70.91802 100.000
70.93797 111.000
70.95792 98.000
70.97786 103.000
70.99781 95.000
71.01776 90.000
71.03770 112.000
71.05765 114.000
71.07760 109.000
71.09754 101.000
71.11749 100.000
71.13744 84.000
71.15738 82.000
71.17733 90.000
71.19728 113.000
71.21723 105.000
71.23717 130.000
71.25712 129.000
71.27707 108.000
71.29701 102.000
71.31696 107.000
71.33691 93.000
71.35685 103.000
71.37680 102.000
71.39675 98.000
71.41670 110.000
71.43664 97.000
71.45659 97.000
71.47654 109.000
71.49648 119.000
71.51643 115.000
71.53638 124.000
71.55632 102.000
71.57627 91.000
71.59622 105.000
71.61616 103.000
71.63611 108.000
71.65606 106.000
71.67601 98.000
71.69595 98.000
71.71590 82.000
71.73585 94.000
71.75579 104.000
71.77574 110.000
71.79569 94.000
71.81563 110.000
71.83558 111.000
71.85553 87.000
71.87548 127.000
71.89542 89.000
71.91537 106.000
71.93532 110.000
71.95526 123.000
71.97521 107.000
71.99516 99.000
72.01510 96.000
72.03505 118.000
72.05500 97.000
72.07495 115.000
72.09489 104.000
72.11484 119.000
72.13479 81.000
72.15473 110.000
72.17468 109.000
72.19463 98.000
72.21457 107.000
72.23452 92.000
72.25447 116.000
72.27441 103.000
72.29436 107.000
72.31431 113.000
72.33426 118.000
72.35420 117.000
72.37415 118.000
72.39410 125.000
72.41404 115.000
72.43399 106.000
72.45394 125.000
72.47388 109.000
72.49383 90.000
72.51378 103.000
72.53373 105.000
72.55367 107.000
72.57362 104.000
72.59357 121.000
72.61351 87.000
72.63346 99.000
72.65341 84.000
72.67335 112.000
72.69330 103.000
72.71325 107.000
72.73319 89.000
72.75314 113.000
72.77309 127.000
72.79304 133.000
72.81298 102.000
72.83293 99.000
72.85288 113.000
72.87282 112.000
72.89277 110.000
72.91272 105.000
72.93266 104.000
72.95261 98.000
72.97256 111.000
72.99251 73.000
73.01245 111.000
73.03240 97.000
73.05235 88.000
73.07229 118.000
73.09224 122.000
73.11219 115.000
73.13213 116.000
73.15208 115.000
73.17203 98.000
73.19197 112.000
73.21192 91.000
73.23187 113.000
73.25182 109.000
73.27176 102.000
73.29171 98.000
73.31166 102.000
73.33160 109.000
73.35155 120.000
73.37150 102.000
73.39144 101.000
73.41139 110.000
73.43134 128.000
73.45129 108.000
73.47123 124.000
73.49118 120.000
73.51113 116.000
73.53107 122.000
73.55102 124.000
73.57097 127.000
73.59091 130.000
73.61086 133.000
73.63081 139.000
73.65076 161.000
73.67070 146.000
73.69065 165.000
73.71060 165.000
73.73054 175.000
73.75049 201.000
73.77044 187.000
73.79038 199.000
73.81033 210.000
73.83028 205.000
73.85022 231.000
73.87017 210.000
73.89012 254.000
73.91007 233.000
73.93001 228.000
73.94996 254.000
73.96991 203.000
73.98985 235.000
74.00980 225.000
74.02975 208.000
74.04969 196.000
74.06964 207.000
74.08959 201.000
74.10954 205.000
74.12948 185.000
74.14943 172.000
74.16938 176.000
74.18932 171.000
74.20927 149.000
74.22922 158.000
74.24916 148.000
74.26911 138.000
74.28906 163.000
74.30900 155.000
74.32895 115.000
74.34890 112.000
74.36885 135.000
74.38879 126.000
74.40874 124.000
74.42869 125.000
74.44863 125.000
74.46858 129.000
74.48853 108.000
74.50847 95.000
74.52842 115.000
74.54837 134.000
74.56832 95.000
74.58826 111.000
74.60821 108.000
74.62816 120.000
74.64810 107.000
74.66805 122.000
74.68800 102.000
74.70794 91.000
74.72789 101.000
74.74784 92.000
74.76778 97.000
74.78773 99.000
74.80768 99.000
74.82763 117.000
74.84757 95.000
74.86752 102.000
74.88747 100.000
74.90741 105.000
74.92736 103.000
74.94731 106.000
74.96725 108.000
74.98720 126.000
75.00715 97.000
75.02710 117.000
75.04704 104.000
75.06699 96.000
75.08694 100.000
75.10688 118.000
75.12683 109.000
75.14678 100.000
75.16672 106.000
75.18667 111.000
75.20662 114.000
75.22657 103.000
75.24651 117.000
75.26646 109.000
75.28641 103.000
75.30635 111.000
75.32630 100.000
75.34625 122.000
75.36619 107.000
75.38614 110.000
75.40609 119.000
75.42603 117.000
75.44598 117.000
75.46593 107.000
75.48588 113.000
75.50582 101.000
75.52577 113.000
75.54572 111.000
75.56566 110.000
75.58561 119.000
75.60556 93.000
75.62550 86.000
75.64545 104.000
75.66540 124.000
75.68535 122.000
75.70529 110.000
75.72524 126.000
75.74519 108.000
75.76513 110.000
75.78508 119.000
75.80503 92.000
75.82497 98.000
75.84492 110.000
75.86487 95.000
75.88481 129.000
75.90476 129.000
75.92471 108.000
75.94466 121.000
75.96460 125.000
75.98455 121.000
76.00450 141.000
76.02444 137.000
76.04439 149.000
76.06434 117.000
76.08428 131.000
76.10423 124.000
76.12418 148.000
76.14413 152.000
76.16407 150.000
76.18402 157.000
76.20397 169.000
76.22391 144.000
76.24386 154.000
76.26381 145.000
76.28375 139.000
76.30370 142.000
76.32365 147.000
76.34359 129.000
76.36354 160.000
76.38349 152.000
76.40344 155.000
76.42338 156.000
76.44333 157.000
76.46328 165.000
76.48322 129.000
76.50317 115.000
76.52312 146.000
76.54306 120.000
76.56301 127.000
76.58296 136.000
76.60291 141.000
76.62285 123.000
76.64280 122.000
76.66275 129.000
76.68269 122.000
76.70264 149.000
76.72259 118.000
76.74253 112.000
76.76248 111.000
76.78243 119.000
76.80238 107.000
76.82232 118.000
76.84227 118.000
76.86222 122.000
76.88216 97.000
76.90211 109.000
76.92206 125.000
76.94200 114.000
76.96195 101.000
76.98190 94.000
77.00184 108.000
77.02179 91.000
77.04174 114.000
77.06169 106.000
77.08163 124.000
77.10158 110.000
77.12153 108.000
77.14147 86.000
77.16142 117.000
77.18137 102.000
77.20131 112.000
77.22126 106.000
77.24121 92.000
77.26116 117.000
77.28110 95.000
77.30105 125.000
77.32100 111.000
77.34094 101.000
77.36089 98.000
77.38084 102.000
77.40078 114.000
77.42073 114.000
77.44068 89.000
77.46062 111.000
77.48057 95.000
77.50052 113.000
77.52047 121.000
77.54041 118.000
77.56036 115.000
77.58031 109.000
77.60025 100.000
77.62020 124.000
77.64015 134.000
77.66009 97.000
77.68004 125.000
77.69999 111.000
77.71994 124.000
77.73988 126.000
77.75983 114.000
77.77978 137.000
77.79972 130.000
77.81967 135.000
77.83962 135.000
77.85956 141.000
77.87951 118.000
77.89946 124.000
77.91940 144.000
77.93935 174.000
77.95930 143.000
77.97925 158.000
77.99919 160.000
78.01914 162.000
78.03909 153.000
78.05903 197.000
78.07898 172.000
78.09893 219.000
78.11887 224.000
78.13882 208.000
78.15877 262.000
78.17872 283.000
78.19866 293.000
78.21861 275.000
78.23856 317.000
78.25850 318.000
78.27845 321.000
78.29840 338.000
78.31834 360.000
78.33829 341.000
78.35824 367.000
78.37819 353.000
78.39813 370.000
78.41808 355.000
78.43803 355.000
78.45797 316.000
78.47792 317.000
78.49787 351.000
78.51781 358.000
78.53776 315.000
78.55771 325.000
78.57765 291.000
78.59760 267.000
78.61755 279.000
78.63750 208.000
78.65744 238.000
78.67739 222.000
78.69734 216.000
78.71728 200.000
78.73723 198.000
78.75718 168.000
78.77712 185.000
78.79707 170.000
78.81702 187.000
78.83697 151.000
78.85691 156.000
78.87686 130.000
78.89681 144.000
78.91675 136.000
78.93670 148.000
78.95665 147.000
78.97659 132.000
78.99654 130.000
79.01649 128.000
79.03643 115.000
79.05638 124.000
79.07633 133.000
79.09628 113.000
79.11622 117.000
79.13617 107.000
79.15612 99.000
79.17606 105.000
79.19601 129.000
79.21596 119.000
79.23590 95.000
79.25585 110.000
79.27580 121.000
79.29575 125.000
79.31569 136.000
79.33564 121.000
79.35559 111.000
79.37553 108.000
79.39548 98.000
79.41543 106.000
79.43537 101.000
79.45532 93.000
79.47527 123.000
79.49521 109.000
79.51516 112.000
79.53511 115.000
79.55506 101.000
79.57500 103.000
79.59495 116.000
79.61490 101.000
79.63484 117.000
79.65479 126.000
79.67474 101.000
79.69468 87.000
79.71463 78.000
79.73458 118.000
79.75453 106.000
79.77447 104.000
79.79442 114.000
79.81437 88.000
79.83431 110.000
79.85426 102.000
79.87421 106.000
79.89415 107.000
79.91410 114.000
79.93405 104.000
79.95399 107.000
79.97394 110.000
79.99389 118.000
80.01384 105.000
80.03378 101.000
80.05373 104.000
80.07368 86.000
80.09362 111.000
80.11357 123.000
80.13352 114.000
80.15346 103.000
80.17341 98.000
80.19336 108.000
80.21331 113.000
80.23325 124.000
80.25320 94.000
80.27315 125.000
80.29309 101.000
80.31304 105.000
80.33299 115.000
80.35293 94.000
80.37288 102.000
80.39283 120.000
80.41278 113.000
80.43272 115.000
80.45267 107.000
80.47262 110.000
80.49256 104.000
80.51251 100.000
80.53246 115.000
80.55240 102.000
80.57235 86.000
80.59230 118.000
80.61224 118.000
80.63219 112.000
80.65214 104.000
80.67209 109.000
80.69203 87.000
80.71198 102.000
80.73193 99.000
80.75187 96.000
80.77182 109.000
80.79177 116.000
80.81171 103.000
80.83166 119.000
80.85161 127.000
80.87156 117.000
80.89150 113.000
80.91145 110.000
80.93140 120.000
80.95134 114.000
80.97129 106.000
80.99124 121.000
81.01118 115.000
81.03113 133.000
81.05108 117.000
81.07102 117.000
81.09097 107.000
81.11092 130.000
81.13087 131.000
81.15081 122.000
81.17076 119.000
81.19071 129.000
81.21065 139.000
81.23060 146.000
81.25055 137.000
81.27049 144.000
81.29044 141.000
81.31039 112.000
81.33034 110.000
81.35028 121.000
81.37023 113.000
81.39018 127.000
81.41012 111.000
81.43007 100.000
81.45002 110.000
81.46996 118.000
81.48991 118.000
81.50986 110.000
81.52980 102.000
81.54975 131.000
81.56970 121.000
81.58965 127.000
81.60959 110.000
81.62954 105.000
81.64949 95.000
81.66943 123.000
81.68938 101.000
81.70933 94.000
81.72927 116.000
81.74922 109.000
81.76917 98.000
81.78912 104.000
81.80906 105.000
81.82901 88.000
81.84896 93.000
81.86890 104.000
81.88885 101.000
81.90880 124.000
81.92874 114.000
81.94869 95.000
81.96864 119.000
81.98859 96.000
82.00853 100.000
82.02848 82.000
82.04843 97.000
82.06837 113.000
82.08832 99.000
82.10827 94.000
82.12821 100.000
82.14816 87.000
82.16811 112.000
82.18805 85.000
82.20800 109.000
82.22795 93.000
82.24790 91.000
82.26784 110.000
82.28779 98.000
82.30774 113.000
82.32768 105.000
82.34763 89.000
82.36758 114.000
82.38752 111.000
82.40747 100.000
82.42742 108.000
82.44737 100.000
82.46731 118.000
82.48726 131.000
82.50721 107.000
82.52715 115.000
82.54710 106.000
82.56705 86.000
82.58699 92.000
82.60694 87.000
82.62689 106.000
82.64683 96.000
82.66678 104.000
82.68673 113.000
82.70668 92.000
82.72662 101.000
82.74657 109.000
82.76652 75.000
82.78646 117.000
82.80641 114.000
82.82636 106.000
82.84630 84.000
82.86625 107.000
82.88620 110.000
82.90615 113.000
82.92609 118.000
82.94604 101.000
82.96599 115.000
82.98593 110.000
83.00588 95.000
83.02583 106.000
83.04577 118.000
83.06572 102.000
83.08567 103.000
83.10561 102.000
83.12556 134.000
83.14551 100.000
83.16546 103.000
83.18540 97.000
83.20535 116.000
83.22530 87.000
83.24524 107.000
83.26519 122.000
83.28514 93.000
83.30508 95.000
83.32503 99.000
83.34498 114.000
83.36493 110.000
83.38487 93.000
83.40482 88.000
83.42477 115.000
83.44471 88.000
83.46466 111.000
83.48461 112.000
83.50455 93.000
83.52450 107.000
83.54445 105.000
83.56440 95.000
83.58434 92.000
83.60429 129.000
83.62424 114.000
83.64418 87.000
83.66413 102.000
83.68408 122.000
83.70402 114.000
83.72397 119.000
83.74392 115.000
83.76386 113.000
83.78381 96.000
83.80376 112.000
83.82371 111.000
83.84365 105.000
83.86360 107.000
83.88355 97.000
83.90349 101.000
83.92344 93.000
83.94339 118.000
83.96333 108.000
83.98328 102.000
84.00323 109.000
84.02318 108.000
84.04312 112.000
84.06307 109.000
84.08302 110.000
84.10296 113.000
84.12291 104.000
84.14286 111.000
84.16280 120.000
84.18275 114.000
84.20270 103.000
84.22264 117.000
84.24259 111.000
84.26254 119.000
84.28249 93.000
84.30243 128.000
84.32238 100.000
84.34233 100.000
84.36227 99.000
84.38222 94.000
84.40217 120.000
84.42211 111.000
84.44206 98.000
84.46201 122.000
84.48196 108.000
84.50190 124.000
84.52185 131.000
84.54180 125.000
84.56174 120.000
84.58169 106.000
84.60164 132.000
84.62158 129.000
84.64153 139.000
84.66148 136.000
84.68142 142.000
84.70137 132.000
84.72132 159.000
84.74127 156.000
84.76121 156.000
84.78116 187.000
84.80111 151.000
84.82105 181.000
84.84100 227.000
84.86095 201.000
84.88089 220.000
84.90084 227.000
84.92079 244.000
84.94074 250.000
84.96068 229.000
84.98063 246.000
85.00058 252.000
85.02052 236.000
85.04047 233.000
85.06042 243.000
85.08036 260.000
85.10031 230.000
85.12026 236.000
85.14021 209.000
85.16015 214.000
85.18010 189.000
85.20005 210.000
85.21999 212.000
85.23994 199.000
85.25989 203.000
85.27983 191.000
85.29978 183.000
85.31973 200.000
85.33967 164.000
85.35962 152.000
85.37957 140.000
85.39952 165.000
85.41946 137.000
85.43941 133.000
85.45936 156.000
85.47930 140.000
85.49925 140.000
85.51920 119.000
85.53914 138.000
85.55909 115.000
85.57904 128.000
85.59899 116.000
85.61893 118.000
85.63888 124.000
85.65883 106.000
85.67877 110.000
85.69872 105.000
85.71867 115.000
85.73861 125.000
85.75856 119.000
85.77851 100.000
85.79845 98.000
85.81840 135.000
85.83835 107.000
85.85830 111.000
85.87824 102.000
85.89819 114.000
85.91814 109.000
85.93808 117.000
85.95803 109.000
85.97798 123.000
85.99792 135.000
86.01787 100.000
86.03782 105.000
86.05777 82.000
86.07771 111.000
86.09766 123.000
86.11761 99.000
86.13755 109.000
86.15750 114.000
86.17745 121.000
86.19739 109.000
86.21734 99.000
86.23729 114.000
86.25723 119.000
86.27718 99.000
86.29713 95.000
86.31708 93.000
86.33702 117.000
86.35697 100.000
86.37692 112.000
86.39686 103.000
86.41681 98.000
86.43676 92.000
86.45670 111.000
86.47665 114.000
86.49660 103.000
86.51655 100.000
86.53649 120.000
86.55644 122.000
86.57639 108.000
86.59633 107.000
86.61628 114.000
86.63623 101.000
86.65617 101.000
86.67612 105.000
86.69607 101.000
86.71602 109.000
86.73596 95.000
86.75591 106.000
86.77586 103.000
86.79580 113.000
86.81575 109.000
86.83570 130.000
86.85564 120.000
86.87559 125.000
86.89554 116.000
86.91548 113.000
86.93543 117.000
86.95538 106.000
86.97533 140.000
86.99527 113.000
87.01522 128.000
87.03517 123.000
87.05511 127.000
87.07506 151.000
87.09501 159.000
87.11495 142.000
87.13490 129.000
87.15485 114.000
87.17480 139.000
87.19474 134.000
87.21469 130.000
87.23464 147.000
87.25458 133.000
87.27453 135.000
87.29448 132.000
87.31442 121.000
87.33437 112.000
87.35432 131.000
87.37426 125.000
87.39421 127.000
87.41416 152.000
87.43411 133.000
87.45405 130.000
87.47400 131.000
87.49395 123.000
87.51389 107.000
87.53384 120.000
87.55379 137.000
87.57373 113.000
87.59368 130.000
87.61363 133.000
87.63358 117.000
87.65352 100.000
87.67347 122.000
87.69342 120.000
87.71336 116.000
87.73331 105.000
87.75326 135.000
87.77320 107.000
87.79315 113.000
87.81310 104.000
87.83304 108.000
87.85299 109.000
87.87294 122.000
87.89289 116.000
87.91283 104.000
87.93278 110.000
87.95273 116.000
87.97267 114.000
87.99262 123.000
88.01257 95.000
88.03251 100.000
88.05246 103.000
88.07241 114.000
88.09236 94.000
88.11230 115.000
88.13225 104.000
88.15220 93.000
88.17214 104.000
88.19209 97.000
88.21204 87.000
88.23198 95.000
88.25193 105.000
88.27188 110.000
88.29183 115.000
88.31177 100.000
88.33172 104.000
88.35167 101.000
88.37161 112.000
88.39156 103.000
88.41151 122.000
88.43145 98.000
88.45140 109.000
88.47135 118.000
88.49129 112.000
88.51124 115.000
88.53119 93.000
88.55114 101.000
88.57108 96.000
88.59103 119.000
88.61098 110.000
88.63092 102.000
88.65087 86.000
88.67082 106.000
88.69076 92.000
88.71071 106.000
88.73066 102.000
88.75061 105.000
88.77055 110.000
88.79050 84.000
88.81045 97.000
88.83039 124.000
88.85034 105.000
88.87029 115.000
88.89023 86.000
88.91018 102.000
88.93013 93.000
88.95007 107.000
88.97002 89.000
88.98997 99.000
89.00992 97.000
89.02986 112.000
89.04981 104.000
89.06976 77.000
89.08970 110.000
89.10965 95.000
89.12960 100.000
89.14954 106.000
89.16949 109.000
89.18944 104.000
89.20939 84.000
89.22933 97.000
89.24928 107.000
89.26923 90.000
89.28917 108.000
89.30912 102.000
89.32907 88.000
89.34901 99.000
89.36896 120.000
89.38891 88.000
89.40885 110.000
89.42880 105.000
89.44875 97.000
89.46870 103.000
89.48864 110.000
89.50859 117.000
89.52854 102.000
89.54848 105.000
89.56843 119.000
89.58838 96.000
89.60832 112.000
89.62827 101.000
89.64822 100.000
89.66817 101.000
89.68811 109.000
89.70806 94.000
89.72801 91.000
89.74795 102.000
89.76790 100.000
89.78785 98.000
89.80779 95.000
89.82774 103.000
89.84769 100.000
89.86764 108.000
89.88758 97.000
89.90753 102.000
89.92748 96.000
89.94742 99.000
89.96737 113.000
89.98732 104.000
90.00726 109.000
