10.00000 82.000
10.01995 104.000
10.03989 85.000
10.05984 75.000
10.07979 88.000
10.09973 64.000
10.11968 78.000
10.13963 93.000
10.15958 95.000
10.17952 93.000
10.19947 76.000
10.21942 84.000
10.23936 89.000
10.25931 108.000
10.27926 90.000
10.29920 68.000
10.31915 90.000
10.33910 80.000
10.35905 88.000
10.37899 77.000
10.39894 80.000
10.41889 92.000
10.43883 89.000
10.45878 87.000
10.47873 71.000
10.49867 74.000
10.51862 82.000
10.53857 111.000
10.55851 90.000
10.57846 79.000
10.59841 86.000
10.61836 73.000
10.63830 79.000
10.65825 67.000
10.67820 80.000
10.69814 81.000
10.71809 88.000
10.73804 86.000
10.75798 78.000
10.77793 77.000
10.79788 87.000
10.81783 74.000
10.83777 83.000
10.85772 84.000
10.87767 77.000
10.89761 67.000
10.91756 91.000
10.93751 76.000
10.95745 75.000
10.97740 88.000
10.99735 85.000
11.01730 73.000
11.03724 97.000
11.05719 90.000
11.07714 77.000
11.09708 90.000
11.11703 78.000
11.13698 68.000
11.15692 82.000
11.17687 95.000
11.19682 86.000
11.21676 95.000
11.23671 73.000
11.25666 100.000
11.27661 89.000
11.29655 82.000
11.31650 72.000
11.33645 85.000
11.35639 74.000
11.37634 89.000
11.39629 92.000
11.41623 83.000
11.43618 68.000
11.45613 83.000
11.47608 74.000
11.49602 81.000
11.51597 79.000
11.53592 83.000
11.55586 81.000
11.57581 83.000
11.59576 73.000
11.61570 93.000
11.63565 92.000
11.65560 85.000
11.67554 89.000
11.69549 81.000
11.71544 74.000
11.73539 81.000
11.75533 77.000
11.77528 83.000
11.79523 90.000
11.81517 69.000
11.83512 84.000
11.85507 85.000
11.87501 65.000
11.89496 84.000
11.91491 87.000
11.93486 70.000
11.95480 93.000
11.97475 82.000
11.99470 78.000
12.01464 81.000
12.03459 80.000
12.05454 89.000
12.07448 88.000
12.09443 97.000
12.11438 106.000
12.13432 70.000
12.15427 70.000
12.17422 85.000
12.19417 72.000
12.21411 68.000
12.23406 95.000
12.25401 93.000
12.27395 80.000
12.29390 79.000
12.31385 90.000
12.33379 86.000
12.35374 80.000
12.37369 80.000
12.39364 80.000
12.41358 66.000
12.43353 97.000
12.45348 75.000
12.47342 85.000
12.49337 70.000
12.51332 84.000
12.53326 75.000
12.55321 66.000
12.57316 74.000
12.59311 87.000
12.61305 77.000
12.63300 81.000
12.65295 76.000
12.67289 82.000
12.69284 94.000
12.71279 73.000
12.73273 92.000
12.75268 82.000
12.77263 72.000
12.79257 82.000
12.81252 70.000
12.83247 68.000
12.85242 73.000
12.87236 83.000
12.89231 82.000
12.91226 81.000
12.93220 79.000
12.95215 90.000
12.97210 82.000
12.99204 86.000
13.01199 73.000
13.03194 91.000
13.05189 66.000
13.07183 80.000
13.09178 80.000
13.11173 73.000
13.13167 91.000
13.15162 78.000
13.17157 99.000
13.19151 70.000
13.21146 97.000
13.23141 77.000
13.25135 73.000
13.27130 71.000
13.29125 75.000
13.31120 80.000
13.33114 76.000
13.35109 75.000
13.37104 83.000
13.39098 84.000
13.41093 79.000
13.43088 72.000
13.45082 71.000
13.47077 80.000
13.49072 73.000
13.51067 80.000
13.53061 88.000
13.55056 77.000
13.57051 78.000
13.59045 102.000
13.61040 92.000
13.63035 76.000
13.65029 70.000
13.67024 62.000
13.69019 64.000
13.71013 81.000
13.73008 76.000
13.75003 90.000
13.76998 92.000
13.78992 91.000
13.80987 81.000
13.82982 80.000
13.84976 69.000
13.86971 69.000
13.88966 88.000
13.90960 77.000
13.92955 77.000
13.94950 87.000
13.96945 73.000
13.98939 92.000
14.00934 75.000
14.02929 92.000
14.04923 67.000
14.06918 86.000
14.08913 81.000
14.10907 91.000
14.12902 82.000
14.14897 66.000
14.16892 74.000
14.18886 70.000
14.20881 76.000
14.22876 60.000
14.24870 75.000
14.26865 87.000
14.28860 84.000
14.30854 102.000
14.32849 87.000
14.34844 73.000
14.36838 78.000
14.38833 78.000
14.40828 85.000
14.42823 71.000
14.44817 83.000
14.46812 85.000
14.48807 87.000
14.50801 82.000
14.52796 90.000
14.54791 82.000
14.56785 97.000
14.58780 121.000
14.60775 77.000
14.62770 87.000
14.64764 76.000
14.66759 83.000
14.68754 90.000
14.70748 95.000
14.72743 102.000
14.74738 83.000
14.76732 80.000
14.78727 93.000
14.80722 67.000
14.82716 78.000
14.84711 88.000
14.86706 78.000
14.88701 74.000
14.90695 85.000
14.92690 85.000
14.94685 92.000
14.96679 81.000
14.98674 95.000
15.00669 80.000
15.02663 88.000
15.04658 88.000
15.06653 97.000
15.08648 93.000
15.10642 99.000
15.12637 83.000
15.14632 89.000
15.16626 103.000
15.18621 84.000
15.20616 78.000
15.22610 77.000
15.24605 92.000
15.26600 85.000
15.28594 100.000
15.30589 108.000
15.32584 100.000
15.34579 101.000
15.36573 107.000
15.38568 120.000
15.40563 91.000
15.42557 109.000
15.44552 127.000
15.46547 113.000
15.48541 119.000
15.50536 115.000
15.52531 119.000
15.54526 125.000
15.56520 148.000
15.58515 172.000
15.60510 169.000
15.62504 191.000
15.64499 179.000
15.66494 213.000
15.68488 299.000
15.70483 343.000
15.72478 451.000
15.74472 579.000
15.76467 666.000
15.78462 554.000
15.80457 446.000
15.82451 314.000
15.84446 297.000
15.86441 214.000
15.88435 200.000
15.90430 205.000
15.92425 187.000
15.94419 228.000
15.96414 236.000
15.98409 249.000
16.00404 286.000
16.02398 326.000
16.04393 397.000
16.06388 420.000
16.08382 531.000
16.10377 640.000
16.12372 748.000
16.14366 830.000
16.16361 926.000
16.18356 1170.000
16.20351 1428.000
16.22345 1981.000
16.24340 2869.000
16.26335 3836.000
16.28329 4824.000
16.30324 5169.000
16.32319 4998.000
16.34313 4081.000
16.36308 2567.000
16.38303 1461.000
16.40297 782.000
16.42292 420.000
16.44287 315.000
16.46282 235.000
16.48276 209.000
16.50271 191.000
16.52266 192.000
16.54260 167.000
16.56255 166.000
16.58250 166.000
16.60244 133.000
16.62239 140.000
16.64234 151.000
16.66229 113.000
16.68223 130.000
16.70218 146.000
16.72213 129.000
16.74207 116.000
16.76202 138.000
16.78197 111.000
16.80191 109.000
16.82186 114.000
16.84181 125.000
16.86175 129.000
16.88170 107.000
16.90165 98.000
16.92160 102.000
16.94154 116.000
16.96149 96.000
16.98144 108.000
17.00138 101.000
17.02133 93.000
17.04128 105.000
17.06122 86.000
17.08117 104.000
17.10112 106.000
17.12107 94.000
17.14101 92.000
17.16096 95.000
17.18091 89.000
17.20085 101.000
17.22080 94.000
17.24075 92.000
17.26069 95.000
17.28064 93.000
17.30059 85.000
17.32053 101.000
17.34048 82.000
17.36043 77.000
17.38038 88.000
17.40032 88.000
17.42027 83.000
17.44022 78.000
17.46016 97.000
17.48011 101.000
17.50006 80.000
17.52000 73.000
17.53995 73.000
17.55990 71.000
17.57985 82.000
17.59979 95.000
17.61974 91.000
17.63969 86.000
17.65963 66.000
17.67958 94.000
17.69953 77.000
17.71947 61.000
17.73942 80.000
17.75937 83.000
17.77932 64.000
17.79926 78.000
17.81921 90.000
17.83916 79.000
17.85910 74.000
17.87905 83.000
17.89900 58.000
17.91894 65.000
17.93889 71.000
17.95884 64.000
17.97878 90.000
17.99873 61.000
18.01868 88.000
18.03863 85.000
18.05857 95.000
18.07852 120.000
18.09847 128.000
18.11841 141.000
18.13836 174.000
18.15831 180.000
18.17825 206.000
18.19820 186.000
18.21815 213.000
18.23810 170.000
18.25804 142.000
18.27799 95.000
18.29794 89.000
18.31788 68.000
18.33783 74.000
18.35778 81.000
18.37772 75.000
18.39767 62.000
18.41762 72.000
18.43756 63.000
18.45751 88.000
18.47746 75.000
18.49741 68.000
18.51735 73.000
18.53730 94.000
18.55725 67.000
18.57719 86.000
18.59714 79.000
18.61709 99.000
18.63703 84.000
18.65698 66.000
18.67693 73.000
18.69688 61.000
18.71682 62.000
18.73677 91.000
18.75672 84.000
18.77666 72.000
18.79661 90.000
18.81656 70.000
18.83650 73.000
18.85645 70.000
18.87640 76.000
18.89634 70.000
18.91629 63.000
18.93624 73.000
18.95619 77.000
18.97613 85.000
18.99608 56.000
19.01603 78.000
19.03597 61.000
19.05592 68.000
19.07587 89.000
19.09581 86.000
19.11576 66.000
19.13571 79.000
19.15566 70.000
19.17560 78.000
19.19555 66.000
19.21550 72.000
19.23544 74.000
19.25539 68.000
19.27534 73.000
19.29528 62.000
19.31523 70.000
19.33518 68.000
19.35513 79.000
19.37507 76.000
19.39502 68.000
19.41497 80.000
19.43491 72.000
19.45486 78.000
19.47481 72.000
19.49475 88.000
19.51470 79.000
19.53465 69.000
19.55459 66.000
19.57454 79.000
19.59449 73.000
19.61444 69.000
19.63438 83.000
19.65433 77.000
19.67428 75.000
19.69422 69.000
19.71417 78.000
19.73412 72.000
19.75406 80.000
19.77401 81.000
19.79396 73.000
19.81391 64.000
19.83385 76.000
19.85380 72.000
19.87375 78.000
19.89369 68.000
19.91364 79.000
19.93359 82.000
19.95353 95.000
19.97348 96.000
19.99343 104.000
20.01337 89.000
20.03332 89.000
20.05327 93.000
20.07322 69.000
20.09316 79.000
20.11311 72.000
20.13306 70.000
20.15300 76.000
20.17295 87.000
20.19290 101.000
20.21284 80.000
20.23279 81.000
20.25274 75.000
20.27269 74.000
20.29263 88.000
20.31258 85.000
20.33253 75.000
20.35247 95.000
20.37242 99.000
20.39237 109.000
20.41231 112.000
20.43226 117.000
20.45221 150.000
20.47215 170.000
20.49210 239.000
20.51205 253.000
20.53200 240.000
20.55194 265.000
20.57189 251.000
20.59184 267.000
20.61178 238.000
20.63173 231.000
20.65168 250.000
20.67162 187.000
20.69157 198.000
20.71152 220.000
20.73147 177.000
20.75141 191.000
20.77136 218.000
20.79131 249.000
20.81125 229.000
20.83120 248.000
20.85115 218.000
20.87109 185.000
20.89104 171.000
20.91099 144.000
20.93094 131.000
20.95088 130.000
20.97083 107.000
20.99078 123.000
21.01072 93.000
21.03067 98.000
21.05062 90.000
21.07056 81.000
21.09051 80.000
21.11046 79.000
21.13040 91.000
21.15035 86.000
21.17030 82.000
21.19025 86.000
21.21019 75.000
21.23014 103.000
21.25009 86.000
21.27003 61.000
21.28998 83.000
21.30993 61.000
21.32987 66.000
21.34982 84.000
21.36977 69.000
21.38972 67.000
21.40966 83.000
21.42961 76.000
21.44956 68.000
21.46950 83.000
21.48945 70.000
21.50940 68.000
21.52934 66.000
21.54929 70.000
21.56924 87.000
21.58918 69.000
21.60913 74.000
21.62908 68.000
21.64903 51.000
21.66897 90.000
21.68892 76.000
21.70887 71.000
21.72881 69.000
21.74876 74.000
21.76871 73.000
21.78865 65.000
21.80860 75.000
21.82855 68.000
21.84850 78.000
21.86844 84.000
21.88839 81.000
21.90834 79.000
21.92828 86.000
21.94823 75.000
21.96818 68.000
21.98812 68.000
22.00807 79.000
22.02802 86.000
22.04796 76.000
22.06791 66.000
22.08786 80.000
22.10781 55.000
22.12775 86.000
22.14770 59.000
22.16765 73.000
22.18759 72.000
22.20754 62.000
22.22749 64.000
22.24743 70.000
22.26738 90.000
22.28733 79.000
22.30728 83.000
22.32722 75.000
22.34717 73.000
22.36712 69.000
22.38706 61.000
22.40701 74.000
22.42696 57.000
22.44690 79.000
22.46685 68.000
22.48680 72.000
22.50675 76.000
22.52669 79.000
22.54664 67.000
22.56659 89.000
22.58653 70.000
22.60648 72.000
22.62643 73.000
22.64637 85.000
22.66632 88.000
22.68627 71.000
22.70621 78.000
22.72616 62.000
22.74611 62.000
22.76606 85.000
22.78600 96.000
22.80595 83.000
22.82590 83.000
22.84584 88.000
22.86579 75.000
22.88574 86.000
22.90568 80.000
22.92563 72.000
22.94558 75.000
22.96553 79.000
22.98547 73.000
23.00542 70.000
23.02537 65.000
23.04531 76.000
23.06526 81.000
23.08521 80.000
23.10515 73.000
23.12510 68.000
23.14505 78.000
23.16499 65.000
23.18494 60.000
23.20489 77.000
23.22484 80.000
23.24478 85.000
23.26473 66.000
23.28468 66.000
23.30462 75.000
23.32457 72.000
23.34452 66.000
23.36446 86.000
23.38441 87.000
23.40436 69.000
23.42431 84.000
23.44425 79.000
23.46420 91.000
23.48415 85.000
23.50409 73.000
23.52404 61.000
23.54399 85.000
23.56393 84.000
23.58388 65.000
23.60383 81.000
23.62377 78.000
23.64372 80.000
23.66367 85.000
23.68362 82.000
23.70356 80.000
23.72351 66.000
23.74346 62.000
23.76340 81.000
23.78335 87.000
23.80330 71.000
23.82324 90.000
23.84319 88.000
23.86314 69.000
23.88309 66.000
23.90303 91.000
23.92298 84.000
23.94293 71.000
23.96287 79.000
23.98282 70.000
24.00277 90.000
24.02271 74.000
24.04266 70.000
24.06261 79.000
24.08256 79.000
24.10250 79.000
24.12245 79.000
24.14240 73.000
24.16234 68.000
24.18229 75.000
24.20224 75.000
24.22218 82.000
24.24213 69.000
24.26208 81.000
24.28202 71.000
24.30197 72.000
24.32192 86.000
24.34187 74.000
24.36181 70.000
24.38176 74.000
24.40171 81.000
24.42165 93.000
24.44160 88.000
24.46155 62.000
24.48149 75.000
24.50144 68.000
24.52139 70.000
24.54134 87.000
24.56128 65.000
24.58123 80.000
24.60118 74.000
24.62112 80.000
24.64107 72.000
24.66102 84.000
24.68096 69.000
24.70091 96.000
24.72086 62.000
24.74080 71.000
24.76075 84.000
24.78070 69.000
24.80065 86.000
24.82059 75.000
24.84054 75.000
24.86049 68.000
24.88043 88.000
24.90038 81.000
24.92033 95.000
24.94027 83.000
24.96022 84.000
24.98017 84.000
25.00012 80.000
25.02006 66.000
25.04001 73.000
25.05996 61.000
25.07990 71.000
25.09985 88.000
25.11980 62.000
25.13974 76.000
25.15969 81.000
25.17964 74.000
25.19958 69.000
25.21953 75.000
25.23948 95.000
25.25943 89.000
25.27937 64.000
25.29932 71.000
25.31927 78.000
25.33921 83.000
25.35916 84.000
25.37911 75.000
25.39905 62.000
25.41900 81.000
25.43895 79.000
25.45890 75.000
25.47884 89.000
25.49879 74.000
25.51874 79.000
25.53868 68.000
25.55863 83.000
25.57858 79.000
25.59852 78.000
25.61847 74.000
25.63842 68.000
25.65837 76.000
25.67831 69.000
25.69826 70.000
25.71821 89.000
25.73815 76.000
25.75810 81.000
25.77805 71.000
25.79799 72.000
25.81794 74.000
25.83789 98.000
25.85783 88.000
25.87778 95.000
25.89773 85.000
25.91768 90.000
25.93762 77.000
25.95757 87.000
25.97752 94.000
25.99746 86.000
26.01741 87.000
26.03736 88.000
26.05730 80.000
26.07725 76.000
26.09720 81.000
26.11715 77.000
26.13709 82.000
26.15704 75.000
26.17699 83.000
26.19693 83.000
26.21688 72.000
26.23683 73.000
26.25677 90.000
26.27672 75.000
26.29667 82.000
26.31661 75.000
26.33656 74.000
26.35651 71.000
26.37646 96.000
26.39640 72.000
26.41635 83.000
26.43630 82.000
26.45624 82.000
26.47619 79.000
26.49614 78.000
26.51608 88.000
26.53603 61.000
26.55598 76.000
26.57593 92.000
26.59587 83.000
26.61582 93.000
26.63577 78.000
26.65571 82.000
26.67566 82.000
26.69561 80.000
26.71555 80.000
26.73550 93.000
26.75545 94.000
26.77539 90.000
26.79534 88.000
26.81529 75.000
26.83524 92.000
26.85518 77.000
26.87513 80.000
26.89508 88.000
26.91502 82.000
26.93497 80.000
26.95492 77.000
26.97486 82.000
26.99481 80.000
27.01476 72.000
27.03471 85.000
27.05465 79.000
27.07460 78.000
27.09455 90.000
27.11449 84.000
27.13444 96.000
27.15439 74.000
27.17433 80.000
27.19428 76.000
27.21423 90.000
27.23417 88.000
27.25412 103.000
27.27407 72.000
27.29402 83.000
27.31396 81.000
27.33391 56.000
27.35386 77.000
27.37380 77.000
27.39375 83.000
27.41370 83.000
27.43364 65.000
27.45359 91.000
27.47354 76.000
27.49349 86.000
27.51343 82.000
27.53338 87.000
27.55333 79.000
27.57327 91.000
27.59322 73.000
27.61317 75.000
27.63311 94.000
27.65306 71.000
27.67301 92.000
27.69296 68.000
27.71290 81.000
27.73285 89.000
27.75280 86.000
27.77274 82.000
27.79269 89.000
27.81264 75.000
27.83258 71.000
27.85253 85.000
27.87248 101.000
27.89242 88.000
27.91237 69.000
27.93232 76.000
27.95227 78.000
27.97221 88.000
27.99216 101.000
28.01211 90.000
28.03205 74.000
28.05200 83.000
28.07195 81.000
28.09189 74.000
28.11184 81.000
28.13179 82.000
28.15174 99.000
28.17168 91.000
28.19163 71.000
28.21158 91.000
28.23152 92.000
28.25147 76.000
28.27142 80.000
28.29136 95.000
28.31131 86.000
28.33126 100.000
28.35120 108.000
28.37115 85.000
28.39110 70.000
28.41105 82.000
28.43099 82.000
28.45094 89.000
28.47089 85.000
28.49083 81.000
28.51078 86.000
28.53073 81.000
28.55067 94.000
28.57062 86.000
28.59057 80.000
28.61052 76.000
28.63046 83.000
28.65041 81.000
28.67036 72.000
28.69030 89.000
28.71025 68.000
28.73020 81.000
28.75014 74.000
28.77009 76.000
28.79004 85.000
28.80998 98.000
28.82993 79.000
28.84988 73.000
28.86983 100.000
28.88977 85.000
28.90972 86.000
28.92967 86.000
28.94961 75.000
28.96956 89.000
28.98951 80.000
29.00945 72.000
29.02940 81.000
29.04935 109.000
29.06930 88.000
29.08924 84.000
29.10919 81.000
29.12914 74.000
29.14908 74.000
29.16903 85.000
29.18898 84.000
29.20892 95.000
29.22887 94.000
29.24882 86.000
29.26877 99.000
29.28871 96.000
29.30866 95.000
29.32861 88.000
29.34855 96.000
29.36850 98.000
29.38845 100.000
29.40839 88.000
29.42834 111.000
29.44829 86.000
29.46823 105.000
29.48818 100.000
29.50813 103.000
29.52808 96.000
29.54802 109.000
29.56797 101.000
29.58792 105.000
29.60786 112.000
29.62781 109.000
29.64776 100.000
29.66770 102.000
29.68765 100.000
29.70760 116.000
29.72755 108.000
29.74749 121.000
29.76744 118.000
29.78739 151.000
29.80733 143.000
29.82728 147.000
29.84723 157.000
29.86717 181.000
29.88712 224.000
29.90707 236.000
29.92701 253.000
29.94696 215.000
29.96691 223.000
29.98686 227.000
30.00680 182.000
30.02675 166.000
30.04670 151.000
30.06664 137.000
30.08659 96.000
30.10654 105.000
30.12648 96.000
30.14643 117.000
30.16638 91.000
30.18633 109.000
30.20627 114.000
30.22622 94.000
30.24617 91.000
30.26611 113.000
30.28606 84.000
30.30601 89.000
30.32595 102.000
30.34590 97.000
30.36585 77.000
30.38579 88.000
30.40574 88.000
30.42569 100.000
30.44564 96.000
30.46558 118.000
30.48553 99.000
30.50548 89.000
30.52542 85.000
30.54537 81.000
30.56532 107.000
30.58526 98.000
30.60521 82.000
30.62516 75.000
30.64511 73.000
30.66505 97.000
30.68500 102.000
30.70495 93.000
30.72489 92.000
30.74484 85.000
30.76479 81.000
30.78473 107.000
30.80468 87.000
30.82463 87.000
30.84458 91.000
30.86452 95.000
30.88447 79.000
30.90442 84.000
30.92436 81.000
30.94431 87.000
30.96426 72.000
30.98420 100.000
31.00415 90.000
31.02410 95.000
31.04404 95.000
31.06399 91.000
31.08394 90.000
31.10389 82.000
31.12383 69.000
31.14378 73.000
31.16373 81.000
31.18367 82.000
31.20362 93.000
31.22357 96.000
31.24351 85.000
31.26346 68.000
31.28341 102.000
31.30336 92.000
31.32330 77.000
31.34325 80.000
31.36320 107.000
31.38314 81.000
31.40309 91.000
31.42304 98.000
31.44298 113.000
31.46293 92.000
31.48288 90.000
31.50282 91.000
31.52277 108.000
31.54272 84.000
31.56267 104.000
31.58261 106.000
31.60256 115.000
31.62251 91.000
31.64245 95.000
31.66240 95.000
31.68235 106.000
31.70229 99.000
31.72224 109.000
31.74219 100.000
31.76214 108.000
31.78208 100.000
31.80203 121.000
31.82198 116.000
31.84192 113.000
31.86187 131.000
31.88182 121.000
31.90176 110.000
31.92171 125.000
31.94166 105.000
31.96160 112.000
31.98155 102.000
32.00150 106.000
32.02145 103.000
32.04139 92.000
32.06134 98.000
32.08129 103.000
32.10123 101.000
32.12118 96.000
32.14113 97.000
32.16107 95.000
32.18102 95.000
32.20097 89.000
32.22092 117.000
32.24086 106.000
32.26081 113.000
32.28076 108.000
32.30070 101.000
32.32065 108.000
32.34060 120.000
32.36054 93.000
32.38049 96.000
32.40044 117.000
32.42039 123.000
32.44033 125.000
32.46028 140.000
32.48023 159.000
32.50017 148.000
32.52012 120.000
32.54007 134.000
32.56001 147.000
32.57996 151.000
32.59991 161.000
32.61985 170.000
32.63980 151.000
32.65975 135.000
32.67970 135.000
32.69964 144.000
32.71959 180.000
32.73954 162.000
32.75948 163.000
32.77943 180.000
32.79938 205.000
32.81932 233.000
32.83927 256.000
32.85922 312.000
32.87917 356.000
32.89911 425.000
32.91906 440.000
32.93901 487.000
32.95895 524.000
32.97890 486.000
32.99885 498.000
33.01879 503.000
33.03874 396.000
33.05869 343.000
33.07863 271.000
33.09858 247.000
33.11853 189.000
33.13848 172.000
33.15842 137.000
33.17837 141.000
33.19832 106.000
33.21826 127.000
33.23821 144.000
33.25816 125.000
33.27810 115.000
33.29805 135.000
33.31800 120.000
33.33795 143.000
33.35789 121.000
33.37784 120.000
33.39779 110.000
33.41773 128.000
33.43768 117.000
33.45763 115.000
33.47757 115.000
33.49752 111.000
33.51747 120.000
33.53741 104.000
33.55736 124.000
33.57731 114.000
33.59726 101.000
33.61720 118.000
33.63715 131.000
33.65710 126.000
33.67704 126.000
33.69699 138.000
33.71694 174.000
33.73688 207.000
33.75683 190.000
33.77678 196.000
33.79673 225.000
33.81667 220.000
33.83662 240.000
33.85657 249.000
33.87651 253.000
33.89646 247.000
33.91641 255.000
33.93635 290.000
33.95630 283.000
33.97625 287.000
33.99620 268.000
34.01614 266.000
34.03609 278.000
34.05604 211.000
34.07598 228.000
34.09593 232.000
34.11588 252.000
34.13582 211.000
34.15577 190.000
34.17572 214.000
34.19566 224.000
34.21561 248.000
34.23556 216.000
34.25551 208.000
34.27545 203.000
34.29540 210.000
34.31535 210.000
34.33529 213.000
34.35524 217.000
34.37519 218.000
34.39513 217.000
34.41508 197.000
34.43503 204.000
34.45498 178.000
34.47492 159.000
34.49487 155.000
34.51482 140.000
34.53476 147.000
34.55471 144.000
34.57466 141.000
34.59460 130.000
34.61455 155.000
34.63450 132.000
34.65444 130.000
34.67439 113.000
34.69434 125.000
34.71429 116.000
34.73423 134.000
34.75418 118.000
34.77413 129.000
34.79407 110.000
34.81402 116.000
34.83397 153.000
34.85391 119.000
34.87386 136.000
34.89381 151.000
34.91376 131.000
34.93370 168.000
34.95365 166.000
34.97360 195.000
34.99354 247.000
35.01349 317.000
35.03344 412.000
35.05338 452.000
35.07333 524.000
35.09328 512.000
35.11322 617.000
35.13317 644.000
35.15312 665.000
35.17307 738.000
35.19301 818.000
35.21296 808.000
35.23291 822.000
35.25285 764.000
35.27280 673.000
35.29275 771.000
35.31269 640.000
35.33264 556.000
35.35259 531.000
35.37254 455.000
35.39248 414.000
35.41243 413.000
35.43238 437.000
35.45232 422.000
35.47227 397.000
35.49222 350.000
35.51216 390.000
35.53211 434.000
35.55206 384.000
35.57201 364.000
35.59195 351.000
35.61190 341.000
35.63185 294.000
35.65179 257.000
35.67174 226.000
35.69169 243.000
35.71163 185.000
35.73158 182.000
35.75153 143.000
35.77147 148.000
35.79142 127.000
35.81137 126.000
35.83132 166.000
35.85126 124.000
35.87121 128.000
35.89116 133.000
35.91110 128.000
35.93105 134.000
35.95100 150.000
35.97094 121.000
35.99089 111.000
36.01084 119.000
36.03079 132.000
36.05073 143.000
36.07068 142.000
36.09063 135.000
36.11057 127.000
36.13052 112.000
36.15047 115.000
36.17041 142.000
36.19036 149.000
36.21031 154.000
36.23025 134.000
36.25020 153.000
36.27015 183.000
36.29010 184.000
36.31004 228.000
36.32999 307.000
36.34994 407.000
36.36988 475.000
36.38983 515.000
36.40978 528.000
36.42972 621.000
36.44967 564.000
36.46962 531.000
36.48957 470.000
36.50951 427.000
36.52946 404.000
36.54941 307.000
36.56935 282.000
36.58930 248.000
36.60925 251.000
36.62919 196.000
36.64914 199.000
36.66909 161.000
36.68903 166.000
36.70898 162.000
36.72893 133.000
36.74888 179.000
36.76882 124.000
36.78877 162.000
36.80872 162.000
36.82866 146.000
36.84861 175.000
36.86856 121.000
36.88850 133.000
36.90845 141.000
36.92840 135.000
36.94835 136.000
36.96829 115.000
36.98824 115.000
37.00819 119.000
37.02813 106.000
37.04808 107.000
37.06803 99.000
37.08797 99.000
37.10792 96.000
37.12787 98.000
37.14781 99.000
37.16776 87.000
37.18771 121.000
37.20766 77.000
37.22760 96.000
37.24755 93.000
37.26750 83.000
37.28744 77.000
37.30739 91.000
37.32734 80.000
37.34728 82.000
37.36723 91.000
37.38718 102.000
37.40713 90.000
37.42707 104.000
37.44702 88.000
37.46697 79.000
37.48691 78.000
37.50686 84.000
37.52681 90.000
37.54675 99.000
37.56670 84.000
37.58665 81.000
37.60660 96.000
37.62654 88.000
37.64649 94.000
37.66644 100.000
37.68638 87.000
37.70633 93.000
37.72628 74.000
37.74622 81.000
37.76617 81.000
37.78612 87.000
37.80606 80.000
37.82601 85.000
37.84596 90.000
37.86591 93.000
37.88585 86.000
37.90580 88.000
37.92575 105.000
37.94569 105.000
37.96564 103.000
37.98559 78.000
38.00553 102.000
38.02548 99.000
38.04543 89.000
38.06538 99.000
38.08532 115.000
38.10527 96.000
38.12522 105.000
38.14516 100.000
38.16511 89.000
38.18506 97.000
38.20500 95.000
38.22495 101.000
38.24490 104.000
38.26484 105.000
38.28479 113.000
38.30474 83.000
38.32469 98.000
38.34463 104.000
38.36458 98.000
38.38453 108.000
38.40447 108.000
38.42442 111.000
38.44437 136.000
38.46431 111.000
38.48426 118.000
38.50421 137.000
38.52416 112.000
38.54410 141.000
38.56405 148.000
38.58400 141.000
38.60394 156.000
38.62389 180.000
38.64384 186.000
38.66378 218.000
38.68373 248.000
38.70368 298.000
38.72362 303.000
38.74357 304.000
38.76352 314.000
38.78347 283.000
38.80341 286.000
38.82336 261.000
38.84331 289.000
38.86325 283.000
38.88320 263.000
38.90315 224.000
38.92309 202.000
38.94304 209.000
38.96299 201.000
38.98294 194.000
39.00288 171.000
39.02283 174.000
39.04278 155.000
39.06272 153.000
39.08267 144.000
39.10262 132.000
39.12256 136.000
39.14251 116.000
39.16246 129.000
39.18241 116.000
39.20235 132.000
39.22230 112.000
39.24225 122.000
39.26219 110.000
39.28214 104.000
39.30209 115.000
39.32203 98.000
39.34198 110.000
39.36193 103.000
39.38187 109.000
39.40182 96.000
39.42177 108.000
39.44172 103.000
39.46166 90.000
39.48161 108.000
39.50156 90.000
39.52150 109.000
39.54145 109.000
39.56140 118.000
39.58134 96.000
39.60129 100.000
39.62124 108.000
39.64119 111.000
39.66113 95.000
39.68108 94.000
39.70103 100.000
39.72097 85.000
39.74092 108.000
39.76087 86.000
39.78081 94.000
39.80076 94.000
39.82071 97.000
39.84065 93.000
39.86060 102.000
39.88055 94.000
39.90050 86.000
39.92044 119.000
39.94039 92.000
39.96034 106.000
39.98028 101.000
40.00023 104.000
40.02018 110.000
40.04012 85.000
40.06007 97.000
40.08002 94.000
40.09997 81.000
40.11991 99.000
40.13986 102.000
40.15981 100.000
40.17975 79.000
40.19970 88.000
40.21965 110.000
40.23959 95.000
40.25954 83.000
40.27949 87.000
40.29943 98.000
40.31938 106.000
40.33933 95.000
40.35928 95.000
40.37922 84.000
40.39917 101.000
40.41912 96.000
40.43906 82.000
40.45901 96.000
40.47896 76.000
40.49890 114.000
40.51885 110.000
40.53880 89.000
40.55875 122.000
40.57869 107.000
40.59864 93.000
40.61859 125.000
40.63853 115.000
40.65848 106.000
40.67843 93.000
40.69837 110.000
40.71832 99.000
40.73827 114.000
40.75822 115.000
40.77816 110.000
40.79811 108.000
40.81806 135.000
40.83800 116.000
40.85795 129.000
40.87790 153.000
40.89784 133.000
40.91779 145.000
40.93774 152.000
40.95768 133.000
40.97763 144.000
40.99758 148.000
41.01753 188.000
41.03747 155.000
41.05742 180.000
41.07737 209.000
41.09731 225.000
41.11726 266.000
41.13721 262.000
41.15715 320.000
41.17710 381.000
41.19705 473.000
41.21700 597.000
41.23694 824.000
41.25689 1284.000
41.27684 1841.000
41.29678 2320.000
41.31673 2414.000
41.33668 2220.000
41.35662 2027.000
41.37657 1838.000
41.39652 1991.000
41.41646 1789.000
41.43641 1602.000
41.45636 1300.000
41.47631 961.000
41.49625 754.000
41.51620 597.000
41.53615 497.000
41.55609 429.000
41.57604 353.000
41.59599 267.000
41.61593 251.000
41.63588 219.000
41.65583 211.000
41.67578 169.000
41.69572 161.000
41.71567 165.000
41.73562 144.000
41.75556 161.000
41.77551 136.000
41.79546 128.000
41.81540 151.000
41.83535 134.000
41.85530 129.000
41.87524 138.000
41.89519 138.000
41.91514 121.000
41.93509 129.000
41.95503 121.000
41.97498 130.000
41.99493 116.000
42.01487 100.000
42.03482 90.000
42.05477 108.000
42.07471 91.000
42.09466 115.000
42.11461 112.000
42.13456 97.000
42.15450 114.000
42.17445 120.000
42.19440 108.000
42.21434 99.000
42.23429 121.000
42.25424 105.000
42.27418 106.000
42.29413 120.000
42.31408 83.000
42.33403 112.000
42.35397 90.000
42.37392 112.000
42.39387 87.000
42.41381 100.000
42.43376 113.000
42.45371 110.000
42.47365 102.000
42.49360 102.000
42.51355 86.000
42.53349 120.000
42.55344 118.000
42.57339 112.000
42.59334 97.000
42.61328 138.000
42.63323 135.000
42.65318 136.000
42.67312 163.000
42.69307 133.000
42.71302 146.000
42.73296 165.000
42.75291 146.000
42.77286 185.000
42.79281 154.000
42.81275 171.000
42.83270 172.000
42.85265 188.000
42.87259 180.000
42.89254 167.000
42.91249 167.000
42.93243 136.000
42.95238 137.000
42.97233 149.000
42.99227 120.000
43.01222 127.000
43.03217 121.000
43.05212 113.000
43.07206 130.000
43.09201 102.000
43.11196 101.000
43.13190 99.000
43.15185 116.000
43.17180 116.000
43.19174 110.000
43.21169 68.000
43.23164 111.000
43.25159 98.000
43.27153 94.000
43.29148 99.000
43.31143 83.000
43.33137 73.000
43.35132 92.000
43.37127 89.000
43.39121 87.000
43.41116 87.000
43.43111 92.000
43.45105 102.000
43.47100 94.000
43.49095 86.000
43.51090 99.000
43.53084 86.000
43.55079 102.000
43.57074 81.000
43.59068 73.000
43.61063 95.000
43.63058 86.000
43.65052 91.000
43.67047 98.000
43.69042 96.000
43.71037 72.000
43.73031 74.000
43.75026 71.000
43.77021 83.000
43.79015 83.000
43.81010 91.000
43.83005 81.000
43.84999 96.000
43.86994 74.000
43.88989 106.000
43.90984 97.000
43.92978 80.000
43.94973 84.000
43.96968 85.000
43.98962 85.000
44.00957 81.000
44.02952 87.000
44.04946 81.000
44.06941 94.000
44.08936 99.000
44.10930 81.000
44.12925 93.000
44.14920 97.000
44.16915 77.000
44.18909 83.000
44.20904 93.000
44.22899 81.000
44.24893 89.000
44.26888 81.000
44.28883 92.000
44.30877 81.000
44.32872 80.000
44.34867 86.000
44.36862 79.000
44.38856 81.000
44.40851 61.000
44.42846 70.000
44.44840 74.000
44.46835 77.000
44.48830 87.000
44.50824 110.000
44.52819 103.000
44.54814 90.000
44.56808 116.000
44.58803 91.000
44.60798 112.000
44.62793 107.000
44.64787 115.000
44.66782 161.000
44.68777 172.000
44.70771 152.000
44.72766 155.000
44.74761 135.000
44.76755 111.000
44.78750 136.000
44.80745 117.000
44.82740 145.000
44.84734 125.000
44.86729 99.000
44.88724 107.000
44.90718 86.000
44.92713 89.000
44.94708 74.000
44.96702 91.000
44.98697 98.000
45.00692 96.000
45.02686 80.000
45.04681 88.000
45.06676 67.000
45.08671 91.000
45.10665 77.000
45.12660 62.000
45.14655 78.000
45.16649 83.000
45.18644 83.000
45.20639 82.000
45.22633 81.000
45.24628 95.000
45.26623 86.000
45.28618 82.000
45.30612 77.000
45.32607 67.000
45.34602 81.000
45.36596 92.000
45.38591 71.000
45.40586 72.000
45.42580 74.000
45.44575 80.000
45.46570 78.000
45.48565 68.000
45.50559 90.000
45.52554 82.000
45.54549 81.000
45.56543 81.000
45.58538 74.000
45.60533 93.000
45.62527 62.000
45.64522 89.000
45.66517 84.000
45.68511 61.000
45.70506 76.000
45.72501 73.000
45.74496 71.000
45.76490 79.000
45.78485 67.000
45.80480 67.000
45.82474 72.000
45.84469 60.000
45.86464 78.000
45.88458 78.000
45.90453 77.000
45.92448 84.000
45.94443 72.000
45.96437 80.000
45.98432 91.000
46.00427 102.000
46.02421 96.000
46.04416 73.000
46.06411 89.000
46.08405 107.000
46.10400 80.000
46.12395 77.000
46.14389 72.000
46.16384 80.000
46.18379 83.000
46.20374 83.000
46.22368 73.000
46.24363 93.000
46.26358 81.000
46.28352 86.000
46.30347 81.000
46.32342 79.000
46.34336 74.000
46.36331 79.000
46.38326 91.000
46.40321 94.000
46.42315 86.000
46.44310 73.000
46.46305 95.000
46.48299 71.000
46.50294 70.000
46.52289 80.000
46.54283 85.000
46.56278 92.000
46.58273 78.000
46.60267 101.000
46.62262 80.000
46.64257 72.000
46.66252 78.000
46.68246 69.000
46.70241 97.000
46.72236 64.000
46.74230 76.000
46.76225 92.000
46.78220 73.000
46.80214 69.000
46.82209 78.000
46.84204 85.000
46.86199 80.000
46.88193 73.000
46.90188 89.000
46.92183 80.000
46.94177 94.000
46.96172 86.000
46.98167 75.000
47.00161 72.000
47.02156 82.000
47.04151 99.000
47.06146 87.000
47.08140 90.000
47.10135 75.000
47.12130 74.000
47.14124 89.000
47.16119 85.000
47.18114 80.000
47.20108 81.000
47.22103 77.000
47.24098 68.000
47.26092 81.000
47.28087 93.000
47.30082 63.000
47.32077 76.000
47.34071 80.000
47.36066 84.000
47.38061 97.000
47.40055 68.000
47.42050 87.000
47.44045 94.000
47.46039 80.000
47.48034 83.000
47.50029 91.000
47.52024 82.000
47.54018 76.000
47.56013 76.000
47.58008 74.000
47.60002 73.000
47.61997 83.000
47.63992 83.000
47.65986 90.000
47.67981 69.000
47.69976 72.000
47.71970 78.000
47.73965 87.000
47.75960 79.000
47.77955 79.000
47.79949 89.000
47.81944 92.000
47.83939 68.000
47.85933 77.000
47.87928 70.000
47.89923 84.000
47.91917 93.000
47.93912 85.000
47.95907 73.000
47.97902 83.000
47.99896 97.000
48.01891 83.000
48.03886 83.000
48.05880 87.000
48.07875 83.000
48.09870 88.000
48.11864 84.000
48.13859 80.000
48.15854 73.000
48.17848 98.000
48.19843 72.000
48.21838 104.000
48.23833 81.000
48.25827 106.000
48.27822 111.000
48.29817 107.000
48.31811 132.000
48.33806 110.000
48.35801 114.000
48.37795 125.000
48.39790 118.000
48.41785 112.000
48.43780 125.000
48.45774 127.000
48.47769 122.000
48.49764 111.000
48.51758 116.000
48.53753 130.000
48.55748 122.000
48.57742 122.000
48.59737 130.000
48.61732 134.000
48.63726 130.000
48.65721 166.000
48.67716 147.000
48.69711 172.000
48.71705 150.000
48.73700 168.000
48.75695 147.000
48.77689 163.000
48.79684 177.000
48.81679 148.000
48.83673 128.000
48.85668 116.000
48.87663 141.000
48.89658 122.000
48.91652 114.000
48.93647 103.000
48.95642 115.000
48.97636 110.000
48.99631 102.000
49.01626 103.000
49.03620 93.000
49.05615 90.000
49.07610 86.000
49.09605 84.000
49.11599 67.000
49.13594 97.000
49.15589 88.000
49.17583 88.000
49.19578 77.000
49.21573 95.000
49.23567 86.000
49.25562 93.000
49.27557 96.000
49.29551 81.000
49.31546 94.000
49.33541 78.000
49.35536 100.000
49.37530 86.000
49.39525 98.000
49.41520 95.000
49.43514 102.000
49.45509 101.000
49.47504 94.000
49.49498 91.000
49.51493 75.000
49.53488 77.000
49.55483 96.000
49.57477 77.000
49.59472 80.000
49.61467 104.000
49.63461 76.000
49.65456 80.000
49.67451 90.000
49.69445 91.000
49.71440 79.000
49.73435 92.000
49.75429 72.000
49.77424 86.000
49.79419 78.000
49.81414 76.000
49.83408 77.000
49.85403 95.000
49.87398 79.000
49.89392 73.000
49.91387 77.000
49.93382 86.000
49.95376 73.000
49.97371 89.000
49.99366 72.000
50.01361 77.000
50.03355 87.000
50.05350 79.000
50.07345 77.000
50.09339 96.000
50.11334 80.000
50.13329 66.000
50.15323 77.000
50.17318 83.000
50.19313 81.000
50.21307 79.000
50.23302 71.000
50.25297 79.000
50.27292 84.000
50.29286 75.000
50.31281 78.000
50.33276 79.000
50.35270 73.000
50.37265 68.000
50.39260 94.000
50.41254 88.000
50.43249 98.000
50.45244 74.000
50.47239 101.000
50.49233 80.000
50.51228 83.000
50.53223 71.000
50.55217 79.000
50.57212 86.000
50.59207 73.000
50.61201 70.000
50.63196 70.000
50.65191 97.000
50.67186 81.000
50.69180 76.000
50.71175 78.000
50.73170 70.000
50.75164 89.000
50.77159 67.000
50.79154 76.000
50.81148 91.000
50.83143 72.000
50.85138 63.000
50.87132 63.000
50.89127 71.000
50.91122 68.000
50.93117 92.000
50.95111 79.000
50.97106 71.000
50.99101 77.000
51.01095 66.000
51.03090 90.000
51.05085 79.000
51.07079 83.000
51.09074 76.000
51.11069 78.000
51.13064 97.000
51.15058 72.000
51.17053 73.000
51.19048 79.000
51.21042 70.000
51.23037 89.000
51.25032 68.000
51.27026 85.000
51.29021 87.000
51.31016 74.000
51.33010 71.000
51.35005 75.000
51.37000 75.000
51.38995 71.000
51.40989 97.000
51.42984 71.000
51.44979 84.000
51.46973 75.000
51.48968 61.000
51.50963 89.000
51.52957 69.000
51.54952 90.000
51.56947 87.000
51.58942 72.000
51.60936 73.000
51.62931 74.000
51.64926 86.000
51.66920 83.000
51.68915 75.000
51.70910 73.000
51.72904 73.000
51.74899 79.000
51.76894 78.000
51.78888 79.000
51.80883 52.000
51.82878 67.000
51.84873 76.000
51.86867 97.000
51.88862 66.000
51.90857 80.000
51.92851 95.000
51.94846 88.000
51.96841 70.000
51.98835 77.000
52.00830 99.000
52.02825 73.000
52.04820 71.000
52.06814 105.000
52.08809 86.000
52.10804 75.000
52.12798 74.000
52.14793 78.000
52.16788 79.000
52.18782 80.000
52.20777 91.000
52.22772 83.000
52.24767 74.000
52.26761 100.000
52.28756 88.000
52.30751 91.000
52.32745 91.000
52.34740 95.000
52.36735 91.000
52.38729 91.000
52.40724 84.000
52.42719 88.000
52.44713 89.000
52.46708 84.000
52.48703 72.000
52.50698 92.000
52.52692 87.000
52.54687 115.000
52.56682 108.000
52.58676 117.000
52.60671 113.000
52.62666 106.000
52.64660 111.000
52.66655 131.000
52.68650 136.000
52.70645 137.000
52.72639 167.000
52.74634 169.000
52.76629 219.000
52.78623 228.000
52.80618 257.000
52.82613 324.000
52.84607 408.000
52.86602 441.000
52.88597 456.000
52.90591 401.000
52.92586 289.000
52.94581 288.000
52.96576 283.000
52.98570 303.000
53.00565 274.000
53.02560 275.000
53.04554 233.000
53.06549 210.000
53.08544 187.000
53.10538 170.000
53.12533 161.000
53.14528 145.000
53.16523 140.000
53.18517 157.000
53.20512 132.000
53.22507 134.000
53.24501 117.000
53.26496 124.000
53.28491 112.000
53.30485 108.000
53.32480 101.000
53.34475 97.000
53.36469 103.000
53.38464 86.000
53.40459 123.000
53.42454 90.000
53.44448 115.000
53.46443 91.000
53.48438 109.000
53.50432 110.000
53.52427 96.000
53.54422 102.000
53.56416 104.000
53.58411 98.000
53.60406 87.000
53.62401 91.000
53.64395 99.000
53.66390 91.000
53.68385 94.000
53.70379 100.000
53.72374 95.000
53.74369 90.000
53.76363 98.000
53.78358 106.000
53.80353 96.000
53.82348 69.000
53.84342 97.000
53.86337 101.000
53.88332 90.000
53.90326 91.000
53.92321 88.000
53.94316 89.000
53.96310 77.000
53.98305 83.000
54.00300 97.000
54.02294 83.000
54.04289 89.000
54.06284 85.000
54.08279 77.000
54.10273 95.000
54.12268 91.000
54.14263 87.000
54.16257 71.000
54.18252 85.000
54.20247 74.000
54.22241 74.000
54.24236 72.000
54.26231 69.000
54.28226 82.000
54.30220 97.000
54.32215 80.000
54.34210 85.000
54.36204 74.000
54.38199 85.000
54.40194 75.000
54.42188 72.000
54.44183 75.000
54.46178 72.000
54.48172 81.000
54.50167 80.000
54.52162 83.000
54.54157 71.000
54.56151 85.000
54.58146 62.000
54.60141 87.000
54.62135 92.000
54.64130 79.000
54.66125 73.000
54.68119 97.000
54.70114 74.000
54.72109 90.000
54.74104 87.000
54.76098 65.000
54.78093 78.000
54.80088 80.000
54.82082 71.000
54.84077 83.000
54.86072 122.000
54.88066 77.000
54.90061 77.000
54.92056 75.000
54.94050 80.000
54.96045 86.000
54.98040 89.000
55.00035 81.000
55.02029 100.000
55.04024 82.000
55.06019 88.000
55.08013 74.000
55.10008 84.000
55.12003 71.000
55.13997 87.000
55.15992 66.000
55.17987 89.000
55.19982 74.000
55.21976 87.000
55.23971 75.000
55.25966 88.000
55.27960 89.000
55.29955 84.000
55.31950 75.000
55.33944 98.000
55.35939 83.000
55.37934 72.000
55.39929 89.000
55.41923 77.000
55.43918 99.000
55.45913 82.000
55.47907 88.000
55.49902 104.000
55.51897 65.000
55.53891 73.000
55.55886 72.000
55.57881 81.000
55.59875 63.000
55.61870 90.000
55.63865 94.000
55.65860 72.000
55.67854 82.000
55.69849 73.000
55.71844 84.000
55.73838 88.000
55.75833 85.000
55.77828 80.000
55.79822 82.000
55.81817 88.000
55.83812 85.000
55.85807 75.000
55.87801 87.000
55.89796 89.000
55.91791 93.000
55.93785 81.000
55.95780 96.000
55.97775 92.000
55.99769 74.000
56.01764 97.000
56.03759 94.000
56.05753 88.000
56.07748 85.000
56.09743 102.000
56.11738 88.000
56.13732 90.000
56.15727 96.000
56.17722 103.000
56.19716 98.000
56.21711 87.000
56.23706 105.000
56.25700 103.000
56.27695 87.000
56.29690 108.000
56.31685 94.000
56.33679 93.000
56.35674 100.000
56.37669 116.000
56.39663 112.000
56.41658 117.000
56.43653 117.000
56.45647 120.000
56.47642 112.000
56.49637 164.000
56.51631 136.000
56.53626 153.000
56.55621 179.000
56.57616 165.000
56.59610 188.000
56.61605 181.000
56.63600 178.000
56.65594 165.000
56.67589 182.000
56.69584 150.000
56.71578 188.000
56.73573 169.000
56.75568 168.000
56.77563 155.000
56.79557 134.000
56.81552 128.000
56.83547 143.000
56.85541 140.000
56.87536 128.000
56.89531 102.000
56.91525 109.000
56.93520 113.000
56.95515 97.000
56.97510 98.000
56.99504 110.000
57.01499 105.000
57.03494 104.000
57.05488 105.000
57.07483 107.000
57.09478 81.000
57.11472 97.000
57.13467 111.000
57.15462 105.000
57.17456 108.000
57.19451 123.000
57.21446 122.000
57.23441 126.000
57.25435 132.000
57.27430 122.000
57.29425 142.000
57.31419 138.000
57.33414 153.000
57.35409 175.000
57.37403 190.000
57.39398 195.000
57.41393 245.000
57.43388 235.000
57.45382 314.000
57.47377 362.000
57.49372 455.000
57.51366 500.000
57.53361 561.000
57.55356 599.000
57.57350 581.000
57.59345 499.000
57.61340 484.000
57.63334 357.000
57.65329 323.000
57.67324 351.000
57.69319 350.000
57.71313 372.000
57.73308 325.000
57.75303 291.000
57.77297 231.000
57.79292 181.000
57.81287 175.000
57.83281 152.000
57.85276 139.000
57.87271 116.000
57.89266 110.000
57.91260 95.000
57.93255 94.000
57.95250 90.000
57.97244 96.000
57.99239 80.000
58.01234 104.000
58.03228 98.000
58.05223 110.000
58.07218 104.000
58.09212 85.000
58.11207 95.000
58.13202 99.000
58.15197 92.000
58.17191 90.000
58.19186 84.000
58.21181 99.000
58.23175 121.000
58.25170 105.000
58.27165 100.000
58.29159 89.000
58.31154 111.000
58.33149 81.000
58.35144 99.000
58.37138 99.000
58.39133 89.000
58.41128 99.000
58.43122 92.000
58.45117 104.000
58.47112 107.000
58.49106 97.000
58.51101 88.000
58.53096 93.000
58.55090 81.000
58.57085 82.000
58.59080 74.000
58.61075 103.000
58.63069 99.000
58.65064 83.000
58.67059 83.000
58.69053 85.000
58.71048 80.000
58.73043 89.000
58.75037 76.000
58.77032 84.000
58.79027 81.000
58.81022 82.000
58.83016 95.000
58.85011 86.000
58.87006 76.000
58.89000 66.000
58.90995 73.000
58.92990 82.000
58.94984 86.000
58.96979 98.000
58.98974 76.000
59.00969 85.000
59.02963 80.000
59.04958 87.000
59.06953 65.000
59.08947 89.000
59.10942 99.000
59.12937 75.000
59.14931 105.000
59.16926 89.000
59.18921 100.000
59.20915 99.000
59.22910 96.000
59.24905 76.000
59.26900 81.000
59.28894 81.000
59.30889 84.000
59.32884 78.000
59.34878 94.000
59.36873 90.000
59.38868 75.000
59.40862 85.000
59.42857 86.000
59.44852 71.000
59.46847 89.000
59.48841 72.000
59.50836 97.000
59.52831 92.000
59.54825 73.000
59.56820 80.000
59.58815 83.000
59.60809 77.000
59.62804 78.000
59.64799 103.000
59.66793 93.000
59.68788 84.000
59.70783 76.000
59.72778 79.000
59.74772 89.000
59.76767 84.000
59.78762 87.000
59.80756 95.000
59.82751 81.000
59.84746 71.000
59.86740 81.000
59.88735 102.000
59.90730 85.000
59.92725 85.000
59.94719 85.000
59.96714 72.000
59.98709 87.000
60.00703 81.000
60.02698 82.000
60.04693 82.000
60.06687 86.000
60.08682 93.000
60.10677 70.000
60.12671 93.000
60.14666 99.000
60.16661 92.000
60.18656 98.000
60.20650 99.000
60.22645 76.000
60.24640 89.000
60.26634 99.000
60.28629 94.000
60.30624 79.000
60.32618 100.000
60.34613 96.000
60.36608 86.000
60.38603 91.000
60.40597 94.000
60.42592 121.000
60.44587 105.000
60.46581 106.000
60.48576 124.000
60.50571 100.000
60.52565 96.000
60.54560 98.000
60.56555 109.000
60.58550 106.000
60.60544 106.000
60.62539 105.000
60.64534 98.000
60.66528 94.000
60.68523 107.000
60.70518 102.000
60.72512 114.000
60.74507 100.000
60.76502 111.000
60.78496 94.000
60.80491 123.000
60.82486 91.000
60.84481 129.000
60.86475 101.000
60.88470 96.000
60.90465 105.000
60.92459 113.000
60.94454 103.000
60.96449 110.000
60.98443 113.000
61.00438 105.000
61.02433 112.000
61.04428 98.000
61.06422 94.000
61.08417 103.000
61.10412 115.000
61.12406 115.000
61.14401 99.000
61.16396 121.000
61.18390 115.000
61.20385 113.000
61.22380 111.000
61.24374 116.000
61.26369 113.000
61.28364 93.000
61.30359 104.000
61.32353 99.000
61.34348 123.000
61.36343 115.000
61.38337 121.000
61.40332 117.000
61.42327 126.000
61.44321 105.000
61.46316 130.000
61.48311 137.000
61.50306 144.000
61.52300 174.000
61.54295 178.000
61.56290 133.000
61.58284 147.000
61.60279 169.000
61.62274 124.000
61.64268 159.000
61.66263 164.000
61.68258 134.000
61.70252 173.000
61.72247 161.000
61.74242 146.000
61.76237 167.000
61.78231 165.000
61.80226 166.000
61.82221 177.000
61.84215 167.000
61.86210 162.000
61.88205 181.000
61.90199 203.000
61.92194 231.000
61.94189 242.000
61.96184 278.000
61.98178 327.000
62.00173 354.000
62.02168 366.000
62.04162 388.000
62.06157 405.000
62.08152 395.000
62.10146 415.000
62.12141 405.000
62.14136 448.000
62.16131 477.000
62.18125 439.000
62.20120 431.000
62.22115 430.000
62.24109 401.000
62.26104 384.000
62.28099 395.000
62.30093 398.000
62.32088 361.000
62.34083 324.000
62.36077 310.000
62.38072 253.000
62.40067 257.000
62.42062 214.000
62.44056 228.000
62.46051 228.000
62.48046 193.000
62.50040 170.000
62.52035 166.000
62.54030 139.000
62.56024 135.000
62.58019 149.000
62.60014 133.000
62.62009 122.000
62.64003 93.000
62.65998 147.000
62.67993 127.000
62.69987 131.000
62.71982 125.000
62.73977 110.000
62.75971 106.000
62.77966 116.000
62.79961 101.000
62.81955 101.000
62.83950 132.000
62.85945 112.000
62.87940 111.000
62.89934 103.000
62.91929 96.000
62.93924 109.000
62.95918 93.000
62.97913 91.000
62.99908 100.000
63.01902 93.000
63.03897 90.000
63.05892 92.000
63.07887 82.000
63.09881 79.000
63.11876 88.000
63.13871 78.000
63.15865 86.000
63.17860 79.000
63.19855 92.000
63.21849 103.000
63.23844 104.000
63.25839 93.000
63.27833 87.000
63.29828 78.000
63.31823 88.000
63.33818 71.000
63.35812 81.000
63.37807 71.000
63.39802 79.000
63.41796 82.000
63.43791 86.000
63.45786 80.000
63.47780 95.000
63.49775 75.000
63.51770 81.000
63.53765 87.000
63.55759 72.000
63.57754 97.000
63.59749 91.000
63.61743 102.000
63.63738 91.000
63.65733 103.000
63.67727 90.000
63.69722 68.000
63.71717 71.000
63.73712 72.000
63.75706 89.000
63.77701 75.000
63.79696 81.000
63.81690 97.000
63.83685 71.000
63.85680 92.000
63.87674 91.000
63.89669 70.000
63.91664 59.000
63.93658 75.000
63.95653 72.000
63.97648 91.000
63.99643 95.000
64.01637 85.000
64.03632 88.000
64.05627 89.000
64.07621 87.000
64.09616 82.000
64.11611 89.000
64.13605 100.000
64.15600 79.000
64.17595 76.000
64.19590 75.000
64.21584 96.000
64.23579 77.000
64.25574 83.000
64.27568 78.000
64.29563 81.000
64.31558 92.000
64.33552 111.000
64.35547 98.000
64.37542 87.000
64.39536 85.000
64.41531 91.000
64.43526 102.000
64.45521 96.000
64.47515 103.000
64.49510 111.000
64.51505 125.000
64.53499 122.000
64.55494 159.000
64.57489 149.000
64.59483 146.000
64.61478 205.000
64.63473 165.000
64.65468 161.000
64.67462 183.000
64.69457 165.000
64.71452 175.000
64.73446 197.000
64.75441 182.000
64.77436 185.000
64.79430 177.000
64.81425 157.000
64.83420 141.000
64.85414 179.000
64.87409 175.000
64.89404 157.000
64.91399 139.000
64.93393 157.000
64.95388 140.000
64.97383 143.000
64.99377 139.000
65.01372 138.000
65.03367 131.000
65.05361 117.000
65.07356 117.000
65.09351 121.000
65.11346 125.000
65.13340 103.000
65.15335 115.000
65.17330 104.000
65.19324 117.000
65.21319 103.000
65.23314 100.000
65.25308 88.000
65.27303 114.000
65.29298 122.000
65.31293 121.000
65.33287 121.000
65.35282 101.000
65.37277 94.000
65.39271 84.000
65.41266 105.000
65.43261 95.000
65.45255 86.000
65.47250 87.000
65.49245 117.000
65.51239 102.000
65.53234 96.000
65.55229 87.000
65.57224 107.000
65.59218 97.000
65.61213 76.000
65.63208 82.000
65.65202 116.000
65.67197 100.000
65.69192 112.000
65.71186 110.000
65.73181 92.000
65.75176 103.000
65.77171 103.000
65.79165 84.000
65.81160 111.000
65.83155 102.000
65.85149 75.000
65.87144 106.000
65.89139 88.000
65.91133 99.000
65.93128 96.000
65.95123 85.000
65.97117 82.000
65.99112 91.000
66.01107 100.000
66.03102 107.000
66.05096 99.000
66.07091 112.000
66.09086 86.000
66.11080 101.000
66.13075 106.000
66.15070 119.000
66.17064 120.000
66.19059 104.000
66.21054 104.000
66.23049 107.000
66.25043 121.000
66.27038 113.000
66.29033 102.000
66.31027 108.000
66.33022 103.000
66.35017 103.000
66.37011 97.000
66.39006 82.000
66.41001 90.000
66.42995 88.000
66.44990 88.000
66.46985 92.000
66.48980 95.000
66.50974 92.000
66.52969 88.000
66.54964 76.000
66.56958 97.000
66.58953 78.000
66.60948 74.000
66.62942 74.000
66.64937 75.000
66.66932 79.000
66.68927 94.000
66.70921 77.000
66.72916 90.000
66.74911 97.000
66.76905 72.000
66.78900 64.000
66.80895 92.000
66.82889 91.000
66.84884 87.000
66.86879 76.000
66.88874 84.000
66.90868 78.000
66.92863 76.000
66.94858 86.000
66.96852 84.000
66.98847 69.000
67.00842 92.000
67.02836 87.000
67.04831 77.000
67.06826 88.000
67.08820 78.000
67.10815 64.000
67.12810 75.000
67.14805 81.000
67.16799 76.000
67.18794 75.000
67.20789 75.000
67.22783 70.000
67.24778 79.000
67.26773 83.000
67.28767 83.000
67.30762 70.000
67.32757 81.000
67.34752 90.000
67.36746 91.000
67.38741 80.000
67.40736 99.000
67.42730 85.000
67.44725 102.000
67.46720 81.000
67.48714 95.000
67.50709 91.000
67.52704 98.000
67.54698 91.000
67.56693 81.000
67.58688 87.000
67.60683 108.000
67.62677 104.000
67.64672 104.000
67.66667 93.000
67.68661 99.000
67.70656 111.000
67.72651 119.000
67.74645 129.000
67.76640 130.000
67.78635 106.000
67.80630 140.000
67.82624 144.000
67.84619 145.000
67.86614 161.000
67.88608 203.000
67.90603 172.000
67.92598 179.000
67.94592 231.000
67.96587 183.000
67.98582 214.000
68.00576 196.000
68.02571 187.000
68.04566 188.000
68.06561 161.000
68.08555 172.000
68.10550 171.000
68.12545 176.000
68.14539 156.000
68.16534 167.000
68.18529 161.000
68.20523 116.000
68.22518 143.000
68.24513 129.000
68.26508 119.000
68.28502 114.000
68.30497 127.000
68.32492 116.000
68.34486 110.000
68.36481 98.000
68.38476 92.000
68.40470 80.000
68.42465 86.000
68.44460 96.000
68.46455 94.000
68.48449 79.000
68.50444 94.000
68.52439 96.000
68.54433 76.000
68.56428 93.000
68.58423 80.000
68.60417 79.000
68.62412 79.000
68.64407 82.000
68.66401 89.000
68.68396 91.000
68.70391 91.000
68.72386 93.000
68.74380 100.000
68.76375 76.000
68.78370 90.000
68.80364 94.000
68.82359 88.000
68.84354 116.000
68.86348 107.000
68.88343 89.000
68.90338 103.000
68.92333 101.000
68.94327 104.000
68.96322 113.000
68.98317 85.000
69.00311 112.000
69.02306 107.000
69.04301 114.000
69.06295 116.000
69.08290 114.000
69.10285 107.000
69.12279 123.000
69.14274 113.000
69.16269 107.000
69.18264 113.000
69.20258 115.000
69.22253 114.000
69.24248 124.000
69.26242 111.000
69.28237 84.000
69.30232 108.000
69.32226 103.000
69.34221 101.000
69.36216 112.000
69.38211 90.000
69.40205 76.000
69.42200 99.000
69.44195 88.000
69.46189 111.000
69.48184 86.000
69.50179 100.000
69.52173 87.000
69.54168 82.000
69.56163 90.000
69.58157 66.000
69.60152 78.000
69.62147 70.000
69.64142 71.000
69.66136 73.000
69.68131 79.000
69.70126 84.000
69.72120 94.000
69.74115 79.000
69.76110 82.000
69.78104 75.000
69.80099 63.000
69.82094 94.000
69.84089 89.000
69.86083 70.000
69.88078 67.000
69.90073 88.000
69.92067 76.000
69.94062 72.000
69.96057 72.000
69.98051 73.000
70.00046 76.000
70.02041 85.000
70.04035 85.000
70.06030 62.000
70.08025 79.000
70.10020 78.000
70.12014 82.000
70.14009 64.000
70.16004 70.000
70.17998 59.000
70.19993 87.000
70.21988 87.000
70.23982 68.000
70.25977 85.000
70.27972 82.000
70.29967 80.000
70.31961 80.000
70.33956 92.000
70.35951 68.000
70.37945 91.000
70.39940 100.000
70.41935 90.000
70.43929 76.000
70.45924 80.000
70.47919 75.000
70.49914 89.000
70.51908 104.000
70.53903 84.000
70.55898 85.000
70.57892 58.000
70.59887 72.000
70.61882 84.000
70.63876 80.000
70.65871 83.000
70.67866 74.000
70.69860 93.000
70.71855 77.000
70.73850 67.000
70.75845 77.000
70.77839 79.000
70.79834 67.000
70.81829 78.000
70.83823 85.000
70.85818 84.000
70.87813 64.000
70.89807 74.000
70.91802 70.000
70.93797 77.000
70.95792 84.000
70.97786 78.000
70.99781 78.000
71.01776 66.000
71.03770 84.000
71.05765 94.000
71.07760 71.000
71.09754 71.000
71.11749 86.000
71.13744 71.000
71.15738 87.000
71.17733 67.000
71.19728 82.000
71.21723 80.000
71.23717 75.000
71.25712 57.000
71.27707 79.000
71.29701 73.000
71.31696 76.000
71.33691 78.000
71.35685 79.000
71.37680 91.000
71.39675 81.000
71.41670 107.000
71.43664 84.000
71.45659 81.000
71.47654 76.000
71.49648 85.000
71.51643 67.000
71.53638 79.000
71.55632 88.000
71.57627 69.000
71.59622 83.000
71.61616 87.000
71.63611 87.000
71.65606 94.000
71.67601 79.000
71.69595 84.000
71.71590 77.000
71.73585 91.000
71.75579 83.000
71.77574 87.000
71.79569 84.000
71.81563 76.000
71.83558 72.000
71.85553 97.000
71.87548 101.000
71.89542 102.000
71.91537 92.000
71.93532 108.000
71.95526 106.000
71.97521 113.000
71.99516 114.000
72.01510 130.000
72.03505 123.000
72.05500 162.000
72.07495 168.000
72.09489 196.000
72.11484 166.000
72.13479 201.000
72.15473 174.000
72.17468 189.000
72.19463 152.000
72.21457 186.000
72.23452 154.000
72.25447 159.000
72.27441 150.000
72.29436 158.000
72.31431 123.000
72.33426 166.000
72.35420 163.000
72.37415 154.000
72.39410 153.000
72.41404 152.000
72.43399 124.000
72.45394 142.000
72.47388 105.000
72.49383 112.000
72.51378 108.000
72.53373 113.000
72.55367 120.000
72.57362 109.000
72.59357 110.000
72.61351 101.000
72.63346 94.000
72.65341 97.000
72.67335 80.000
72.69330 89.000
72.71325 91.000
72.73319 105.000
72.75314 76.000
72.77309 93.000
72.79304 85.000
72.81298 78.000
72.83293 78.000
72.85288 79.000
72.87282 79.000
72.89277 95.000
72.91272 83.000
72.93266 101.000
72.95261 84.000
72.97256 105.000
72.99251 71.000
73.01245 85.000
73.03240 84.000
73.05235 101.000
73.07229 93.000
73.09224 102.000
73.11219 91.000
73.13213 108.000
73.15208 97.000
73.17203 103.000
73.19197 109.000
73.21192 115.000
73.23187 110.000
73.25182 106.000
73.27176 99.000
73.29171 107.000
73.31166 122.000
73.33160 120.000
73.35155 114.000
73.37150 129.000
73.39144 135.000
73.41139 116.000
73.43134 128.000
73.45129 147.000
73.47123 140.000
73.49118 177.000
73.51113 153.000
73.53107 170.000
73.55102 143.000
73.57097 155.000
73.59091 159.000
73.61086 174.000
73.63081 147.000
73.65076 144.000
73.67070 174.000
73.69065 167.000
73.71060 177.000
73.73054 144.000
73.75049 155.000
73.77044 138.000
73.79038 130.000
73.81033 120.000
73.83028 125.000
73.85022 112.000
73.87017 129.000
73.89012 115.000
73.91007 130.000
73.93001 104.000
73.94996 111.000
73.96991 101.000
73.98985 102.000
74.00980 102.000
74.02975 105.000
74.04969 94.000
74.06964 105.000
74.08959 103.000
74.10954 109.000
74.12948 106.000
74.14943 100.000
74.16938 110.000
74.18932 104.000
74.20927 96.000
74.22922 130.000
74.24916 104.000
74.26911 133.000
74.28906 113.000
74.30900 100.000
74.32895 112.000
74.34890 114.000
74.36885 102.000
74.38879 94.000
74.40874 98.000
74.42869 107.000
74.44863 94.000
74.46858 88.000
74.48853 111.000
74.50847 99.000
74.52842 91.000
74.54837 99.000
74.56832 96.000
74.58826 108.000
74.60821 87.000
74.62816 97.000
74.64810 100.000
74.66805 85.000
74.68800 94.000
74.70794 90.000
74.72789 105.000
74.74784 99.000
74.76778 91.000
74.78773 111.000
74.80768 91.000
74.82763 85.000
74.84757 78.000
74.86752 83.000
74.88747 83.000
74.90741 91.000
74.92736 96.000
74.94731 88.000
74.96725 104.000
74.98720 97.000
75.00715 100.000
75.02710 85.000
75.04704 88.000
75.06699 86.000
75.08694 98.000
75.10688 91.000
75.12683 80.000
75.14678 90.000
75.16672 111.000
75.18667 90.000
75.20662 93.000
75.22657 95.000
75.24651 99.000
75.26646 76.000
75.28641 89.000
75.30635 89.000
75.32630 87.000
75.34625 92.000
75.36619 79.000
75.38614 80.000
75.40609 91.000
75.42603 97.000
75.44598 74.000
75.46593 88.000
75.48588 86.000
75.50582 84.000
75.52577 82.000
75.54572 91.000
75.56566 81.000
75.58561 66.000
75.60556 67.000
75.62550 75.000
75.64545 72.000
75.66540 76.000
75.68535 66.000
75.70529 80.000
75.72524 75.000
75.74519 89.000
75.76513 77.000
75.78508 78.000
75.80503 70.000
75.82497 72.000
75.84492 78.000
75.86487 70.000
75.88481 73.000
75.90476 81.000
75.92471 50.000
75.94466 73.000
75.96460 72.000
75.98455 73.000
76.00450 72.000
76.02444 74.000
76.04439 64.000
76.06434 77.000
76.08428 56.000
76.10423 87.000
76.12418 78.000
76.14413 74.000
76.16407 61.000
76.18402 82.000
76.20397 74.000
76.22391 62.000
76.24386 68.000
76.26381 72.000
76.28375 72.000
76.30370 70.000
76.32365 75.000
76.34359 64.000
76.36354 85.000
76.38349 73.000
76.40344 85.000
76.42338 84.000
76.44333 74.000
76.46328 87.000
76.48322 76.000
76.50317 81.000
76.52312 83.000
76.54306 93.000
76.56301 93.000
76.58296 68.000
76.60291 83.000
76.62285 82.000
76.64280 82.000
76.66275 73.000
76.68269 70.000
76.70264 69.000
76.72259 69.000
76.74253 82.000
76.76248 77.000
76.78243 71.000
76.80238 69.000
76.82232 73.000
76.84227 86.000
76.86222 73.000
76.88216 85.000
76.90211 94.000
76.92206 74.000
76.94200 92.000
76.96195 91.000
76.98190 78.000
77.00184 81.000
77.02179 80.000
77.04174 93.000
77.06169 102.000
77.08163 92.000
77.10158 89.000
77.12153 109.000
77.14147 121.000
77.16142 115.000
77.18137 111.000
77.20131 121.000
77.22126 121.000
77.24121 150.000
77.26116 147.000
77.28110 139.000
77.30105 130.000
77.32100 155.000
77.34094 182.000
77.36089 138.000
77.38084 156.000
77.40078 147.000
77.42073 159.000
77.44068 152.000
77.46062 172.000
77.48057 131.000
77.50052 173.000
77.52047 141.000
77.54041 124.000
77.56036 160.000
77.58031 153.000
77.60025 142.000
77.62020 139.000
77.64015 137.000
77.66009 136.000
77.68004 136.000
77.69999 110.000
77.71994 110.000
77.73988 104.000
77.75983 110.000
77.77978 113.000
77.79972 110.000
77.81967 104.000
77.83962 85.000
77.85956 88.000
77.87951 87.000
77.89946 90.000
77.91940 84.000
77.93935 80.000
77.95930 101.000
77.97925 74.000
77.99919 79.000
78.01914 86.000
78.03909 76.000
78.05903 78.000
78.07898 81.000
78.09893 80.000
78.11887 92.000
78.13882 85.000
78.15877 89.000
78.17872 89.000
78.19866 86.000
78.21861 95.000
78.23856 76.000
78.25850 71.000
78.27845 81.000
78.29840 61.000
78.31834 85.000
78.33829 92.000
78.35824 85.000
78.37819 81.000
78.39813 74.000
78.41808 66.000
78.43803 79.000
78.45797 74.000
78.47792 87.000
78.49787 74.000
78.51781 80.000
78.53776 80.000
78.55771 78.000
78.57765 95.000
78.59760 70.000
78.61755 89.000
78.63750 97.000
78.65744 81.000
78.67739 73.000
78.69734 77.000
78.71728 72.000
78.73723 70.000
78.75718 65.000
78.77712 73.000
78.79707 68.000
78.81702 69.000
78.83697 71.000
78.85691 82.000
78.87686 67.000
78.89681 78.000
78.91675 63.000
78.93670 68.000
78.95665 59.000
78.97659 84.000
78.99654 58.000
79.01649 60.000
79.03643 75.000
79.05638 82.000
79.07633 77.000
79.09628 60.000
79.11622 72.000
79.13617 64.000
79.15612 64.000
79.17606 79.000
79.19601 63.000
79.21596 86.000
79.23590 78.000
79.25585 67.000
79.27580 72.000
79.29575 66.000
79.31569 69.000
79.33564 75.000
79.35559 78.000
79.37553 69.000
79.39548 93.000
79.41543 74.000
79.43537 76.000
79.45532 63.000
79.47527 84.000
79.49521 64.000
79.51516 82.000
79.53511 80.000
79.55506 79.000
79.57500 85.000
79.59495 86.000
79.61490 66.000
79.63484 81.000
79.65479 81.000
79.67474 73.000
79.69468 75.000
79.71463 85.000
79.73458 86.000
79.75453 75.000
79.77447 92.000
79.79442 79.000
79.81437 85.000
79.83431 83.000
79.85426 47.000
79.87421 71.000
79.89415 84.000
79.91410 56.000
79.93405 68.000
79.95399 75.000
79.97394 75.000
79.99389 94.000
80.01384 60.000
80.03378 80.000
80.05373 79.000
80.07368 85.000
80.09362 75.000
80.11357 61.000
80.13352 92.000
80.15346 80.000
80.17341 80.000
80.19336 74.000
80.21331 78.000
80.23325 70.000
80.25320 67.000
80.27315 87.000
80.29309 74.000
80.31304 78.000
80.33299 76.000
80.35293 84.000
80.37288 68.000
80.39283 70.000
80.41278 74.000
80.43272 79.000
80.45267 72.000
80.47262 80.000
80.49256 74.000
80.51251 73.000
80.53246 66.000
80.55240 73.000
80.57235 76.000
80.59230 73.000
80.61224 65.000
80.63219 66.000
80.65214 90.000
80.67209 74.000
80.69203 57.000
80.71198 76.000
80.73193 64.000
80.75187 55.000
80.77182 72.000
80.79177 72.000
80.81171 61.000
80.83166 64.000
80.85161 71.000
80.87156 69.000
80.89150 77.000
80.91145 54.000
80.93140 71.000
80.95134 55.000
80.97129 76.000
80.99124 74.000
81.01118 83.000
81.03113 75.000
81.05108 65.000
81.07102 74.000
81.09097 84.000
81.11092 77.000
81.13087 96.000
81.15081 85.000
81.17076 74.000
81.19071 78.000
81.21065 95.000
81.23060 56.000
81.25055 70.000
81.27049 84.000
81.29044 81.000
81.31039 86.000
81.33034 88.000
81.35028 80.000
81.37023 75.000
81.39018 83.000
81.41012 89.000
81.43007 77.000
81.45002 76.000
81.46996 71.000
81.48991 81.000
81.50986 83.000
81.52980 70.000
81.54975 88.000
81.56970 79.000
81.58965 74.000
81.60959 69.000
81.62954 75.000
81.64949 66.000
81.66943 85.000
81.68938 77.000
81.70933 75.000
81.72927 81.000
81.74922 65.000
81.76917 74.000
81.78912 64.000
81.80906 84.000
81.82901 67.000
81.84896 83.000
81.86890 78.000
81.88885 65.000
81.90880 71.000
81.92874 61.000
81.94869 74.000
81.96864 65.000
81.98859 82.000
82.00853 70.000
82.02848 62.000
82.04843 69.000
82.06837 63.000
82.08832 85.000
82.10827 67.000
82.12821 72.000
82.14816 65.000
82.16811 82.000
82.18805 86.000
82.20800 90.000
82.22795 96.000
82.24790 76.000
82.26784 58.000
82.28779 82.000
82.30774 77.000
82.32768 72.000
82.34763 82.000
82.36758 74.000
82.38752 83.000
82.40747 77.000
82.42742 92.000
82.44737 67.000
82.46731 78.000
82.48726 71.000
82.50721 85.000
82.52715 78.000
82.54710 94.000
82.56705 73.000
82.58699 74.000
82.60694 83.000
82.62689 61.000
82.64683 66.000
82.66678 74.000
82.68673 67.000
82.70668 75.000
82.72662 72.000
82.74657 82.000
82.76652 69.000
82.78646 90.000
82.80641 69.000
82.82636 79.000
82.84630 69.000
82.86625 77.000
82.88620 68.000
82.90615 71.000
82.92609 74.000
82.94604 82.000
82.96599 77.000
82.98593 72.000
83.00588 78.000
83.02583 65.000
83.04577 80.000
83.06572 67.000
83.08567 58.000
83.10561 69.000
83.12556 58.000
83.14551 68.000
83.16546 91.000
83.18540 82.000
83.20535 61.000
83.22530 70.000
83.24524 76.000
83.26519 70.000
83.28514 81.000
83.30508 87.000
83.32503 81.000
83.34498 76.000
83.36493 71.000
83.38487 79.000
83.40482 79.000
83.42477 91.000
83.44471 77.000
83.46466 80.000
83.48461 78.000
83.50455 76.000
83.52450 88.000
83.54445 86.000
83.56440 84.000
83.58434 65.000
83.60429 85.000
83.62424 74.000
83.64418 104.000
83.66413 75.000
83.68408 83.000
83.70402 91.000
83.72397 80.000
83.74392 83.000
83.76386 80.000
83.78381 76.000
83.80376 76.000
83.82371 87.000
83.84365 82.000
83.86360 83.000
83.88355 78.000
83.90349 96.000
83.92344 84.000
83.94339 76.000
83.96333 75.000
83.98328 92.000
84.00323 79.000
84.02318 79.000
84.04312 81.000
84.06307 86.000
84.08302 79.000
84.10296 74.000
84.12291 71.000
84.14286 67.000
84.16280 83.000
84.18275 75.000
84.20270 64.000
84.22264 80.000
84.24259 65.000
84.26254 62.000
84.28249 76.000
84.30243 77.000
84.32238 82.000
84.34233 63.000
84.36227 84.000
84.38222 74.000
84.40217 78.000
84.42211 75.000
84.44206 78.000
84.46201 69.000
84.48196 85.000
84.50190 74.000
84.52185 56.000
84.54180 73.000
84.56174 77.000
84.58169 80.000
84.60164 67.000
84.62158 65.000
84.64153 56.000
84.66148 81.000
84.68142 67.000
84.70137 69.000
84.72132 70.000
84.74127 83.000
84.76121 64.000
84.78116 71.000
84.80111 80.000
84.82105 90.000
84.84100 87.000
84.86095 59.000
84.88089 76.000
84.90084 76.000
84.92079 70.000
84.94074 49.000
84.96068 68.000
84.98063 72.000
85.00058 76.000
85.02052 71.000
85.04047 71.000
85.06042 65.000
85.08036 55.000
85.10031 74.000
85.12026 78.000
85.14021 57.000
85.16015 70.000
85.18010 78.000
85.20005 77.000
85.21999 71.000
85.23994 61.000
85.25989 65.000
85.27983 91.000
85.29978 81.000
85.31973 87.000
85.33967 72.000
85.35962 57.000
85.37957 72.000
85.39952 66.000
85.41946 53.000
85.43941 79.000
85.45936 71.000
85.47930 94.000
85.49925 63.000
85.51920 80.000
85.53914 76.000
85.55909 66.000
85.57904 78.000
85.59899 78.000
85.61893 66.000
85.63888 71.000
85.65883 71.000
85.67877 68.000
85.69872 76.000
85.71867 89.000
85.73861 84.000
85.75856 88.000
85.77851 88.000
85.79845 94.000
85.81840 90.000
85.83835 93.000
85.85830 91.000
85.87824 98.000
85.89819 94.000
85.91814 112.000
85.93808 110.000
85.95803 102.000
85.97798 85.000
85.99792 107.000
86.01787 102.000
86.03782 95.000
86.05777 107.000
86.07771 107.000
86.09766 103.000
86.11761 93.000
86.13755 109.000
86.15750 94.000
86.17745 85.000
86.19739 109.000
86.21734 95.000
86.23729 102.000
86.25723 107.000
86.27718 82.000
86.29713 94.000
86.31708 85.000
86.33702 85.000
86.35697 81.000
86.37692 102.000
86.39686 83.000
86.41681 75.000
86.43676 79.000
86.45670 86.000
86.47665 84.000
86.49660 77.000
86.51655 73.000
86.53649 69.000
86.55644 54.000
86.57639 101.000
86.59633 107.000
86.61628 66.000
86.63623 78.000
86.65617 83.000
86.67612 82.000
86.69607 64.000
86.71602 69.000
86.73596 88.000
86.75591 78.000
86.77586 76.000
86.79580 74.000
86.81575 76.000
86.83570 76.000
86.85564 57.000
86.87559 64.000
86.89554 89.000
86.91548 65.000
86.93543 75.000
86.95538 81.000
86.97533 68.000
86.99527 73.000
87.01522 75.000
87.03517 75.000
87.05511 64.000
87.07506 63.000
87.09501 78.000
87.11495 59.000
87.13490 54.000
87.15485 78.000
87.17480 85.000
87.19474 66.000
87.21469 75.000
87.23464 80.000
87.25458 81.000
87.27453 55.000
87.29448 73.000
87.31442 84.000
87.33437 72.000
87.35432 74.000
87.37426 71.000
87.39421 63.000
87.41416 81.000
87.43411 71.000
87.45405 54.000
87.47400 80.000
87.49395 65.000
87.51389 45.000
87.53384 85.000
87.55379 67.000
87.57373 77.000
87.59368 65.000
87.61363 65.000
87.63358 60.000
87.65352 72.000
87.67347 58.000
87.69342 71.000
87.71336 81.000
87.73331 78.000
87.75326 63.000
87.77320 78.000
87.79315 73.000
87.81310 65.000
87.83304 67.000
87.85299 60.000
87.87294 86.000
87.89289 73.000
87.91283 82.000
87.93278 66.000
87.95273 67.000
87.97267 63.000
87.99262 72.000
88.01257 68.000
88.03251 72.000
88.05246 73.000
88.07241 62.000
88.09236 65.000
88.11230 81.000
88.13225 70.000
88.15220 80.000
88.17214 79.000
88.19209 78.000
88.21204 66.000
88.23198 65.000
88.25193 67.000
88.27188 68.000
88.29183 77.000
88.31177 66.000
88.33172 60.000
88.35167 76.000
88.37161 76.000
88.39156 55.000
88.41151 70.000
88.43145 78.000
88.45140 78.000
88.47135 92.000
88.49129 87.000
88.51124 111.000
88.53119 61.000
88.55114 69.000
88.57108 73.000
88.59103 76.000
88.61098 97.000
88.63092 86.000
88.65087 66.000
88.67082 88.000
88.69076 85.000
88.71071 77.000
88.73066 89.000
88.75061 109.000
88.77055 72.000
88.79050 94.000
88.81045 87.000
88.83039 89.000
88.85034 87.000
88.87029 84.000
88.89023 98.000
88.91018 89.000
88.93013 102.000
88.95007 94.000
88.97002 88.000
88.98997 114.000
89.00992 81.000
89.02986 97.000
89.04981 90.000
89.06976 93.000
89.08970 76.000
89.10965 82.000
89.12960 105.000
89.14954 112.000
89.16949 114.000
89.18944 105.000
89.20939 76.000
89.22933 93.000
89.24928 96.000
89.26923 92.000
89.28917 100.000
89.30912 100.000
89.32907 83.000
89.34901 82.000
89.36896 85.000
89.38891 83.000
89.40885 97.000
89.42880 64.000
89.44875 89.000
89.46870 95.000
89.48864 101.000
89.50859 79.000
89.52854 102.000
89.54848 101.000
89.56843 103.000
89.58838 109.000
89.60832 84.000
89.62827 94.000
89.64822 111.000
89.66817 121.000
89.68811 124.000
89.70806 146.000
89.72801 126.000
89.74795 118.000
89.76790 117.000
89.78785 142.000
89.80779 112.000
89.82774 104.000
89.84769 121.000
89.86764 106.000
89.88758 140.000
89.90753 120.000
89.92748 135.000
89.94742 109.000
89.96737 98.000
89.98732 94.000
90.00726 115.000
