10.00000 177.000
10.01995 138.000
10.03989 171.000
10.05984 151.000
10.07979 178.000
10.09973 142.000
10.11968 170.000
10.13963 196.000
10.15958 183.000
10.17952 174.000
10.19947 161.000
10.21942 179.000
10.23936 174.000
10.25931 166.000
10.27926 199.000
10.29920 184.000
10.31915 162.000
10.33910 172.000
10.35905 181.000
10.37899 171.000
10.39894 156.000
10.41889 160.000
10.43883 193.000
10.45878 159.000
10.47873 169.000
10.49867 178.000
10.51862 189.000
10.53857 151.000
10.55851 174.000
10.57846 192.000
10.59841 186.000
10.61836 173.000
10.63830 163.000
10.65825 158.000
10.67820 180.000
10.69814 171.000
10.71809 162.000
10.73804 181.000
10.75798 157.000
10.77793 200.000
10.79788 181.000
10.81783 164.000
10.83777 167.000
10.85772 162.000
10.87767 179.000
10.89761 171.000
10.91756 173.000
10.93751 173.000
10.95745 154.000
10.97740 177.000
10.99735 173.000
11.01730 155.000
11.03724 182.000
11.05719 150.000
11.07714 206.000
11.09708 160.000
11.11703 160.000
11.13698 200.000
11.15692 168.000
11.17687 187.000
11.19682 187.000
11.21676 188.000
11.23671 188.000
11.25666 155.000
11.27661 178.000
11.29655 185.000
11.31650 170.000
11.33645 177.000
11.35639 153.000
11.37634 163.000
11.39629 146.000
11.41623 174.000
11.43618 162.000
11.45613 179.000
11.47608 170.000
11.49602 168.000
11.51597 171.000
11.53592 185.000
11.55586 167.000
11.57581 158.000
11.59576 166.000
11.61570 192.000
11.63565 147.000
11.65560 157.000
11.67554 177.000
11.69549 167.000
11.71544 160.000
11.73539 167.000
11.75533 155.000
11.77528 162.000
11.79523 189.000
11.81517 159.000
11.83512 190.000
11.85507 200.000
11.87501 147.000
11.89496 176.000
11.91491 170.000
11.93486 184.000
11.95480 181.000
11.97475 152.000
11.99470 155.000
12.01464 178.000
12.03459 161.000
12.05454 152.000
12.07448 182.000
12.09443 176.000
12.11438 181.000
12.13432 191.000
12.15427 188.000
12.17422 162.000
12.19417 177.000
12.21411 156.000
12.23406 161.000
12.25401 177.000
12.27395 176.000
12.29390 173.000
12.31385 164.000
12.33379 157.000
12.35374 174.000
12.37369 189.000
12.39364 192.000
12.41358 184.000
12.43353 180.000
12.45348 175.000
12.47342 168.000
12.49337 150.000
12.51332 167.000
12.53326 152.000
12.55321 179.000
12.57316 151.000
12.59311 156.000
12.61305 176.000
12.63300 186.000
12.65295 185.000
12.67289 173.000
12.69284 174.000
12.71279 145.000
12.73273 186.000
12.75268 178.000
12.77263 200.000
12.79257 181.000
12.81252 170.000
12.83247 178.000
12.85242 165.000
12.87236 176.000
12.89231 168.000
12.91226 161.000
12.93220 164.000
12.95215 182.000
12.97210 167.000
12.99204 174.000
13.01199 169.000
13.03194 171.000
13.05189 194.000
13.07183 164.000
13.09178 190.000
13.11173 195.000
13.13167 162.000
13.15162 177.000
13.17157 174.000
13.19151 158.000
13.21146 176.000
13.23141 163.000
13.25135 155.000
13.27130 168.000
13.29125 200.000
13.31120 151.000
13.33114 186.000
13.35109 172.000
13.37104 183.000
13.39098 180.000
13.41093 161.000
13.43088 197.000
13.45082 179.000
13.47077 183.000
13.49072 189.000
13.51067 188.000
13.53061 173.000
13.55056 155.000
13.57051 191.000
13.59045 168.000
13.61040 153.000
13.63035 163.000
13.65029 172.000
13.67024 157.000
13.69019 155.000
13.71013 197.000
13.73008 176.000
13.75003 167.000
13.76998 194.000
13.78992 163.000
13.80987 166.000
13.82982 177.000
13.84976 164.000
13.86971 157.000
13.88966 188.000
13.90960 180.000
13.92955 184.000
13.94950 187.000
13.96945 172.000
13.98939 163.000
14.00934 199.000
14.02929 167.000
14.04923 155.000
14.06918 158.000
14.08913 182.000
14.10907 166.000
14.12902 170.000
14.14897 159.000
14.16892 184.000
14.18886 163.000
14.20881 181.000
14.22876 180.000
14.24870 183.000
14.26865 189.000
14.28860 184.000
14.30854 157.000
14.32849 161.000
14.34844 191.000
14.36838 170.000
14.38833 182.000
14.40828 158.000
14.42823 199.000
14.44817 181.000
14.46812 166.000
14.48807 209.000
14.50801 165.000
14.52796 147.000
14.54791 172.000
14.56785 158.000
14.58780 200.000
14.60775 185.000
14.62770 168.000
14.64764 165.000
14.66759 184.000
14.68754 182.000
14.70748 163.000
14.72743 163.000
14.74738 160.000
14.76732 157.000
14.78727 181.000
14.80722 149.000
14.82716 170.000
14.84711 177.000
14.86706 177.000
14.88701 142.000
14.90695 166.000
14.92690 170.000
14.94685 172.000
14.96679 175.000
14.98674 188.000
15.00669 163.000
15.02663 171.000
15.04658 185.000
15.06653 163.000
15.08648 162.000
15.10642 166.000
15.12637 146.000
15.14632 205.000
15.16626 164.000
15.18621 171.000
15.20616 193.000
15.22610 172.000
15.24605 198.000
15.26600 159.000
15.28594 196.000
15.30589 193.000
15.32584 186.000
15.34579 184.000
15.36573 154.000
15.38568 166.000
15.40563 165.000
15.42557 185.000
15.44552 172.000
15.46547 190.000
15.48541 173.000
15.50536 182.000
15.52531 188.000
15.54526 190.000
15.56520 166.000
15.58515 174.000
15.60510 178.000
15.62504 196.000
15.64499 213.000
15.66494 195.000
15.68488 197.000
15.70483 218.000
15.72478 198.000
15.74472 219.000
15.76467 235.000
15.78462 274.000
15.80457 255.000
15.82451 298.000
15.84446 360.000
15.86441 406.000
15.88435 389.000
15.90430 385.000
15.92425 347.000
15.94419 354.000
15.96414 281.000
15.98409 292.000
16.00404 311.000
16.02398 324.000
16.04393 385.000
16.06388 394.000
16.08382 457.000
16.10377 495.000
16.12372 563.000
16.14366 521.000
16.16361 569.000
16.18356 637.000
16.20351 616.000
16.22345 620.000
16.24340 615.000
16.26335 581.000
16.28329 596.000
16.30324 645.000
16.32319 662.000
16.34313 626.000
16.36308 662.000
16.38303 673.000
16.40297 712.000
16.42292 737.000
16.44287 633.000
16.46282 588.000
16.48276 520.000
16.50271 413.000
16.52266 325.000
16.54260 266.000
16.56255 249.000
16.58250 218.000
16.60244 167.000
16.62239 220.000
16.64234 204.000
16.66229 184.000
16.68223 188.000
16.70218 185.000
16.72213 184.000
16.74207 192.000
16.76202 182.000
16.78197 193.000
16.80191 190.000
16.82186 182.000
16.84181 185.000
16.86175 177.000
16.88170 176.000
16.90165 177.000
16.92160 183.000
16.94154 179.000
16.96149 189.000
16.98144 181.000
17.00138 180.000
17.02133 190.000
17.04128 173.000
17.06122 160.000
17.08117 157.000
17.10112 208.000
17.12107 188.000
17.14101 156.000
17.16096 200.000
17.18091 169.000
17.20085 150.000
17.22080 172.000
17.24075 170.000
17.26069 165.000
17.28064 175.000
17.30059 191.000
17.32053 180.000
17.34048 168.000
17.36043 176.000
17.38038 170.000
17.40032 170.000
17.42027 165.000
17.44022 183.000
17.46016 172.000
17.48011 192.000
17.50006 167.000
17.52000 175.000
17.53995 152.000
17.55990 172.000
17.57985 185.000
17.59979 176.000
17.61974 202.000
17.63969 163.000
17.65963 167.000
17.67958 146.000
17.69953 178.000
17.71947 185.000
17.73942 179.000
17.75937 187.000
17.77932 189.000
17.79926 164.000
17.81921 191.000
17.83916 163.000
17.85910 174.000
17.87905 185.000
17.89900 191.000
17.91894 203.000
17.93889 153.000
17.95884 175.000
17.97878 189.000
17.99873 171.000
18.01868 168.000
18.03863 170.000
18.05857 178.000
18.07852 178.000
18.09847 164.000
18.11841 165.000
18.13836 191.000
18.15831 196.000
18.17825 164.000
18.19820 178.000
18.21815 192.000
18.23810 176.000
18.25804 169.000
18.27799 226.000
18.29794 220.000
18.31788 251.000
18.33783 255.000
18.35778 333.000
18.37772 330.000
18.39767 355.000
18.41762 369.000
18.43756 369.000
18.45751 319.000
18.47746 263.000
18.49741 226.000
18.51735 178.000
18.53730 207.000
18.55725 186.000
18.57719 189.000
18.59714 185.000
18.61709 189.000
18.63703 168.000
18.65698 173.000
18.67693 175.000
18.69688 176.000
18.71682 164.000
18.73677 184.000
18.75672 158.000
18.77666 165.000
18.79661 181.000
18.81656 181.000
18.83650 134.000
18.85645 188.000
18.87640 164.000
18.89634 168.000
18.91629 177.000
18.93624 175.000
18.95619 181.000
18.97613 158.000
18.99608 171.000
19.01603 192.000
19.03597 178.000
19.05592 157.000
19.07587 172.000
19.09581 182.000
19.11576 150.000
19.13571 171.000
19.15566 155.000
19.17560 201.000
19.19555 183.000
19.21550 166.000
19.23544 182.000
19.25539 173.000
19.27534 176.000
19.29528 197.000
19.31523 179.000
19.33518 148.000
19.35513 180.000
19.37507 162.000
19.39502 168.000
19.41497 168.000
19.43491 202.000
19.45486 171.000
19.47481 178.000
19.49475 177.000
19.51470 157.000
19.53465 162.000
19.55459 193.000
19.57454 187.000
19.59449 147.000
19.61444 181.000
19.63438 189.000
19.65433 160.000
19.67428 158.000
19.69422 174.000
19.71417 186.000
19.73412 185.000
19.75406 175.000
19.77401 161.000
19.79396 181.000
19.81391 170.000
19.83385 156.000
19.85380 193.000
19.87375 180.000
19.89369 170.000
19.91364 169.000
19.93359 164.000
19.95353 171.000
19.97348 171.000
19.99343 181.000
20.01337 166.000
20.03332 173.000
20.05327 206.000
20.07322 158.000
20.09316 188.000
20.11311 188.000
20.13306 177.000
20.15300 170.000
20.17295 192.000
20.19290 161.000
20.21284 180.000
20.23279 196.000
20.25274 177.000
20.27269 181.000
20.29263 194.000
20.31258 188.000
20.33253 206.000
20.35247 198.000
20.37242 172.000
20.39237 169.000
20.41231 187.000
20.43226 175.000
20.45221 181.000
20.47215 181.000
20.49210 194.000
20.51205 182.000
20.53200 148.000
20.55194 186.000
20.57189 200.000
20.59184 207.000
20.61178 191.000
20.63173 207.000
20.65168 204.000
20.67162 176.000
20.69157 191.000
20.71152 207.000
20.73147 212.000
20.75141 225.000
20.77136 213.000
20.79131 221.000
20.81125 257.000
20.83120 254.000
20.85115 237.000
20.87109 271.000
20.89104 268.000
20.91099 250.000
20.93094 243.000
20.95088 258.000
20.97083 241.000
20.99078 216.000
21.01072 201.000
21.03067 214.000
21.05062 195.000
21.07056 184.000
21.09051 226.000
21.11046 179.000
21.13040 209.000
21.15035 183.000
21.17030 190.000
21.19025 169.000
21.21019 180.000
21.23014 177.000
21.25009 180.000
21.27003 176.000
21.28998 197.000
21.30993 174.000
21.32987 181.000
21.34982 185.000
21.36977 169.000
21.38972 162.000
21.40966 165.000
21.42961 165.000
21.44956 152.000
21.46950 172.000
21.48945 193.000
21.50940 176.000
21.52934 185.000
21.54929 188.000
21.56924 184.000
21.58918 159.000
21.60913 202.000
21.62908 170.000
21.64903 171.000
21.66897 181.000
21.68892 171.000
21.70887 177.000
21.72881 179.000
21.74876 153.000
21.76871 175.000
21.78865 187.000
21.80860 155.000
21.82855 175.000
21.84850 203.000
21.86844 181.000
21.88839 183.000
21.90834 201.000
21.92828 186.000
21.94823 166.000
21.96818 159.000
21.98812 181.000
22.00807 177.000
22.02802 189.000
22.04796 199.000
22.06791 190.000
22.08786 169.000
22.10781 185.000
22.12775 163.000
22.14770 158.000
22.16765 171.000
22.18759 188.000
22.20754 177.000
22.22749 165.000
22.24743 181.000
22.26738 174.000
22.28733 185.000
22.30728 164.000
22.32722 165.000
22.34717 194.000
22.36712 176.000
22.38706 174.000
22.40701 154.000
22.42696 158.000
22.44690 182.000
22.46685 150.000
22.48680 167.000
22.50675 187.000
22.52669 171.000
22.54664 162.000
22.56659 196.000
22.58653 168.000
22.60648 193.000
22.62643 155.000
22.64637 172.000
22.66632 193.000
22.68627 156.000
22.70621 181.000
22.72616 195.000
22.74611 185.000
22.76606 178.000
22.78600 207.000
22.80595 162.000
22.82590 167.000
22.84584 173.000
22.86579 162.000
22.88574 160.000
22.90568 182.000
22.92563 177.000
22.94558 199.000
22.96553 179.000
22.98547 186.000
23.00542 190.000
23.02537 185.000
23.04531 196.000
23.06526 181.000
23.08521 178.000
23.10515 201.000
23.12510 177.000
23.14505 161.000
23.16499 183.000
23.18494 215.000
23.20489 169.000
23.22484 197.000
23.24478 191.000
23.26473 168.000
23.28468 192.000
23.30462 163.000
23.32457 188.000
23.34452 176.000
23.36446 219.000
23.38441 180.000
23.40436 203.000
23.42431 190.000
23.44425 160.000
23.46420 182.000
23.48415 163.000
23.50409 176.000
23.52404 173.000
23.54399 182.000
23.56393 184.000
23.58388 175.000
23.60383 189.000
23.62377 173.000
23.64372 170.000
23.66367 179.000
23.68362 170.000
23.70356 184.000
23.72351 175.000
23.74346 186.000
23.76340 170.000
23.78335 175.000
23.80330 177.000
23.82324 171.000
23.84319 174.000
23.86314 163.000
23.88309 210.000
23.90303 174.000
23.92298 159.000
23.94293 148.000
23.96287 220.000
23.98282 159.000
24.00277 193.000
24.02271 178.000
24.04266 202.000
24.06261 175.000
24.08256 192.000
24.10250 196.000
24.12245 175.000
24.14240 187.000
24.16234 184.000
24.18229 193.000
24.20224 191.000
24.22218 203.000
24.24213 178.000
24.26208 191.000
24.28202 200.000
24.30197 180.000
24.32192 178.000
24.34187 170.000
24.36181 162.000
24.38176 200.000
24.40171 201.000
24.42165 198.000
24.44160 192.000
24.46155 154.000
24.48149 194.000
24.50144 201.000
24.52139 171.000
24.54134 186.000
24.56128 165.000
24.58123 158.000
24.60118 174.000
24.62112 209.000
24.64107 162.000
24.66102 193.000
24.68096 188.000
24.70091 182.000
24.72086 194.000
24.74080 173.000
24.76075 165.000
24.78070 185.000
24.80065 180.000
24.82059 166.000
24.84054 170.000
24.86049 190.000
24.88043 209.000
24.90038 162.000
24.92033 168.000
24.94027 212.000
24.96022 180.000
24.98017 174.000
25.00012 186.000
25.02006 158.000
25.04001 179.000
25.05996 189.000
25.07990 189.000
25.09985 180.000
25.11980 203.000
25.13974 186.000
25.15969 191.000
25.17964 189.000
25.19958 205.000
25.21953 188.000
25.23948 181.000
25.25943 188.000
25.27937 193.000
25.29932 184.000
25.31927 187.000
25.33921 178.000
25.35916 169.000
25.37911 187.000
25.39905 175.000
25.41900 167.000
25.43895 153.000
25.45890 194.000
25.47884 183.000
25.49879 166.000
25.51874 203.000
25.53868 204.000
25.55863 173.000
25.57858 190.000
25.59852 164.000
25.61847 216.000
25.63842 183.000
25.65837 204.000
25.67831 210.000
25.69826 179.000
25.71821 170.000
25.73815 166.000
25.75810 200.000
25.77805 198.000
25.79799 184.000
25.81794 201.000
25.83789 188.000
25.85783 209.000
25.87778 169.000
25.89773 175.000
25.91768 168.000
25.93762 179.000
25.95757 178.000
25.97752 182.000
25.99746 170.000
26.01741 182.000
26.03736 194.000
26.05730 189.000
26.07725 178.000
26.09720 197.000
26.11715 178.000
26.13709 178.000
26.15704 189.000
26.17699 201.000
26.19693 182.000
26.21688 190.000
26.23683 186.000
26.25677 204.000
26.27672 180.000
26.29667 199.000
26.31661 199.000
26.33656 195.000
26.35651 182.000
26.37646 176.000
26.39640 195.000
26.41635 199.000
26.43630 195.000
26.45624 174.000
26.47619 192.000
26.49614 179.000
26.51608 194.000
26.53603 192.000
26.55598 185.000
26.57593 183.000
26.59587 207.000
26.61582 160.000
26.63577 197.000
26.65571 178.000
26.67566 176.000
26.69561 217.000
26.71555 169.000
26.73550 167.000
26.75545 193.000
26.77539 206.000
26.79534 183.000
26.81529 205.000
26.83524 209.000
26.85518 212.000
26.87513 144.000
26.89508 170.000
26.91502 213.000
26.93497 204.000
26.95492 174.000
26.97486 208.000
26.99481 184.000
27.01476 191.000
27.03471 202.000
27.05465 193.000
27.07460 199.000
27.09455 171.000
27.11449 189.000
27.13444 196.000
27.15439 198.000
27.17433 180.000
27.19428 168.000
27.21423 190.000
27.23417 162.000
27.25412 185.000
27.27407 207.000
27.29402 176.000
27.31396 204.000
27.33391 197.000
27.35386 190.000
27.37380 161.000
27.39375 197.000
27.41370 191.000
27.43364 197.000
27.45359 202.000
27.47354 210.000
27.49349 193.000
27.51343 156.000
27.53338 178.000
27.55333 169.000
27.57327 195.000
27.59322 156.000
27.61317 176.000
27.63311 181.000
27.65306 194.000
27.67301 186.000
27.69296 183.000
27.71290 174.000
27.73285 183.000
27.75280 183.000
27.77274 222.000
27.79269 196.000
27.81264 178.000
27.83258 191.000
27.85253 191.000
27.87248 177.000
27.89242 188.000
27.91237 173.000
27.93232 201.000
27.95227 197.000
27.97221 201.000
27.99216 189.000
28.01211 205.000
28.03205 178.000
28.05200 181.000
28.07195 179.000
28.09189 171.000
28.11184 184.000
28.13179 163.000
28.15174 161.000
28.17168 185.000
28.19163 209.000
28.21158 171.000
28.23152 209.000
28.25147 166.000
28.27142 185.000
28.29136 194.000
28.31131 188.000
28.33126 211.000
28.35120 206.000
28.37115 232.000
28.39110 180.000
28.41105 198.000
28.43099 220.000
28.45094 197.000
28.47089 169.000
28.49083 214.000
28.51078 177.000
28.53073 212.000
28.55067 159.000
28.57062 170.000
28.59057 180.000
28.61052 187.000
28.63046 164.000
28.65041 197.000
28.67036 180.000
28.69030 197.000
28.71025 181.000
28.73020 187.000
28.75014 181.000
28.77009 204.000
28.79004 193.000
28.80998 225.000
28.82993 193.000
28.84988 176.000
28.86983 225.000
28.88977 212.000
28.90972 183.000
28.92967 165.000
28.94961 187.000
28.96956 180.000
28.98951 200.000
29.00945 202.000
29.02940 206.000
29.04935 214.000
29.06930 210.000
29.08924 203.000
29.10919 192.000
29.12914 201.000
29.14908 184.000
29.16903 222.000
29.18898 170.000
29.20892 193.000
29.22887 209.000
29.24882 202.000
29.26877 189.000
29.28871 199.000
29.30866 211.000
29.32861 167.000
29.34855 197.000
29.36850 184.000
29.38845 203.000
29.40839 179.000
29.42834 190.000
29.44829 157.000
29.46823 237.000
29.48818 208.000
29.50813 207.000
29.52808 196.000
29.54802 167.000
29.56797 199.000
29.58792 195.000
29.60786 189.000
29.62781 173.000
29.64776 208.000
29.66770 199.000
29.68765 197.000
29.70760 205.000
29.72755 200.000
29.74749 211.000
29.76744 209.000
29.78739 183.000
29.80733 205.000
29.82728 203.000
29.84723 169.000
29.86717 201.000
29.88712 210.000
29.90707 202.000
29.92701 210.000
29.94696 207.000
29.96691 197.000
29.98686 217.000
30.00680 235.000
30.02675 202.000
30.04670 208.000
30.06664 219.000
30.08659 269.000
30.10654 254.000
30.12648 265.000
30.14643 305.000
30.16638 330.000
30.18633 425.000
30.20627 455.000
30.22622 560.000
30.24617 638.000
30.26611 652.000
30.28606 646.000
30.30601 597.000
30.32595 496.000
30.34590 475.000
30.36585 393.000
30.38579 358.000
30.40574 293.000
30.42569 226.000
30.44564 246.000
30.46558 219.000
30.48553 219.000
30.50548 215.000
30.52542 177.000
30.54537 211.000
30.56532 185.000
30.58526 172.000
30.60521 174.000
30.62516 202.000
30.64511 193.000
30.66505 217.000
30.68500 193.000
30.70495 181.000
30.72489 189.000
30.74484 188.000
30.76479 193.000
30.78473 212.000
30.80468 163.000
30.82463 201.000
30.84458 205.000
30.86452 207.000
30.88447 180.000
30.90442 168.000
30.92436 207.000
30.94431 183.000
30.96426 192.000
30.98420 202.000
31.00415 175.000
31.02410 186.000
31.04404 181.000
31.06399 190.000
31.08394 169.000
31.10389 187.000
31.12383 176.000
31.14378 179.000
31.16373 204.000
31.18367 186.000
31.20362 163.000
31.22357 192.000
31.24351 186.000
31.26346 198.000
31.28341 185.000
31.30336 174.000
31.32330 201.000
31.34325 185.000
31.36320 213.000
31.38314 186.000
31.40309 183.000
31.42304 216.000
31.44298 183.000
31.46293 195.000
31.48288 203.000
31.50282 179.000
31.52277 194.000
31.54272 194.000
31.56267 211.000
31.58261 201.000
31.60256 205.000
31.62251 186.000
31.64245 221.000
31.66240 207.000
31.68235 208.000
31.70229 179.000
31.72224 201.000
31.74219 210.000
31.76214 193.000
31.78208 202.000
31.80203 210.000
31.82198 193.000
31.84192 210.000
31.86187 205.000
31.88182 231.000
31.90176 185.000
31.92171 218.000
31.94166 214.000
31.96160 186.000
31.98155 229.000
32.00150 204.000
32.02145 198.000
32.04139 194.000
32.06134 229.000
32.08129 194.000
32.10123 204.000
32.12118 225.000
32.14113 208.000
32.16107 185.000
32.18102 194.000
32.20097 213.000
32.22092 222.000
32.24086 220.000
32.26081 187.000
32.28076 183.000
32.30070 211.000
32.32065 220.000
32.34060 209.000
32.36054 208.000
32.38049 222.000
32.40044 238.000
32.42039 241.000
32.44033 249.000
32.46028 232.000
32.48023 265.000
32.50017 271.000
32.52012 291.000
32.54007 289.000
32.56001 307.000
32.57996 325.000
32.59991 316.000
32.61985 319.000
32.63980 297.000
32.65975 308.000
32.67970 291.000
32.69964 248.000
32.71959 236.000
32.73954 246.000
32.75948 210.000
32.77943 214.000
32.79938 231.000
32.81932 224.000
32.83927 270.000
32.85922 217.000
32.87917 221.000
32.89911 224.000
32.91906 209.000
32.93901 237.000
32.95895 229.000
32.97890 217.000
32.99885 241.000
33.01879 255.000
33.03874 218.000
33.05869 226.000
33.07863 226.000
33.09858 223.000
33.11853 231.000
33.13848 293.000
33.15842 251.000
33.17837 219.000
33.19832 263.000
33.21826 240.000
33.23821 246.000
33.25816 238.000
33.27810 218.000
33.29805 224.000
33.31800 236.000
33.33795 232.000
33.35789 213.000
33.37784 214.000
33.39779 228.000
33.41773 209.000
33.43768 197.000
33.45763 173.000
33.47757 204.000
33.49752 185.000
33.51747 194.000
33.53741 212.000
33.55736 196.000
33.57731 225.000
33.59726 216.000
33.61720 203.000
33.63715 173.000
33.65710 193.000
33.67704 189.000
33.69699 239.000
33.71694 211.000
33.73688 171.000
33.75683 190.000
33.77678 179.000
33.79673 201.000
33.81667 234.000
33.83662 212.000
33.85657 210.000
33.87651 204.000
33.89646 211.000
33.91641 189.000
33.93635 222.000
33.95630 193.000
33.97625 233.000
33.99620 203.000
34.01614 199.000
34.03609 251.000
34.05604 232.000
34.07598 262.000
34.09593 244.000
34.11588 209.000
34.13582 230.000
34.15577 225.000
34.17572 227.000
34.19566 260.000
34.21561 285.000
34.23556 238.000
34.25551 258.000
34.27545 248.000
34.29540 264.000
34.31535 321.000
34.33529 276.000
34.35524 257.000
34.37519 288.000
34.39513 274.000
34.41508 264.000
34.43503 277.000
34.45498 281.000
34.47492 265.000
34.49487 289.000
34.51482 254.000
34.53476 270.000
34.55471 276.000
34.57466 248.000
34.59460 231.000
34.61455 250.000
34.63450 253.000
34.65444 278.000
34.67439 245.000
34.69434 231.000
34.71429 231.000
34.73423 232.000
34.75418 204.000
34.77413 267.000
34.79407 228.000
34.81402 238.000
34.83397 210.000
34.85391 247.000
34.87386 235.000
34.89381 240.000
34.91376 215.000
34.93370 225.000
34.95365 238.000
34.97360 251.000
34.99354 244.000
35.01349 250.000
35.03344 329.000
35.05338 299.000
35.07333 304.000
35.09328 318.000
35.11322 309.000
35.13317 319.000
35.15312 331.000
35.17307 362.000
35.19301 337.000
35.21296 362.000
35.23291 349.000
35.25285 376.000
35.27280 346.000
35.29275 359.000
35.31269 433.000
35.33264 430.000
35.35259 529.000
35.37254 525.000
35.39248 612.000
35.41243 782.000
35.43238 827.000
35.45232 947.000
35.47227 1143.000
35.49222 1305.000
35.51216 1372.000
35.53211 1584.000
35.55206 1907.000
35.57201 2154.000
35.59195 2408.000
35.61190 2428.000
35.63185 2555.000
35.65179 2560.000
35.67174 2436.000
35.69169 2090.000
35.71163 1834.000
35.73158 1525.000
35.75153 1307.000
35.77147 961.000
35.79142 871.000
35.81137 609.000
35.83132 485.000
35.85126 434.000
35.87121 335.000
35.89116 342.000
35.91110 337.000
35.93105 282.000
35.95100 234.000
35.97094 236.000
35.99089 266.000
36.01084 249.000
36.03079 234.000
36.05073 237.000
36.07068 216.000
36.09063 267.000
36.11057 255.000
36.13052 227.000
36.15047 223.000
36.17041 256.000
36.19036 211.000
36.21031 217.000
36.23025 237.000
36.25020 244.000
36.27015 260.000
36.29010 267.000
36.31004 270.000
36.32999 293.000
36.34994 293.000
36.36988 283.000
36.38983 303.000
36.40978 334.000
36.42972 331.000
36.44967 320.000
36.46962 327.000
36.48957 351.000
36.50951 345.000
36.52946 340.000
36.54941 304.000
36.56935 324.000
36.58930 332.000
36.60925 311.000
36.62919 318.000
36.64914 282.000
36.66909 299.000
36.68903 287.000
36.70898 276.000
36.72893 242.000
36.74888 295.000
36.76882 248.000
36.78877 282.000
36.80872 291.000
36.82866 248.000
36.84861 235.000
36.86856 258.000
36.88850 249.000
36.90845 241.000
36.92840 232.000
36.94835 248.000
36.96829 228.000
36.98824 237.000
37.00819 219.000
37.02813 262.000
37.04808 228.000
37.06803 238.000
37.08797 249.000
37.10792 245.000
37.12787 262.000
37.14781 258.000
37.16776 250.000
37.18771 295.000
37.20766 282.000
37.22760 318.000
37.24755 301.000
37.26750 344.000
37.28744 319.000
37.30739 309.000
37.32734 283.000
37.34728 265.000
37.36723 281.000
37.38718 261.000
37.40713 247.000
37.42707 247.000
37.44702 196.000
37.46697 219.000
37.48691 231.000
37.50686 185.000
37.52681 208.000
37.54675 188.000
37.56670 213.000
37.58665 211.000
37.60660 209.000
37.62654 190.000
37.64649 202.000
37.66644 189.000
37.68638 219.000
37.70633 202.000
37.72628 197.000
37.74622 194.000
37.76617 233.000
37.78612 214.000
37.80606 193.000
37.82601 221.000
37.84596 220.000
37.86591 203.000
37.88585 224.000
37.90580 205.000
37.92575 194.000
37.94569 200.000
37.96564 227.000
37.98559 218.000
38.00553 206.000
38.02548 212.000
38.04543 194.000
38.06538 194.000
38.08532 193.000
38.10527 209.000
38.12522 223.000
38.14516 196.000
38.16511 221.000
38.18506 218.000
38.20500 207.000
38.22495 225.000
38.24490 237.000
38.26484 233.000
38.28479 253.000
38.30474 244.000
38.32469 216.000
38.34463 230.000
38.36458 263.000
38.38453 269.000
38.40447 248.000
38.42442 258.000
38.44437 255.000
38.46431 329.000
38.48426 278.000
38.50421 318.000
38.52416 321.000
38.54410 367.000
38.56405 392.000
38.58400 447.000
38.60394 499.000
38.62389 570.000
38.64384 658.000
38.66378 784.000
38.68373 918.000
38.70368 1095.000
38.72362 1183.000
38.74357 1299.000
38.76352 1304.000
38.78347 1224.000
38.80341 1170.000
38.82336 1093.000
38.84331 1112.000
38.86325 952.000
38.88320 883.000
38.90315 821.000
38.92309 691.000
38.94304 696.000
38.96299 655.000
38.98294 635.000
39.00288 566.000
39.02283 525.000
39.04278 471.000
39.06272 429.000
39.08267 432.000
39.10262 387.000
39.12256 348.000
39.14251 331.000
39.16246 340.000
39.18241 307.000
39.20235 303.000
39.22230 309.000
39.24225 270.000
39.26219 275.000
39.28214 259.000
39.30209 221.000
39.32203 258.000
39.34198 209.000
39.36193 216.000
39.38187 226.000
39.40182 234.000
39.42177 212.000
39.44172 208.000
39.46166 210.000
39.48161 211.000
39.50156 197.000
39.52150 214.000
39.54145 193.000
39.56140 178.000
39.58134 184.000
39.60129 234.000
39.62124 206.000
39.64119 178.000
39.66113 203.000
39.68108 199.000
39.70103 208.000
39.72097 197.000
39.74092 233.000
39.76087 184.000
39.78081 204.000
39.80076 202.000
39.82071 206.000
39.84065 203.000
39.86060 193.000
39.88055 201.000
39.90050 205.000
39.92044 232.000
39.94039 196.000
39.96034 190.000
39.98028 215.000
40.00023 205.000
40.02018 205.000
40.04012 179.000
40.06007 194.000
40.08002 194.000
40.09997 158.000
40.11991 195.000
40.13986 200.000
40.15981 182.000
40.17975 218.000
40.19970 187.000
40.21965 170.000
40.23959 194.000
40.25954 217.000
40.27949 209.000
40.29943 186.000
40.31938 211.000
40.33933 192.000
40.35928 197.000
40.37922 237.000
40.39917 225.000
40.41912 193.000
40.43906 202.000
40.45901 160.000
40.47896 202.000
40.49890 193.000
40.51885 189.000
40.53880 192.000
40.55875 185.000
40.57869 191.000
40.59864 219.000
40.61859 191.000
40.63853 190.000
40.65848 205.000
40.67843 216.000
40.69837 198.000
40.71832 200.000
40.73827 207.000
40.75822 214.000
40.77816 245.000
40.79811 198.000
40.81806 208.000
40.83800 219.000
40.85795 202.000
40.87790 203.000
40.89784 235.000
40.91779 228.000
40.93774 246.000
40.95768 208.000
40.97763 222.000
40.99758 207.000
41.01753 213.000
41.03747 235.000
41.05742 238.000
41.07737 225.000
41.09731 238.000
41.11726 226.000
41.13721 242.000
41.15715 260.000
41.17710 279.000
41.19705 303.000
41.21700 309.000
41.23694 321.000
41.25689 361.000
41.27684 382.000
41.29678 440.000
41.31673 540.000
41.33668 579.000
41.35662 611.000
41.37657 820.000
41.39652 836.000
41.41646 859.000
41.43641 895.000
41.45636 916.000
41.47631 915.000
41.49625 891.000
41.51620 858.000
41.53615 876.000
41.55609 813.000
41.57604 738.000
41.59599 671.000
41.61593 616.000
41.63588 516.000
41.65583 523.000
41.67578 413.000
41.69572 383.000
41.71567 325.000
41.73562 307.000
41.75556 309.000
41.77551 278.000
41.79546 243.000
41.81540 247.000
41.83535 271.000
41.85530 231.000
41.87524 242.000
41.89519 211.000
41.91514 225.000
41.93509 238.000
41.95503 210.000
41.97498 233.000
41.99493 210.000
42.01487 219.000
42.03482 205.000
42.05477 234.000
42.07471 208.000
42.09466 193.000
42.11461 226.000
42.13456 213.000
42.15450 187.000
42.17445 189.000
42.19440 207.000
42.21434 229.000
42.23429 183.000
42.25424 197.000
42.27418 218.000
42.29413 194.000
42.31408 220.000
42.33403 201.000
42.35397 233.000
42.37392 224.000
42.39387 210.000
42.41381 194.000
42.43376 186.000
42.45371 209.000
42.47365 197.000
42.49360 212.000
42.51355 185.000
42.53349 186.000
42.55344 195.000
42.57339 197.000
42.59334 193.000
42.61328 169.000
42.63323 179.000
42.65318 213.000
42.67312 173.000
42.69307 213.000
42.71302 225.000
42.73296 236.000
42.75291 209.000
42.77286 245.000
42.79281 217.000
42.81275 211.000
42.83270 208.000
42.85265 202.000
42.87259 246.000
42.89254 229.000
42.91249 227.000
42.93243 208.000
42.95238 235.000
42.97233 219.000
42.99227 254.000
43.01222 238.000
43.03217 251.000
43.05212 254.000
43.07206 275.000
43.09201 280.000
43.11196 262.000
43.13190 315.000
43.15185 314.000
43.17180 352.000
43.19174 366.000
43.21169 403.000
43.23164 386.000
43.25159 448.000
43.27153 450.000
43.29148 485.000
43.31143 522.000
43.33137 498.000
43.35132 505.000
43.37127 472.000
43.39121 413.000
43.41116 420.000
43.43111 408.000
43.45105 352.000
43.47100 295.000
43.49095 301.000
43.51090 267.000
43.53084 257.000
43.55079 235.000
43.57074 253.000
43.59068 207.000
43.61063 233.000
43.63058 242.000
43.65052 186.000
43.67047 225.000
43.69042 200.000
43.71037 211.000
43.73031 218.000
43.75026 195.000
43.77021 196.000
43.79015 212.000
43.81010 189.000
43.83005 200.000
43.84999 210.000
43.86994 188.000
43.88989 196.000
43.90984 176.000
43.92978 203.000
43.94973 216.000
43.96968 225.000
43.98962 183.000
44.00957 183.000
44.02952 187.000
44.04946 187.000
44.06941 190.000
44.08936 178.000
44.10930 200.000
44.12925 188.000
44.14920 212.000
44.16915 193.000
44.18909 205.000
44.20904 171.000
44.22899 217.000
44.24893 214.000
44.26888 162.000
44.28883 190.000
44.30877 189.000
44.32872 196.000
44.34867 184.000
44.36862 198.000
44.38856 171.000
44.40851 194.000
44.42846 213.000
44.44840 184.000
44.46835 198.000
44.48830 214.000
44.50824 178.000
44.52819 213.000
44.54814 179.000
44.56808 198.000
44.58803 191.000
44.60798 186.000
44.62793 192.000
44.64787 200.000
44.66782 221.000
44.68777 185.000
44.70771 201.000
44.72766 219.000
44.74761 219.000
44.76755 217.000
44.78750 229.000
44.80745 210.000
44.82740 219.000
44.84734 210.000
44.86729 213.000
44.88724 244.000
44.90718 235.000
44.92713 218.000
44.94708 255.000
44.96702 228.000
44.98697 213.000
45.00692 225.000
45.02686 183.000
45.04681 192.000
45.06676 214.000
45.08671 177.000
45.10665 203.000
45.12660 217.000
45.14655 206.000
45.16649 189.000
45.18644 200.000
45.20639 209.000
45.22633 198.000
45.24628 197.000
45.26623 161.000
45.28618 195.000
45.30612 178.000
45.32607 211.000
45.34602 198.000
45.36596 222.000
45.38591 211.000
45.40586 200.000
45.42580 195.000
45.44575 168.000
45.46570 220.000
45.48565 187.000
45.50559 189.000
45.52554 189.000
45.54549 190.000
45.56543 197.000
45.58538 185.000
45.60533 176.000
45.62527 197.000
45.64522 211.000
45.66517 191.000
45.68511 213.000
45.70506 205.000
45.72501 207.000
45.74496 217.000
45.76490 191.000
45.78485 191.000
45.80480 176.000
45.82474 188.000
45.84469 204.000
45.86464 182.000
45.88458 209.000
45.90453 193.000
45.92448 201.000
45.94443 181.000
45.96437 206.000
45.98432 205.000
46.00427 196.000
46.02421 202.000
46.04416 182.000
46.06411 173.000
46.08405 172.000
46.10400 198.000
46.12395 199.000
46.14389 197.000
46.16384 193.000
46.18379 206.000
46.20374 189.000
46.22368 194.000
46.24363 194.000
46.26358 220.000
46.28352 202.000
46.30347 230.000
46.32342 232.000
46.34336 203.000
46.36331 200.000
46.38326 208.000
46.40321 206.000
46.42315 195.000
46.44310 208.000
46.46305 220.000
46.48299 206.000
46.50294 202.000
46.52289 194.000
46.54283 197.000
46.56278 192.000
46.58273 209.000
46.60267 187.000
46.62262 198.000
46.64257 169.000
46.66252 223.000
46.68246 192.000
46.70241 182.000
46.72236 197.000
46.74230 216.000
46.76225 197.000
46.78220 186.000
46.80214 198.000
46.82209 172.000
46.84204 210.000
46.86199 185.000
46.88193 175.000
46.90188 187.000
46.92183 184.000
46.94177 185.000
46.96172 182.000
46.98167 185.000
47.00161 187.000
47.02156 178.000
47.04151 192.000
47.06146 214.000
47.08140 181.000
47.10135 192.000
47.12130 195.000
47.14124 193.000
47.16119 168.000
47.18114 223.000
47.20108 201.000
47.22103 209.000
47.24098 201.000
47.26092 178.000
47.28087 185.000
47.30082 173.000
47.32077 175.000
47.34071 179.000
47.36066 182.000
47.38061 209.000
47.40055 218.000
47.42050 200.000
47.44045 193.000
47.46039 187.000
47.48034 207.000
47.50029 184.000
47.52024 230.000
47.54018 196.000
47.56013 181.000
47.58008 189.000
47.60002 194.000
47.61997 206.000
47.63992 211.000
47.65986 189.000
47.67981 200.000
47.69976 213.000
47.71970 202.000
47.73965 215.000
47.75960 203.000
47.77955 198.000
47.79949 204.000
47.81944 198.000
47.83939 200.000
47.85933 218.000
47.87928 203.000
47.89923 214.000
47.91917 192.000
47.93912 196.000
47.95907 189.000
47.97902 207.000
47.99896 180.000
48.01891 189.000
48.03886 209.000
48.05880 220.000
48.07875 207.000
48.09870 198.000
48.11864 186.000
48.13859 212.000
48.15854 193.000
48.17848 200.000
48.19843 221.000
48.21838 200.000
48.23833 216.000
48.25827 202.000
48.27822 192.000
48.29817 213.000
48.31811 209.000
48.33806 211.000
48.35801 207.000
48.37795 243.000
48.39790 205.000
48.41785 196.000
48.43780 211.000
48.45774 220.000
48.47769 231.000
48.49764 249.000
48.51758 253.000
48.53753 255.000
48.55748 280.000
48.57742 292.000
48.59737 272.000
48.61732 305.000
48.63726 315.000
48.65721 331.000
48.67716 378.000
48.69711 430.000
48.71705 431.000
48.73700 423.000
48.75695 471.000
48.77689 503.000
48.79684 482.000
48.81679 533.000
48.83673 478.000
48.85668 483.000
48.87663 429.000
48.89658 398.000
48.91652 409.000
48.93647 360.000
48.95642 328.000
48.97636 359.000
48.99631 326.000
49.01626 284.000
49.03620 246.000
49.05615 253.000
49.07610 223.000
49.09605 201.000
49.11599 217.000
49.13594 198.000
49.15589 187.000
49.17583 213.000
49.19578 226.000
49.21573 217.000
49.23567 217.000
49.25562 216.000
49.27557 218.000
49.29551 204.000
49.31546 196.000
49.33541 208.000
49.35536 220.000
49.37530 215.000
49.39525 224.000
49.41520 215.000
49.43514 199.000
49.45509 192.000
49.47504 221.000
49.49498 199.000
49.51493 196.000
49.53488 196.000
49.55483 218.000
49.57477 222.000
49.59472 208.000
49.61467 198.000
49.63461 207.000
49.65456 203.000
49.67451 203.000
49.69445 218.000
49.71440 200.000
49.73435 215.000
49.75429 208.000
49.77424 209.000
49.79419 173.000
49.81414 191.000
49.83408 188.000
49.85403 182.000
49.87398 197.000
49.89392 204.000
49.91387 179.000
49.93382 178.000
49.95376 200.000
49.97371 192.000
49.99366 185.000
50.01361 190.000
50.03355 203.000
50.05350 195.000
50.07345 178.000
50.09339 192.000
50.11334 195.000
50.13329 214.000
50.15323 200.000
50.17318 164.000
50.19313 193.000
50.21307 168.000
50.23302 203.000
50.25297 203.000
50.27292 187.000
50.29286 217.000
50.31281 173.000
50.33276 192.000
50.35270 176.000
50.37265 203.000
50.39260 206.000
50.41254 206.000
50.43249 208.000
50.45244 185.000
50.47239 189.000
50.49233 195.000
50.51228 197.000
50.53223 191.000
50.55217 196.000
50.57212 231.000
50.59207 170.000
50.61201 218.000
50.63196 212.000
50.65191 203.000
50.67186 189.000
50.69180 219.000
50.71175 199.000
50.73170 209.000
50.75164 189.000
50.77159 178.000
50.79154 194.000
50.81148 206.000
50.83143 210.000
50.85138 179.000
50.87132 206.000
50.89127 203.000
50.91122 190.000
50.93117 208.000
50.95111 190.000
50.97106 198.000
50.99101 186.000
51.01095 165.000
51.03090 210.000
51.05085 203.000
51.07079 203.000
51.09074 193.000
51.11069 187.000
51.13064 181.000
51.15058 218.000
51.17053 194.000
51.19048 219.000
51.21042 209.000
51.23037 199.000
51.25032 217.000
51.27026 188.000
51.29021 204.000
51.31016 184.000
51.33010 241.000
51.35005 218.000
51.37000 228.000
51.38995 233.000
51.40989 217.000
51.42984 200.000
51.44979 202.000
51.46973 189.000
51.48968 207.000
51.50963 180.000
51.52957 171.000
51.54952 176.000
51.56947 219.000
51.58942 203.000
51.60936 194.000
51.62931 185.000
51.64926 200.000
51.66920 224.000
51.68915 187.000
51.70910 204.000
51.72904 184.000
51.74899 206.000
51.76894 215.000
51.78888 202.000
51.80883 211.000
51.82878 179.000
51.84873 197.000
51.86867 184.000
51.88862 192.000
51.90857 177.000
51.92851 185.000
51.94846 183.000
51.96841 193.000
51.98835 187.000
52.00830 185.000
52.02825 196.000
52.04820 204.000
52.06814 196.000
52.08809 183.000
52.10804 209.000
52.12798 199.000
52.14793 184.000
52.16788 205.000
52.18782 208.000
52.20777 164.000
52.22772 214.000
52.24767 213.000
52.26761 189.000
52.28756 201.000
52.30751 216.000
52.32745 205.000
52.34740 183.000
52.36735 219.000
52.38729 201.000
52.40724 190.000
52.42719 202.000
52.44713 218.000
52.46708 204.000
52.48703 198.000
52.50698 204.000
52.52692 229.000
52.54687 202.000
52.56682 217.000
52.58676 210.000
52.60671 173.000
52.62666 216.000
52.64660 205.000
52.66655 218.000
52.68650 228.000
52.70645 200.000
52.72639 216.000
52.74634 205.000
52.76629 246.000
52.78623 245.000
52.80618 246.000
52.82613 259.000
52.84607 261.000
52.86602 243.000
52.88597 271.000
52.90591 245.000
52.92586 282.000
52.94581 269.000
52.96576 244.000
52.98570 254.000
53.00565 284.000
53.02560 309.000
53.04554 299.000
53.06549 291.000
53.08544 291.000
53.10538 267.000
53.12533 272.000
53.14528 250.000
53.16523 217.000
53.18517 260.000
53.20512 227.000
53.22507 238.000
53.24501 252.000
53.26496 227.000
53.28491 228.000
53.30485 251.000
53.32480 251.000
53.34475 225.000
53.36469 256.000
53.38464 229.000
53.40459 259.000
53.42454 238.000
53.44448 225.000
53.46443 266.000
53.48438 264.000
53.50432 233.000
53.52427 270.000
53.54422 300.000
53.56416 294.000
53.58411 290.000
53.60406 295.000
53.62401 318.000
53.64395 314.000
53.66390 294.000
53.68385 360.000
53.70379 322.000
53.72374 348.000
53.74369 347.000
53.76363 334.000
53.78358 348.000
53.80353 349.000
53.82348 292.000
53.84342 289.000
53.86337 271.000
53.88332 260.000
53.90326 277.000
53.92321 254.000
53.94316 264.000
53.96310 247.000
53.98305 225.000
54.00300 211.000
54.02294 232.000
54.04289 182.000
54.06284 210.000
54.08279 220.000
54.10273 215.000
54.12268 203.000
54.14263 217.000
54.16257 202.000
54.18252 202.000
54.20247 203.000
54.22241 204.000
54.24236 222.000
54.26231 196.000
54.28226 204.000
54.30220 187.000
54.32215 202.000
54.34210 182.000
54.36204 215.000
54.38199 198.000
54.40194 196.000
54.42188 183.000
54.44183 208.000
54.46178 205.000
54.48172 190.000
54.50167 195.000
54.52162 201.000
54.54157 207.000
54.56151 203.000
54.58146 198.000
54.60141 178.000
54.62135 219.000
54.64130 197.000
54.66125 199.000
54.68119 194.000
54.70114 218.000
54.72109 212.000
54.74104 182.000
54.76098 214.000
54.78093 187.000
54.80088 181.000
54.82082 206.000
54.84077 184.000
54.86072 199.000
54.88066 194.000
54.90061 192.000
54.92056 179.000
54.94050 198.000
54.96045 184.000
54.98040 196.000
55.00035 194.000
55.02029 187.000
55.04024 180.000
55.06019 193.000
55.08013 182.000
55.10008 191.000
55.12003 195.000
55.13997 201.000
55.15992 202.000
55.17987 187.000
55.19982 181.000
55.21976 214.000
55.23971 199.000
55.25966 201.000
55.27960 175.000
55.29955 192.000
55.31950 210.000
55.33944 211.000
55.35939 192.000
55.37934 196.000
55.39929 188.000
55.41923 210.000
55.43918 184.000
55.45913 173.000
55.47907 165.000
55.49902 192.000
55.51897 188.000
55.53891 208.000
55.55886 201.000
55.57881 206.000
55.59875 207.000
55.61870 212.000
55.63865 208.000
55.65860 202.000
55.67854 201.000
55.69849 209.000
55.71844 189.000
55.73838 208.000
55.75833 163.000
55.77828 209.000
55.79822 222.000
55.81817 206.000
55.83812 196.000
55.85807 180.000
55.87801 204.000
55.89796 207.000
55.91791 188.000
55.93785 186.000
55.95780 212.000
55.97775 195.000
55.99769 216.000
56.01764 172.000
56.03759 194.000
56.05753 206.000
56.07748 186.000
56.09743 186.000
56.11738 187.000
56.13732 176.000
56.15727 193.000
56.17722 178.000
56.19716 214.000
56.21711 195.000
56.23706 191.000
56.25700 192.000
56.27695 207.000
56.29690 200.000
56.31685 203.000
56.33679 175.000
56.35674 225.000
56.37669 201.000
56.39663 193.000
56.41658 187.000
56.43653 210.000
56.45647 243.000
56.47642 181.000
56.49637 165.000
56.51631 199.000
56.53626 171.000
56.55621 228.000
56.57616 223.000
56.59610 194.000
56.61605 199.000
56.63600 197.000
56.65594 189.000
56.67589 193.000
56.69584 178.000
56.71578 192.000
56.73573 202.000
56.75568 202.000
56.77563 204.000
56.79557 211.000
56.81552 203.000
56.83547 228.000
56.85541 207.000
56.87536 212.000
56.89531 229.000
56.91525 197.000
56.93520 201.000
56.95515 235.000
56.97510 274.000
56.99504 259.000
57.01499 239.000
57.03494 274.000
57.05488 277.000
57.07483 278.000
57.09478 320.000
57.11472 311.000
57.13467 370.000
57.15462 369.000
57.17456 422.000
57.19451 424.000
57.21446 449.000
57.23441 499.000
57.25435 537.000
57.27430 502.000
57.29425 555.000
57.31419 511.000
57.33414 541.000
57.35409 506.000
57.37403 446.000
57.39398 476.000
57.41393 479.000
57.43388 472.000
57.45382 435.000
57.47377 413.000
57.49372 434.000
57.51366 392.000
57.53361 339.000
57.55356 374.000
57.57350 392.000
57.59345 361.000
57.61340 341.000
57.63334 336.000
57.65329 323.000
57.67324 339.000
57.69319 318.000
57.71313 321.000
57.73308 316.000
57.75303 369.000
57.77297 371.000
57.79292 316.000
57.81287 377.000
57.83281 339.000
57.85276 300.000
57.87271 319.000
57.89266 317.000
57.91260 304.000
57.93255 275.000
57.95250 309.000
57.97244 283.000
57.99239 271.000
58.01234 276.000
58.03228 269.000
58.05223 252.000
58.07218 263.000
58.09212 262.000
58.11207 248.000
58.13202 279.000
58.15197 285.000
58.17191 272.000
58.19186 303.000
58.21181 318.000
58.23175 295.000
58.25170 316.000
58.27165 332.000
58.29159 299.000
58.31154 354.000
58.33149 314.000
58.35144 316.000
58.37138 301.000
58.39133 302.000
58.41128 302.000
58.43122 279.000
58.45117 257.000
58.47112 267.000
58.49106 256.000
58.51101 268.000
58.53096 225.000
58.55090 233.000
58.57085 218.000
58.59080 213.000
58.61075 221.000
58.63069 227.000
58.65064 197.000
58.67059 210.000
58.69053 212.000
58.71048 188.000
58.73043 211.000
58.75037 193.000
58.77032 180.000
58.79027 181.000
58.81022 217.000
58.83016 189.000
58.85011 203.000
58.87006 226.000
58.89000 189.000
58.90995 175.000
58.92990 215.000
58.94984 198.000
58.96979 207.000
58.98974 211.000
59.00969 207.000
59.02963 195.000
59.04958 187.000
59.06953 213.000
59.08947 192.000
59.10942 211.000
59.12937 176.000
59.14931 201.000
59.16926 205.000
59.18921 198.000
59.20915 216.000
59.22910 181.000
59.24905 203.000
59.26900 196.000
59.28894 229.000
59.30889 203.000
59.32884 178.000
59.34878 205.000
59.36873 178.000
59.38868 206.000
59.40862 233.000
59.42857 230.000
59.44852 224.000
59.46847 199.000
59.48841 217.000
59.50836 200.000
59.52831 203.000
59.54825 202.000
59.56820 204.000
59.58815 192.000
59.60809 213.000
59.62804 207.000
59.64799 199.000
59.66793 224.000
59.68788 195.000
59.70783 260.000
59.72778 203.000
59.74772 203.000
59.76767 189.000
59.78762 193.000
59.80756 202.000
59.82751 197.000
59.84746 204.000
59.86740 229.000
59.88735 178.000
59.90730 221.000
59.92725 203.000
59.94719 188.000
59.96714 197.000
59.98709 222.000
60.00703 213.000
60.02698 196.000
60.04693 200.000
60.06687 215.000
60.08682 205.000
60.10677 197.000
60.12671 209.000
60.14666 211.000
60.16661 200.000
60.18656 226.000
60.20650 229.000
60.22645 182.000
60.24640 195.000
60.26634 185.000
60.28629 227.000
60.30624 211.000
60.32618 193.000
60.34613 226.000
60.36608 214.000
60.38603 195.000
60.40597 197.000
60.42592 198.000
60.44587 191.000
60.46581 194.000
60.48576 214.000
60.50571 214.000
60.52565 242.000
60.54560 205.000
60.56555 225.000
60.58550 186.000
60.60544 178.000
60.62539 221.000
60.64534 207.000
60.66528 200.000
60.68523 208.000
60.70518 176.000
60.72512 195.000
60.74507 231.000
60.76502 224.000
60.78496 190.000
60.80491 191.000
60.82486 198.000
60.84481 221.000
60.86475 228.000
60.88470 214.000
60.90465 208.000
60.92459 197.000
60.94454 207.000
60.96449 197.000
60.98443 206.000
61.00438 244.000
61.02433 201.000
61.04428 229.000
61.06422 197.000
61.08417 222.000
61.10412 194.000
61.12406 199.000
61.14401 202.000
61.16396 212.000
61.18390 223.000
61.20385 240.000
61.22380 222.000
61.24374 227.000
61.26369 212.000
61.28364 218.000
61.30359 219.000
61.32353 226.000
61.34348 246.000
61.36343 241.000
61.38337 261.000
61.40332 254.000
61.42327 247.000
61.44321 254.000
61.46316 273.000
61.48311 309.000
61.50306 314.000
61.52300 359.000
61.54295 359.000
61.56290 365.000
61.58284 403.000
61.60279 394.000
61.62274 405.000
61.64268 370.000
61.66263 403.000
61.68258 410.000
61.70252 346.000
61.72247 386.000
61.74242 356.000
61.76237 362.000
61.78231 337.000
61.80226 330.000
61.82221 371.000
61.84215 329.000
61.86210 320.000
61.88205 348.000
61.90199 297.000
61.92194 294.000
61.94189 303.000
61.96184 284.000
61.98178 290.000
62.00173 300.000
62.02168 248.000
62.04162 310.000
62.06157 266.000
62.08152 281.000
62.10146 266.000
62.12141 259.000
62.14136 274.000
62.16131 292.000
62.18125 254.000
62.20120 269.000
62.22115 259.000
62.24109 299.000
62.26104 274.000
62.28099 286.000
62.30093 258.000
62.32088 266.000
62.34083 270.000
62.36077 286.000
62.38072 263.000
62.40067 256.000
62.42062 293.000
62.44056 285.000
62.46051 282.000
62.48046 293.000
62.50040 283.000
62.52035 266.000
62.54030 290.000
62.56024 312.000
62.58019 280.000
62.60014 333.000
62.62009 351.000
62.64003 330.000
62.65998 312.000
62.67993 349.000
62.69987 385.000
62.71982 380.000
62.73977 424.000
62.75971 468.000
62.77966 451.000
62.79961 523.000
62.81955 547.000
62.83950 546.000
62.85945 641.000
62.87940 640.000
62.89934 695.000
62.91929 686.000
62.93924 633.000
62.95918 673.000
62.97913 628.000
62.99908 589.000
63.01902 554.000
63.03897 526.000
63.05892 482.000
63.07887 467.000
63.09881 430.000
63.11876 434.000
63.13871 428.000
63.15865 372.000
63.17860 369.000
63.19855 307.000
63.21849 318.000
63.23844 304.000
63.25839 270.000
63.27833 275.000
63.29828 248.000
63.31823 224.000
63.33818 228.000
63.35812 224.000
63.37807 203.000
63.39802 231.000
63.41796 231.000
63.43791 219.000
63.45786 206.000
63.47780 215.000
63.49775 205.000
63.51770 218.000
63.53765 237.000
63.55759 213.000
63.57754 225.000
63.59749 202.000
63.61743 227.000
63.63738 223.000
63.65733 220.000
63.67727 202.000
63.69722 199.000
63.71717 220.000
63.73712 228.000
63.75706 204.000
63.77701 220.000
63.79696 191.000
63.81690 239.000
63.83685 220.000
63.85680 240.000
63.87674 191.000
63.89669 223.000
63.91664 212.000
63.93658 238.000
63.95653 213.000
63.97648 184.000
63.99643 219.000
64.01637 219.000
64.03632 220.000
64.05627 242.000
64.07621 207.000
64.09616 228.000
64.11611 194.000
64.13605 236.000
64.15600 172.000
64.17595 216.000
64.19590 233.000
64.21584 188.000
64.23579 205.000
64.25574 205.000
64.27568 221.000
64.29563 226.000
64.31558 232.000
64.33552 184.000
64.35547 218.000
64.37542 220.000
64.39536 206.000
64.41531 210.000
64.43526 212.000
64.45521 250.000
64.47515 221.000
64.49510 194.000
64.51505 227.000
64.53499 221.000
64.55494 199.000
64.57489 227.000
64.59483 219.000
64.61478 226.000
64.63473 205.000
64.65468 217.000
64.67462 227.000
64.69457 215.000
64.71452 212.000
64.73446 213.000
64.75441 213.000
64.77436 238.000
64.79430 230.000
64.81425 231.000
64.83420 217.000
64.85414 215.000
64.87409 219.000
64.89404 230.000
64.91399 226.000
64.93393 242.000
64.95388 218.000
64.97383 237.000
64.99377 221.000
65.01372 218.000
65.03367 207.000
65.05361 218.000
65.07356 241.000
65.09351 235.000
65.11346 192.000
65.13340 206.000
65.15335 221.000
65.17330 258.000
65.19324 227.000
65.21319 239.000
65.23314 264.000
65.25308 220.000
65.27303 227.000
65.29298 211.000
65.31293 255.000
65.33287 223.000
65.35282 233.000
65.37277 237.000
65.39271 233.000
65.41266 198.000
65.43261 255.000
65.45255 238.000
65.47250 223.000
65.49245 248.000
65.51239 241.000
65.53234 254.000
65.55229 253.000
65.57224 243.000
65.59218 239.000
65.61213 268.000
65.63208 236.000
65.65202 250.000
65.67197 281.000
65.69192 301.000
65.71186 282.000
65.73181 270.000
65.75176 302.000
65.77171 321.000
65.79165 276.000
65.81160 312.000
65.83155 304.000
65.85149 337.000
65.87144 310.000
65.89139 288.000
65.91133 300.000
65.93128 314.000
65.95123 316.000
65.97117 321.000
65.99112 291.000
66.01107 309.000
66.03102 348.000
66.05096 316.000
66.07091 275.000
66.09086 339.000
66.11080 284.000
66.13075 308.000
66.15070 313.000
66.17064 333.000
66.19059 396.000
66.21054 379.000
66.23049 396.000
66.25043 407.000
66.27038 388.000
66.29033 367.000
66.31027 346.000
66.33022 362.000
66.35017 349.000
66.37011 341.000
66.39006 332.000
66.41001 306.000
66.42995 305.000
66.44990 320.000
66.46985 310.000
66.48980 306.000
66.50974 282.000
66.52969 289.000
66.54964 257.000
66.56958 277.000
66.58953 263.000
66.60948 231.000
66.62942 243.000
66.64937 232.000
66.66932 258.000
66.68927 208.000
66.70921 209.000
66.72916 185.000
66.74911 218.000
66.76905 216.000
66.78900 224.000
66.80895 207.000
66.82889 204.000
66.84884 215.000
66.86879 210.000
66.88874 199.000
66.90868 225.000
66.92863 222.000
66.94858 212.000
66.96852 219.000
66.98847 201.000
67.00842 191.000
67.02836 190.000
67.04831 222.000
67.06826 220.000
67.08820 200.000
67.10815 204.000
67.12810 199.000
67.14805 233.000
67.16799 220.000
67.18794 185.000
67.20789 195.000
67.22783 194.000
67.24778 204.000
67.26773 215.000
67.28767 230.000
67.30762 209.000
67.32757 205.000
67.34752 209.000
67.36746 225.000
67.38741 205.000
67.40736 213.000
67.42730 245.000
67.44725 217.000
67.46720 215.000
67.48714 198.000
67.50709 246.000
67.52704 227.000
67.54698 229.000
67.56693 248.000
67.58688 277.000
67.60683 186.000
67.62677 225.000
67.64672 259.000
67.66667 210.000
67.68661 249.000
67.70656 238.000
67.72651 241.000
67.74645 271.000
67.76640 266.000
67.78635 266.000
67.80630 256.000
67.82624 285.000
67.84619 287.000
67.86614 292.000
67.88608 318.000
67.90603 345.000
67.92598 306.000
67.94592 327.000
67.96587 341.000
67.98582 311.000
68.00576 334.000
68.02571 355.000
68.04566 346.000
68.06561 320.000
68.08555 325.000
68.10550 347.000
68.12545 384.000
68.14539 343.000
68.16534 355.000
68.18529 344.000
68.20523 337.000
68.22518 341.000
68.24513 352.000
68.26508 334.000
68.28502 308.000
68.30497 329.000
68.32492 327.000
68.34486 329.000
68.36481 309.000
68.38476 292.000
68.40470 287.000
68.42465 304.000
68.44460 254.000
68.46455 248.000
68.48449 255.000
68.50444 244.000
68.52439 187.000
68.54433 230.000
68.56428 210.000
68.58423 237.000
68.60417 249.000
68.62412 211.000
68.64407 200.000
68.66401 223.000
68.68396 220.000
68.70391 205.000
68.72386 190.000
68.74380 202.000
68.76375 210.000
68.78370 220.000
68.80364 203.000
68.82359 226.000
68.84354 190.000
68.86348 228.000
68.88343 205.000
68.90338 197.000
68.92333 202.000
68.94327 213.000
68.96322 192.000
68.98317 200.000
69.00311 222.000
69.02306 234.000
69.04301 214.000
69.06295 239.000
69.08290 218.000
69.10285 217.000
69.12279 186.000
69.14274 215.000
69.16269 234.000
69.18264 194.000
69.20258 217.000
69.22253 209.000
69.24248 191.000
69.26242 226.000
69.28237 206.000
69.30232 183.000
69.32226 226.000
69.34221 212.000
69.36216 197.000
69.38211 191.000
69.40205 198.000
69.42200 205.000
69.44195 227.000
69.46189 227.000
69.48184 211.000
69.50179 229.000
69.52173 212.000
69.54168 217.000
69.56163 212.000
69.58157 234.000
69.60152 206.000
69.62147 219.000
69.64142 214.000
69.66136 206.000
69.68131 213.000
69.70126 217.000
69.72120 201.000
69.74115 190.000
69.76110 185.000
69.78104 211.000
69.80099 218.000
69.82094 195.000
69.84089 207.000
69.86083 200.000
69.88078 217.000
69.90073 196.000
69.92067 184.000
69.94062 195.000
69.96057 201.000
69.98051 210.000
70.00046 210.000
70.02041 179.000
70.04035 225.000
70.06030 202.000
70.08025 175.000
70.10020 180.000
70.12014 199.000
70.14009 217.000
70.16004 202.000
70.17998 217.000
70.19993 204.000
70.21988 234.000
70.23982 194.000
70.25977 199.000
70.27972 200.000
70.29967 194.000
70.31961 229.000
70.33956 203.000
70.35951 216.000
70.37945 192.000
70.39940 185.000
70.41935 187.000
70.43929 214.000
70.45924 200.000
70.47919 204.000
70.49914 189.000
70.51908 218.000
70.53903 207.000
70.55898 177.000
70.57892 203.000
70.59887 184.000
70.61882 178.000
70.63876 197.000
70.65871 194.000
70.67866 195.000
70.69860 173.000
70.71855 215.000
70.73850 173.000
70.75845 208.000
70.77839 229.000
70.79834 210.000
70.81829 212.000
70.83823 207.000
70.85818 190.000
70.87813 186.000
70.89807 220.000
70.91802 200.000
70.93797 233.000
70.95792 195.000
70.97786 203.000
70.99781 211.000
71.01776 211.000
71.03770 227.000
71.05765 197.000
71.07760 221.000
71.09754 206.000
71.11749 198.000
71.13744 197.000
71.15738 252.000
71.17733 234.000
71.19728 207.000
71.21723 236.000
71.23717 239.000
71.25712 232.000
71.27707 225.000
71.29701 204.000
71.31696 220.000
71.33691 195.000
71.35685 257.000
71.37680 250.000
71.39675 240.000
71.41670 234.000
71.43664 251.000
71.45659 199.000
71.47654 236.000
71.49648 216.000
71.51643 212.000
71.53638 213.000
71.55632 197.000
71.57627 232.000
71.59622 214.000
71.61616 209.000
71.63611 220.000
71.65606 220.000
71.67601 227.000
71.69595 240.000
71.71590 222.000
71.73585 225.000
71.75579 213.000
71.77574 197.000
71.79569 232.000
71.81563 187.000
71.83558 211.000
71.85553 218.000
71.87548 209.000
71.89542 204.000
71.91537 205.000
71.93532 218.000
71.95526 206.000
71.97521 218.000
71.99516 218.000
72.01510 239.000
72.03505 211.000
72.05500 224.000
72.07495 243.000
72.09489 221.000
72.11484 229.000
72.13479 237.000
72.15473 255.000
72.17468 203.000
72.19463 244.000
72.21457 272.000
72.23452 296.000
72.25447 281.000
72.27441 314.000
72.29436 257.000
72.31431 256.000
72.33426 297.000
72.35420 304.000
72.37415 279.000
72.39410 276.000
72.41404 301.000
72.43399 287.000
72.45394 305.000
72.47388 270.000
72.49383 272.000
72.51378 278.000
72.53373 267.000
72.55367 270.000
72.57362 258.000
72.59357 248.000
72.61351 252.000
72.63346 220.000
72.65341 259.000
72.67335 249.000
72.69330 223.000
72.71325 223.000
72.73319 270.000
72.75314 234.000
72.77309 222.000
72.79304 207.000
72.81298 211.000
72.83293 235.000
72.85288 216.000
72.87282 221.000
72.89277 247.000
72.91272 202.000
72.93266 212.000
72.95261 206.000
72.97256 228.000
72.99251 220.000
73.01245 224.000
73.03240 249.000
73.05235 208.000
73.07229 229.000
73.09224 205.000
73.11219 227.000
73.13213 214.000
73.15208 218.000
73.17203 233.000
73.19197 225.000
73.21192 216.000
73.23187 215.000
73.25182 210.000
73.27176 233.000
73.29171 216.000
73.31166 207.000
73.33160 224.000
73.35155 234.000
73.37150 212.000
73.39144 174.000
73.41139 224.000
73.43134 229.000
73.45129 235.000
73.47123 230.000
73.49118 225.000
73.51113 218.000
73.53107 227.000
73.55102 209.000
73.57097 179.000
73.59091 219.000
73.61086 219.000
73.63081 218.000
73.65076 234.000
73.67070 219.000
73.69065 219.000
73.71060 236.000
73.73054 217.000
73.75049 219.000
73.77044 223.000
73.79038 234.000
73.81033 214.000
73.83028 212.000
73.85022 217.000
73.87017 227.000
73.89012 212.000
73.91007 196.000
73.93001 225.000
73.94996 221.000
73.96991 240.000
73.98985 227.000
74.00980 243.000
74.02975 236.000
74.04969 263.000
74.06964 223.000
74.08959 221.000
74.10954 249.000
74.12948 232.000
74.14943 250.000
74.16938 227.000
74.18932 245.000
74.20927 238.000
74.22922 229.000
74.24916 228.000
74.26911 243.000
74.28906 254.000
74.30900 290.000
74.32895 228.000
74.34890 268.000
74.36885 256.000
74.38879 265.000
74.40874 306.000
74.42869 310.000
74.44863 294.000
74.46858 331.000
74.48853 263.000
74.50847 264.000
74.52842 275.000
74.54837 268.000
74.56832 280.000
74.58826 260.000
74.60821 259.000
74.62816 280.000
74.64810 276.000
74.66805 288.000
74.68800 267.000
74.70794 262.000
74.72789 281.000
74.74784 242.000
74.76778 247.000
74.78773 235.000
74.80768 246.000
74.82763 260.000
74.84757 258.000
74.86752 235.000
74.88747 242.000
74.90741 260.000
74.92736 241.000
74.94731 255.000
74.96725 253.000
74.98720 294.000
75.00715 269.000
75.02710 323.000
75.04704 245.000
75.06699 288.000
75.08694 262.000
75.10688 273.000
75.12683 285.000
75.14678 261.000
75.16672 276.000
75.18667 291.000
75.20662 292.000
75.22657 288.000
75.24651 308.000
75.26646 301.000
75.28641 308.000
75.30635 271.000
75.32630 283.000
75.34625 281.000
75.36619 281.000
75.38614 271.000
75.40609 270.000
75.42603 291.000
75.44598 277.000
75.46593 263.000
75.48588 261.000
75.50582 281.000
75.52577 245.000
75.54572 235.000
75.56566 273.000
75.58561 266.000
75.60556 264.000
75.62550 258.000
75.64545 240.000
75.66540 274.000
75.68535 197.000
75.70529 225.000
75.72524 256.000
75.74519 232.000
75.76513 211.000
75.78508 229.000
75.80503 233.000
75.82497 234.000
75.84492 211.000
75.86487 204.000
75.88481 191.000
75.90476 193.000
75.92471 201.000
75.94466 229.000
75.96460 189.000
75.98455 206.000
76.00450 203.000
76.02444 207.000
76.04439 222.000
76.06434 193.000
76.08428 182.000
76.10423 216.000
76.12418 199.000
76.14413 219.000
76.16407 214.000
76.18402 212.000
76.20397 228.000
76.22391 213.000
76.24386 186.000
76.26381 236.000
76.28375 183.000
76.30370 212.000
76.32365 212.000
76.34359 195.000
76.36354 179.000
76.38349 186.000
76.40344 218.000
76.42338 162.000
76.44333 198.000
76.46328 200.000
76.48322 181.000
76.50317 219.000
76.52312 224.000
76.54306 222.000
76.56301 207.000
76.58296 206.000
76.60291 181.000
76.62285 214.000
76.64280 201.000
76.66275 241.000
76.68269 175.000
76.70264 177.000
76.72259 187.000
76.74253 206.000
76.76248 200.000
76.78243 228.000
76.80238 199.000
76.82232 204.000
76.84227 204.000
76.86222 190.000
76.88216 219.000
76.90211 190.000
76.92206 210.000
76.94200 204.000
76.96195 205.000
76.98190 225.000
77.00184 201.000
77.02179 203.000
77.04174 216.000
77.06169 220.000
77.08163 207.000
77.10158 223.000
77.12153 236.000
77.14147 229.000
77.16142 219.000
77.18137 226.000
77.20131 236.000
77.22126 224.000
77.24121 226.000
77.26116 211.000
77.28110 215.000
77.30105 219.000
77.32100 224.000
77.34094 223.000
77.36089 198.000
77.38084 249.000
77.40078 231.000
77.42073 212.000
77.44068 217.000
77.46062 187.000
77.48057 243.000
77.50052 218.000
77.52047 272.000
77.54041 197.000
77.56036 214.000
77.58031 227.000
77.60025 257.000
77.62020 245.000
77.64015 239.000
77.66009 216.000
77.68004 228.000
77.69999 221.000
77.71994 227.000
77.73988 226.000
77.75983 207.000
77.77978 240.000
77.79972 219.000
77.81967 199.000
77.83962 232.000
77.85956 193.000
77.87951 224.000
77.89946 232.000
77.91940 210.000
77.93935 194.000
77.95930 220.000
77.97925 238.000
77.99919 227.000
78.01914 235.000
78.03909 228.000
78.05903 216.000
78.07898 222.000
78.09893 210.000
78.11887 194.000
78.13882 215.000
78.15877 202.000
78.17872 234.000
78.19866 200.000
78.21861 229.000
78.23856 229.000
78.25850 212.000
78.27845 220.000
78.29840 219.000
78.31834 210.000
78.33829 228.000
78.35824 201.000
78.37819 214.000
78.39813 227.000
78.41808 200.000
78.43803 187.000
78.45797 204.000
78.47792 205.000
78.49787 208.000
78.51781 212.000
78.53776 212.000
78.55771 207.000
78.57765 188.000
78.59760 216.000
78.61755 227.000
78.63750 242.000
78.65744 205.000
78.67739 230.000
78.69734 184.000
78.71728 213.000
78.73723 191.000
78.75718 211.000
78.77712 228.000
78.79707 202.000
78.81702 213.000
78.83697 220.000
78.85691 220.000
78.87686 193.000
78.89681 205.000
78.91675 169.000
78.93670 190.000
78.95665 198.000
78.97659 186.000
78.99654 227.000
79.01649 204.000
79.03643 249.000
79.05638 200.000
79.07633 212.000
79.09628 221.000
79.11622 213.000
79.13617 224.000
79.15612 222.000
79.17606 197.000
79.19601 243.000
79.21596 212.000
79.23590 209.000
79.25585 228.000
79.27580 211.000
79.29575 225.000
79.31569 219.000
79.33564 213.000
79.35559 210.000
79.37553 207.000
79.39548 253.000
79.41543 248.000
79.43537 202.000
79.45532 202.000
79.47527 205.000
79.49521 229.000
79.51516 207.000
79.53511 214.000
79.55506 203.000
79.57500 221.000
79.59495 196.000
79.61490 211.000
79.63484 213.000
79.65479 187.000
79.67474 222.000
79.69468 224.000
79.71463 238.000
79.73458 209.000
79.75453 216.000
79.77447 200.000
79.79442 212.000
79.81437 221.000
79.83431 236.000
79.85426 216.000
79.87421 189.000
79.89415 209.000
79.91410 220.000
79.93405 189.000
79.95399 210.000
79.97394 190.000
79.99389 230.000
80.01384 213.000
80.03378 197.000
80.05373 209.000
80.07368 207.000
80.09362 202.000
80.11357 205.000
80.13352 201.000
80.15346 229.000
80.17341 193.000
80.19336 210.000
80.21331 265.000
80.23325 215.000
80.25320 214.000
80.27315 216.000
80.29309 215.000
80.31304 213.000
80.33299 224.000
80.35293 223.000
80.37288 240.000
80.39283 247.000
80.41278 237.000
80.43272 212.000
80.45267 227.000
80.47262 195.000
80.49256 218.000
80.51251 228.000
80.53246 232.000
80.55240 222.000
80.57235 216.000
80.59230 217.000
80.61224 204.000
80.63219 217.000
80.65214 221.000
80.67209 189.000
80.69203 186.000
80.71198 202.000
80.73193 233.000
80.75187 250.000
80.77182 198.000
80.79177 228.000
80.81171 208.000
80.83166 215.000
80.85161 191.000
80.87156 199.000
80.89150 194.000
80.91145 200.000
80.93140 225.000
80.95134 199.000
80.97129 200.000
80.99124 217.000
81.01118 187.000
81.03113 210.000
81.05108 216.000
81.07102 194.000
81.09097 216.000
81.11092 192.000
81.13087 188.000
81.15081 209.000
81.17076 226.000
81.19071 228.000
81.21065 188.000
81.23060 244.000
81.25055 199.000
81.27049 198.000
81.29044 213.000
81.31039 184.000
81.33034 209.000
81.35028 177.000
81.37023 194.000
81.39018 213.000
81.41012 216.000
81.43007 219.000
81.45002 228.000
81.46996 187.000
81.48991 194.000
81.50986 190.000
81.52980 183.000
81.54975 198.000
81.56970 250.000
81.58965 170.000
81.60959 236.000
81.62954 209.000
81.64949 204.000
81.66943 198.000
81.68938 182.000
81.70933 229.000
81.72927 213.000
81.74922 203.000
81.76917 195.000
81.78912 205.000
81.80906 191.000
81.82901 207.000
81.84896 215.000
81.86890 200.000
81.88885 192.000
81.90880 192.000
81.92874 230.000
81.94869 182.000
81.96864 207.000
81.98859 198.000
82.00853 191.000
82.02848 198.000
82.04843 245.000
82.06837 229.000
82.08832 231.000
82.10827 198.000
82.12821 203.000
82.14816 184.000
82.16811 206.000
82.18805 235.000
82.20800 232.000
82.22795 212.000
82.24790 240.000
82.26784 227.000
82.28779 209.000
82.30774 225.000
82.32768 234.000
82.34763 206.000
82.36758 212.000
82.38752 189.000
82.40747 240.000
82.42742 233.000
82.44737 210.000
82.46731 237.000
82.48726 253.000
82.50721 249.000
82.52715 235.000
82.54710 225.000
82.56705 261.000
82.58699 235.000
82.60694 234.000
82.62689 250.000
82.64683 253.000
82.66678 244.000
82.68673 247.000
82.70668 221.000
82.72662 229.000
82.74657 238.000
82.76652 223.000
82.78646 233.000
82.80641 210.000
82.82636 234.000
82.84630 230.000
82.86625 240.000
82.88620 220.000
82.90615 226.000
82.92609 233.000
82.94604 235.000
82.96599 238.000
82.98593 225.000
83.00588 208.000
83.02583 220.000
83.04577 229.000
83.06572 245.000
83.08567 247.000
83.10561 259.000
83.12556 250.000
83.14551 182.000
83.16546 244.000
83.18540 265.000
83.20535 233.000
83.22530 236.000
83.24524 218.000
83.26519 242.000
83.28514 231.000
83.30508 215.000
83.32503 249.000
83.34498 243.000
83.36493 233.000
83.38487 237.000
83.40482 234.000
83.42477 216.000
83.44471 255.000
83.46466 240.000
83.48461 217.000
83.50455 253.000
83.52450 234.000
83.54445 241.000
83.56440 245.000
83.58434 210.000
83.60429 251.000
83.62424 219.000
83.64418 239.000
83.66413 222.000
83.68408 248.000
83.70402 207.000
83.72397 244.000
83.74392 232.000
83.76386 215.000
83.78381 235.000
83.80376 246.000
83.82371 267.000
83.84365 231.000
83.86360 216.000
83.88355 216.000
83.90349 229.000
83.92344 214.000
83.94339 222.000
83.96333 199.000
83.98328 222.000
84.00323 226.000
84.02318 211.000
84.04312 242.000
84.06307 227.000
84.08302 208.000
84.10296 234.000
84.12291 209.000
84.14286 208.000
84.16280 206.000
84.18275 209.000
84.20270 182.000
84.22264 218.000
84.24259 226.000
84.26254 220.000
84.28249 206.000
84.30243 188.000
84.32238 230.000
84.34233 241.000
84.36227 220.000
84.38222 212.000
84.40217 230.000
84.42211 210.000
84.44206 212.000
84.46201 224.000
84.48196 194.000
84.50190 202.000
84.52185 228.000
84.54180 221.000
84.56174 208.000
84.58169 174.000
84.60164 212.000
84.62158 201.000
84.64153 224.000
84.66148 184.000
84.68142 216.000
84.70137 206.000
84.72132 183.000
84.74127 181.000
84.76121 231.000
84.78116 198.000
84.80111 219.000
84.82105 205.000
84.84100 224.000
84.86095 200.000
84.88089 185.000
84.90084 203.000
84.92079 205.000
84.94074 185.000
84.96068 203.000
84.98063 205.000
85.00058 192.000
85.02052 186.000
85.04047 200.000
85.06042 228.000
85.08036 220.000
85.10031 232.000
85.12026 199.000
85.14021 202.000
85.16015 206.000
85.18010 214.000
85.20005 189.000
85.21999 190.000
85.23994 180.000
85.25989 210.000
85.27983 229.000
85.29978 201.000
85.31973 204.000
85.33967 218.000
85.35962 210.000
85.37957 212.000
85.39952 211.000
85.41946 171.000
85.43941 222.000
85.45936 202.000
85.47930 185.000
85.49925 211.000
85.51920 205.000
85.53914 228.000
85.55909 225.000
85.57904 221.000
85.59899 212.000
85.61893 210.000
85.63888 206.000
85.65883 211.000
85.67877 222.000
85.69872 190.000
85.71867 204.000
85.73861 215.000
85.75856 215.000
85.77851 196.000
85.79845 188.000
85.81840 203.000
85.83835 210.000
85.85830 225.000
85.87824 211.000
85.89819 212.000
85.91814 204.000
85.93808 215.000
85.95803 212.000
85.97798 223.000
85.99792 224.000
86.01787 196.000
86.03782 214.000
86.05777 193.000
86.07771 206.000
86.09766 218.000
86.11761 194.000
86.13755 213.000
86.15750 215.000
86.17745 219.000
86.19739 223.000
86.21734 234.000
86.23729 205.000
86.25723 233.000
86.27718 216.000
86.29713 225.000
86.31708 216.000
86.33702 233.000
86.35697 220.000
86.37692 217.000
86.39686 193.000
86.41681 200.000
86.43676 212.000
86.45670 189.000
86.47665 205.000
86.49660 222.000
86.51655 203.000
86.53649 247.000
86.55644 223.000
86.57639 200.000
86.59633 235.000
86.61628 214.000
86.63623 220.000
86.65617 240.000
86.67612 238.000
86.69607 210.000
86.71602 217.000
86.73596 231.000
86.75591 232.000
86.77586 226.000
86.79580 200.000
86.81575 208.000
86.83570 227.000
86.85564 194.000
86.87559 219.000
86.89554 212.000
86.91548 220.000
86.93543 210.000
86.95538 220.000
86.97533 209.000
86.99527 239.000
87.01522 193.000
87.03517 241.000
87.05511 184.000
87.07506 232.000
87.09501 226.000
87.11495 217.000
87.13490 235.000
87.15485 209.000
87.17480 238.000
87.19474 240.000
87.21469 230.000
87.23464 218.000
87.25458 244.000
87.27453 239.000
87.29448 228.000
87.31442 222.000
87.33437 234.000
87.35432 247.000
87.37426 245.000
87.39421 246.000
87.41416 216.000
87.43411 228.000
87.45405 208.000
87.47400 225.000
87.49395 222.000
87.51389 210.000
87.53384 226.000
87.55379 233.000
87.57373 225.000
87.59368 225.000
87.61363 216.000
87.63358 201.000
87.65352 208.000
87.67347 229.000
87.69342 198.000
87.71336 186.000
87.73331 220.000
87.75326 214.000
87.77320 218.000
87.79315 219.000
87.81310 217.000
87.83304 219.000
87.85299 217.000
87.87294 230.000
87.89289 217.000
87.91283 205.000
87.93278 234.000
87.95273 211.000
87.97267 204.000
87.99262 196.000
88.01257 217.000
88.03251 236.000
88.05246 206.000
88.07241 212.000
88.09236 213.000
88.11230 181.000
88.13225 219.000
88.15220 188.000
88.17214 205.000
88.19209 223.000
88.21204 203.000
88.23198 186.000
88.25193 191.000
88.27188 185.000
88.29183 214.000
88.31177 196.000
88.33172 182.000
88.35167 222.000
88.37161 217.000
88.39156 209.000
88.41151 217.000
88.43145 205.000
88.45140 175.000
88.47135 203.000
88.49129 207.000
88.51124 231.000
88.53119 214.000
88.55114 201.000
88.57108 203.000
88.59103 197.000
88.61098 217.000
88.63092 214.000
88.65087 241.000
88.67082 202.000
88.69076 195.000
88.71071 193.000
88.73066 202.000
88.75061 214.000
88.77055 219.000
88.79050 216.000
88.81045 186.000
88.83039 238.000
88.85034 197.000
88.87029 208.000
88.89023 183.000
88.91018 198.000
88.93013 216.000
88.95007 196.000
88.97002 192.000
88.98997 168.000
89.00992 200.000
89.02986 209.000
89.04981 221.000
89.06976 209.000
89.08970 205.000
89.10965 186.000
89.12960 199.000
89.14954 222.000
89.16949 213.000
89.18944 204.000
89.20939 224.000
89.22933 205.000
89.24928 208.000
89.26923 198.000
89.28917 194.000
89.30912 234.000
89.32907 193.000
89.34901 199.000
89.36896 238.000
89.38891 193.000
89.40885 190.000
89.42880 210.000
89.44875 238.000
89.46870 204.000
89.48864 199.000
89.50859 230.000
89.52854 200.000
89.54848 216.000
89.56843 208.000
89.58838 223.000
89.60832 233.000
89.62827 217.000
89.64822 211.000
89.66817 215.000
89.68811 213.000
89.70806 249.000
89.72801 248.000
89.74795 241.000
89.76790 271.000
89.78785 242.000
89.80779 239.000
89.82774 259.000
89.84769 253.000
89.86764 253.000
89.88758 248.000
89.90753 278.000
89.92748 266.000
89.94742 316.000
89.96737 305.000
89.98732 267.000
90.00726 299.000
