10.00000 147.000
10.01995 147.000
10.03989 150.000
10.05984 160.000
10.07979 157.000
10.09973 159.000
10.11968 163.000
10.13963 161.000
10.15958 158.000
10.17952 173.000
10.19947 146.000
10.21942 150.000
10.23936 172.000
10.25931 157.000
10.27926 151.000
10.29920 141.000
10.31915 158.000
10.33910 170.000
10.35905 156.000
10.37899 153.000
10.39894 137.000
10.41889 144.000
10.43883 151.000
10.45878 142.000
10.47873 143.000
10.49867 154.000
10.51862 152.000
10.53857 162.000
10.55851 160.000
10.57846 171.000
10.59841 189.000
10.61836 147.000
10.63830 149.000
10.65825 141.000
10.67820 137.000
10.69814 159.000
10.71809 169.000
10.73804 143.000
10.75798 160.000
10.77793 136.000
10.79788 147.000
10.81783 141.000
10.83777 157.000
10.85772 141.000
10.87767 154.000
10.89761 133.000
10.91756 136.000
10.93751 155.000
10.95745 160.000
10.97740 180.000
10.99735 161.000
11.01730 165.000
11.03724 167.000
11.05719 157.000
11.07714 177.000
11.09708 161.000
11.11703 177.000
11.13698 171.000
11.15692 149.000
11.17687 168.000
11.19682 173.000
11.21676 160.000
11.23671 160.000
11.25666 159.000
11.27661 143.000
11.29655 151.000
11.31650 147.000
11.33645 166.000
11.35639 160.000
11.37634 157.000
11.39629 124.000
11.41623 147.000
11.43618 175.000
11.45613 160.000
11.47608 127.000
11.49602 136.000
11.51597 167.000
11.53592 133.000
11.55586 163.000
11.57581 186.000
11.59576 163.000
11.61570 167.000
11.63565 148.000
11.65560 158.000
11.67554 167.000
11.69549 148.000
11.71544 166.000
11.73539 141.000
11.75533 171.000
11.77528 147.000
11.79523 159.000
11.81517 170.000
11.83512 156.000
11.85507 172.000
11.87501 167.000
11.89496 156.000
11.91491 164.000
11.93486 151.000
11.95480 154.000
11.97475 169.000
11.99470 160.000
12.01464 154.000
12.03459 146.000
12.05454 137.000
12.07448 169.000
12.09443 162.000
12.11438 160.000
12.13432 147.000
12.15427 192.000
12.17422 159.000
12.19417 145.000
12.21411 156.000
12.23406 172.000
12.25401 166.000
12.27395 151.000
12.29390 162.000
12.31385 142.000
12.33379 151.000
12.35374 164.000
12.37369 166.000
12.39364 131.000
12.41358 166.000
12.43353 156.000
12.45348 163.000
12.47342 149.000
12.49337 166.000
12.51332 166.000
12.53326 164.000
12.55321 154.000
12.57316 181.000
12.59311 168.000
12.61305 152.000
12.63300 135.000
12.65295 157.000
12.67289 153.000
12.69284 155.000
12.71279 174.000
12.73273 159.000
12.75268 171.000
12.77263 159.000
12.79257 169.000
12.81252 166.000
12.83247 173.000
12.85242 156.000
12.87236 160.000
12.89231 161.000
12.91226 169.000
12.93220 177.000
12.95215 173.000
12.97210 183.000
12.99204 150.000
13.01199 209.000
13.03194 158.000
13.05189 144.000
13.07183 166.000
13.09178 161.000
13.11173 160.000
13.13167 179.000
13.15162 158.000
13.17157 164.000
13.19151 163.000
13.21146 141.000
13.23141 162.000
13.25135 177.000
13.27130 164.000
13.29125 147.000
13.31120 171.000
13.33114 204.000
13.35109 164.000
13.37104 155.000
13.39098 170.000
13.41093 173.000
13.43088 187.000
13.45082 175.000
13.47077 162.000
13.49072 128.000
13.51067 160.000
13.53061 156.000
13.55056 164.000
13.57051 165.000
13.59045 164.000
13.61040 161.000
13.63035 181.000
13.65029 145.000
13.67024 148.000
13.69019 160.000
13.71013 155.000
13.73008 171.000
13.75003 179.000
13.76998 161.000
13.78992 164.000
13.80987 154.000
13.82982 148.000
13.84976 154.000
13.86971 166.000
13.88966 167.000
13.90960 157.000
13.92955 169.000
13.94950 161.000
13.96945 162.000
13.98939 128.000
14.00934 156.000
14.02929 175.000
14.04923 141.000
14.06918 147.000
14.08913 159.000
14.10907 160.000
14.12902 141.000
14.14897 173.000
14.16892 175.000
14.18886 178.000
14.20881 175.000
14.22876 150.000
14.24870 194.000
14.26865 173.000
14.28860 166.000
14.30854 179.000
14.32849 159.000
14.34844 161.000
14.36838 181.000
14.38833 166.000
14.40828 172.000
14.42823 163.000
14.44817 162.000
14.46812 181.000
14.48807 180.000
14.50801 168.000
14.52796 152.000
14.54791 184.000
14.56785 184.000
14.58780 167.000
14.60775 197.000
14.62770 168.000
14.64764 139.000
14.66759 172.000
14.68754 166.000
14.70748 152.000
14.72743 180.000
14.74738 168.000
14.76732 164.000
14.78727 177.000
14.80722 193.000
14.82716 177.000
14.84711 170.000
14.86706 171.000
14.88701 175.000
14.90695 162.000
14.92690 181.000
14.94685 199.000
14.96679 165.000
14.98674 188.000
15.00669 215.000
15.02663 167.000
15.04658 206.000
15.06653 186.000
15.08648 194.000
15.10642 209.000
15.12637 191.000
15.14632 236.000
15.16626 222.000
15.18621 199.000
15.20616 225.000
15.22610 195.000
15.24605 207.000
15.26600 218.000
15.28594 217.000
15.30589 244.000
15.32584 246.000
15.34579 242.000
15.36573 241.000
15.38568 242.000
15.40563 226.000
15.42557 282.000
15.44552 285.000
15.46547 308.000
15.48541 307.000
15.50536 332.000
15.52531 316.000
15.54526 378.000
15.56520 416.000
15.58515 543.000
15.60510 577.000
15.62504 686.000
15.64499 873.000
15.66494 1112.000
15.68488 1388.000
15.70483 1715.000
15.72478 2310.000
15.74472 2978.000
15.76467 4011.000
15.78462 5283.000
15.80457 6207.000
15.82451 6673.000
15.84446 7230.000
15.86441 7833.000
15.88435 8123.000
15.90430 7108.000
15.92425 5453.000
15.94419 3678.000
15.96414 2116.000
15.98409 1139.000
16.00404 636.000
16.02398 510.000
16.04393 444.000
16.06388 390.000
16.08382 373.000
16.10377 328.000
16.12372 325.000
16.14366 303.000
16.16361 267.000
16.18356 262.000
16.20351 267.000
16.22345 265.000
16.24340 255.000
16.26335 226.000
16.28329 207.000
16.30324 227.000
16.32319 232.000
16.34313 219.000
16.36308 224.000
16.38303 201.000
16.40297 236.000
16.42292 211.000
16.44287 195.000
16.46282 210.000
16.48276 195.000
16.50271 185.000
16.52266 218.000
16.54260 202.000
16.56255 199.000
16.58250 206.000
16.60244 167.000
16.62239 180.000
16.64234 193.000
16.66229 175.000
16.68223 188.000
16.70218 177.000
16.72213 173.000
16.74207 171.000
16.76202 200.000
16.78197 176.000
16.80191 171.000
16.82186 189.000
16.84181 186.000
16.86175 165.000
16.88170 200.000
16.90165 167.000
16.92160 156.000
16.94154 182.000
16.96149 160.000
16.98144 193.000
17.00138 143.000
17.02133 164.000
17.04128 172.000
17.06122 165.000
17.08117 182.000
17.10112 164.000
17.12107 179.000
17.14101 176.000
17.16096 152.000
17.18091 152.000
17.20085 148.000
17.22080 151.000
17.24075 150.000
17.26069 171.000
17.28064 164.000
17.30059 141.000
17.32053 133.000
17.34048 185.000
17.36043 163.000
17.38038 175.000
17.40032 162.000
17.42027 178.000
17.44022 162.000
17.46016 167.000
17.48011 151.000
17.50006 151.000
17.52000 144.000
17.53995 166.000
17.55990 154.000
17.57985 177.000
17.59979 153.000
17.61974 161.000
17.63969 165.000
17.65963 149.000
17.67958 153.000
17.69953 167.000
17.71947 170.000
17.73942 160.000
17.75937 170.000
17.77932 160.000
17.79926 141.000
17.81921 158.000
17.83916 154.000
17.85910 165.000
17.87905 161.000
17.89900 165.000
17.91894 156.000
17.93889 166.000
17.95884 196.000
17.97878 172.000
17.99873 171.000
18.01868 148.000
18.03863 170.000
18.05857 150.000
18.07852 192.000
18.09847 174.000
18.11841 175.000
18.13836 151.000
18.15831 172.000
18.17825 145.000
18.19820 166.000
18.21815 166.000
18.23810 154.000
18.25804 178.000
18.27799 167.000
18.29794 157.000
18.31788 183.000
18.33783 176.000
18.35778 171.000
18.37772 205.000
18.39767 148.000
18.41762 177.000
18.43756 196.000
18.45751 194.000
18.47746 169.000
18.49741 174.000
18.51735 178.000
18.53730 159.000
18.55725 194.000
18.57719 162.000
18.59714 149.000
18.61709 173.000
18.63703 155.000
18.65698 155.000
18.67693 173.000
18.69688 171.000
18.71682 167.000
18.73677 160.000
18.75672 147.000
18.77666 191.000
18.79661 145.000
18.81656 168.000
18.83650 151.000
18.85645 172.000
18.87640 140.000
18.89634 164.000
18.91629 165.000
18.93624 143.000
18.95619 166.000
18.97613 157.000
18.99608 180.000
19.01603 169.000
19.03597 147.000
19.05592 160.000
19.07587 163.000
19.09581 153.000
19.11576 136.000
19.13571 132.000
19.15566 164.000
19.17560 173.000
19.19555 181.000
19.21550 155.000
19.23544 177.000
19.25539 163.000
19.27534 159.000
19.29528 164.000
19.31523 156.000
19.33518 151.000
19.35513 151.000
19.37507 167.000
19.39502 154.000
19.41497 153.000
19.43491 170.000
19.45486 166.000
19.47481 186.000
19.49475 176.000
19.51470 162.000
19.53465 145.000
19.55459 183.000
19.57454 163.000
19.59449 151.000
19.61444 139.000
19.63438 162.000
19.65433 177.000
19.67428 158.000
19.69422 164.000
19.71417 159.000
19.73412 147.000
19.75406 141.000
19.77401 168.000
19.79396 160.000
19.81391 165.000
19.83385 160.000
19.85380 168.000
19.87375 193.000
19.89369 151.000
19.91364 190.000
19.93359 183.000
19.95353 158.000
19.97348 147.000
19.99343 154.000
20.01337 168.000
20.03332 169.000
20.05327 161.000
20.07322 158.000
20.09316 172.000
20.11311 159.000
20.13306 175.000
20.15300 181.000
20.17295 134.000
20.19290 135.000
20.21284 153.000
20.23279 145.000
20.25274 163.000
20.27269 147.000
20.29263 151.000
20.31258 160.000
20.33253 160.000
20.35247 185.000
20.37242 168.000
20.39237 141.000
20.41231 177.000
20.43226 146.000
20.45221 166.000
20.47215 174.000
20.49210 169.000
20.51205 175.000
20.53200 168.000
20.55194 164.000
20.57189 161.000
20.59184 162.000
20.61178 163.000
20.63173 185.000
20.65168 149.000
20.67162 168.000
20.69157 183.000
20.71152 156.000
20.73147 175.000
20.75141 158.000
20.77136 170.000
20.79131 186.000
20.81125 184.000
20.83120 208.000
20.85115 228.000
20.87109 229.000
20.89104 225.000
20.91099 288.000
20.93094 294.000
20.95088 316.000
20.97083 316.000
20.99078 379.000
21.01072 392.000
21.03067 379.000
21.05062 407.000
21.07056 432.000
21.09051 427.000
21.11046 351.000
21.13040 326.000
21.15035 322.000
21.17030 259.000
21.19025 202.000
21.21019 184.000
21.23014 201.000
21.25009 179.000
21.27003 189.000
21.28998 157.000
21.30993 165.000
21.32987 179.000
21.34982 172.000
21.36977 175.000
21.38972 168.000
21.40966 165.000
21.42961 172.000
21.44956 155.000
21.46950 171.000
21.48945 165.000
21.50940 167.000
21.52934 185.000
21.54929 168.000
21.56924 175.000
21.58918 171.000
21.60913 169.000
21.62908 163.000
21.64903 151.000
21.66897 151.000
21.68892 156.000
21.70887 154.000
21.72881 158.000
21.74876 154.000
21.76871 175.000
21.78865 185.000
21.80860 165.000
21.82855 171.000
21.84850 163.000
21.86844 159.000
21.88839 171.000
21.90834 182.000
21.92828 162.000
21.94823 167.000
21.96818 163.000
21.98812 177.000
22.00807 148.000
22.02802 157.000
22.04796 162.000
22.06791 165.000
22.08786 155.000
22.10781 148.000
22.12775 188.000
22.14770 166.000
22.16765 168.000
22.18759 163.000
22.20754 186.000
22.22749 158.000
22.24743 159.000
22.26738 136.000
22.28733 157.000
22.30728 144.000
22.32722 158.000
22.34717 163.000
22.36712 164.000
22.38706 145.000
22.40701 172.000
22.42696 153.000
22.44690 174.000
22.46685 160.000
22.48680 149.000
22.50675 146.000
22.52669 153.000
22.54664 137.000
22.56659 144.000
22.58653 171.000
22.60648 173.000
22.62643 166.000
22.64637 174.000
22.66632 176.000
22.68627 145.000
22.70621 176.000
22.72616 157.000
22.74611 156.000
22.76606 150.000
22.78600 150.000
22.80595 185.000
22.82590 150.000
22.84584 154.000
22.86579 160.000
22.88574 162.000
22.90568 156.000
22.92563 158.000
22.94558 160.000
22.96553 154.000
22.98547 163.000
23.00542 162.000
23.02537 139.000
23.04531 147.000
23.06526 150.000
23.08521 150.000
23.10515 159.000
23.12510 154.000
23.14505 179.000
23.16499 165.000
23.18494 178.000
23.20489 154.000
23.22484 158.000
23.24478 151.000
23.26473 166.000
23.28468 148.000
23.30462 137.000
23.32457 165.000
23.34452 152.000
23.36446 152.000
23.38441 153.000
23.40436 153.000
23.42431 163.000
23.44425 148.000
23.46420 193.000
23.48415 159.000
23.50409 176.000
23.52404 158.000
23.54399 177.000
23.56393 159.000
23.58388 176.000
23.60383 179.000
23.62377 167.000
23.64372 163.000
23.66367 169.000
23.68362 164.000
23.70356 160.000
23.72351 158.000
23.74346 146.000
23.76340 171.000
23.78335 169.000
23.80330 175.000
23.82324 184.000
23.84319 160.000
23.86314 188.000
23.88309 167.000
23.90303 158.000
23.92298 177.000
23.94293 157.000
23.96287 161.000
23.98282 155.000
24.00277 165.000
24.02271 158.000
24.04266 133.000
24.06261 146.000
24.08256 186.000
24.10250 171.000
24.12245 161.000
24.14240 164.000
24.16234 151.000
24.18229 163.000
24.20224 174.000
24.22218 171.000
24.24213 173.000
24.26208 174.000
24.28202 157.000
24.30197 149.000
24.32192 172.000
24.34187 181.000
24.36181 148.000
24.38176 162.000
24.40171 171.000
24.42165 174.000
24.44160 150.000
24.46155 171.000
24.48149 152.000
24.50144 167.000
24.52139 190.000
24.54134 154.000
24.56128 154.000
24.58123 166.000
24.60118 164.000
24.62112 175.000
24.64107 161.000
24.66102 179.000
24.68096 168.000
24.70091 183.000
24.72086 158.000
24.74080 140.000
24.76075 161.000
24.78070 177.000
24.80065 165.000
24.82059 166.000
24.84054 143.000
24.86049 161.000
24.88043 161.000
24.90038 165.000
24.92033 164.000
24.94027 174.000
24.96022 175.000
24.98017 174.000
25.00012 173.000
25.02006 173.000
25.04001 188.000
25.05996 161.000
25.07990 180.000
25.09985 156.000
25.11980 164.000
25.13974 161.000
25.15969 179.000
25.17964 138.000
25.19958 162.000
25.21953 162.000
25.23948 161.000
25.25943 192.000
25.27937 172.000
25.29932 157.000
25.31927 179.000
25.33921 183.000
25.35916 163.000
25.37911 184.000
25.39905 187.000
25.41900 156.000
25.43895 150.000
25.45890 173.000
25.47884 152.000
25.49879 175.000
25.51874 178.000
25.53868 133.000
25.55863 161.000
25.57858 175.000
25.59852 176.000
25.61847 170.000
25.63842 153.000
25.65837 169.000
25.67831 143.000
25.69826 183.000
25.71821 164.000
25.73815 189.000
25.75810 152.000
25.77805 184.000
25.79799 153.000
25.81794 157.000
25.83789 143.000
25.85783 162.000
25.87778 180.000
25.89773 135.000
25.91768 170.000
25.93762 163.000
25.95757 170.000
25.97752 163.000
25.99746 147.000
26.01741 171.000
26.03736 159.000
26.05730 169.000
26.07725 163.000
26.09720 169.000
26.11715 167.000
26.13709 163.000
26.15704 162.000
26.17699 175.000
26.19693 148.000
26.21688 164.000
26.23683 181.000
26.25677 173.000
26.27672 186.000
26.29667 175.000
26.31661 180.000
26.33656 160.000
26.35651 196.000
26.37646 161.000
26.39640 165.000
26.41635 170.000
26.43630 169.000
26.45624 167.000
26.47619 176.000
26.49614 173.000
26.51608 165.000
26.53603 152.000
26.55598 196.000
26.57593 170.000
26.59587 204.000
26.61582 148.000
26.63577 145.000
26.65571 165.000
26.67566 168.000
26.69561 168.000
26.71555 195.000
26.73550 179.000
26.75545 171.000
26.77539 154.000
26.79534 143.000
26.81529 160.000
26.83524 163.000
26.85518 147.000
26.87513 176.000
26.89508 162.000
26.91502 170.000
26.93497 172.000
26.95492 175.000
26.97486 155.000
26.99481 170.000
27.01476 155.000
27.03471 183.000
27.05465 180.000
27.07460 173.000
27.09455 188.000
27.11449 205.000
27.13444 187.000
27.15439 188.000
27.17433 172.000
27.19428 178.000
27.21423 167.000
27.23417 159.000
27.25412 194.000
27.27407 166.000
27.29402 177.000
27.31396 180.000
27.33391 210.000
27.35386 182.000
27.37380 146.000
27.39375 183.000
27.41370 151.000
27.43364 165.000
27.45359 168.000
27.47354 152.000
27.49349 170.000
27.51343 173.000
27.53338 171.000
27.55333 169.000
27.57327 206.000
27.59322 185.000
27.61317 167.000
27.63311 172.000
27.65306 181.000
27.67301 177.000
27.69296 173.000
27.71290 160.000
27.73285 170.000
27.75280 167.000
27.77274 196.000
27.79269 169.000
27.81264 158.000
27.83258 169.000
27.85253 173.000
27.87248 150.000
27.89242 170.000
27.91237 146.000
27.93232 192.000
27.95227 197.000
27.97221 190.000
27.99216 187.000
28.01211 146.000
28.03205 186.000
28.05200 168.000
28.07195 171.000
28.09189 181.000
28.11184 184.000
28.13179 196.000
28.15174 160.000
28.17168 178.000
28.19163 175.000
28.21158 160.000
28.23152 204.000
28.25147 189.000
28.27142 209.000
28.29136 211.000
28.31131 221.000
28.33126 210.000
28.35120 214.000
28.37115 209.000
28.39110 197.000
28.41105 171.000
28.43099 181.000
28.45094 187.000
28.47089 199.000
28.49083 202.000
28.51078 188.000
28.53073 169.000
28.55067 173.000
28.57062 179.000
28.59057 174.000
28.61052 197.000
28.63046 184.000
28.65041 185.000
28.67036 146.000
28.69030 174.000
28.71025 187.000
28.73020 182.000
28.75014 181.000
28.77009 175.000
28.79004 170.000
28.80998 179.000
28.82993 167.000
28.84988 163.000
28.86983 190.000
28.88977 175.000
28.90972 184.000
28.92967 181.000
28.94961 153.000
28.96956 174.000
28.98951 167.000
29.00945 179.000
29.02940 183.000
29.04935 185.000
29.06930 173.000
29.08924 157.000
29.10919 171.000
29.12914 159.000
29.14908 199.000
29.16903 173.000
29.18898 201.000
29.20892 190.000
29.22887 181.000
29.24882 195.000
29.26877 189.000
29.28871 208.000
29.30866 178.000
29.32861 210.000
29.34855 195.000
29.36850 213.000
29.38845 228.000
29.40839 207.000
29.42834 213.000
29.44829 181.000
29.46823 212.000
29.48818 201.000
29.50813 170.000
29.52808 189.000
29.54802 166.000
29.56797 183.000
29.58792 166.000
29.60786 191.000
29.62781 174.000
29.64776 176.000
29.66770 142.000
29.68765 190.000
29.70760 195.000
29.72755 181.000
29.74749 175.000
29.76744 161.000
29.78739 200.000
29.80733 177.000
29.82728 169.000
29.84723 207.000
29.86717 162.000
29.88712 176.000
29.90707 173.000
29.92701 175.000
29.94696 159.000
29.96691 183.000
29.98686 172.000
30.00680 182.000
30.02675 183.000
30.04670 218.000
30.06664 201.000
30.08659 175.000
30.10654 191.000
30.12648 180.000
30.14643 192.000
30.16638 225.000
30.18633 210.000
30.20627 203.000
30.22622 196.000
30.24617 190.000
30.26611 244.000
30.28606 213.000
30.30601 243.000
30.32595 235.000
30.34590 201.000
30.36585 203.000
30.38579 211.000
30.40574 228.000
30.42569 185.000
30.44564 190.000
30.46558 171.000
30.48553 181.000
30.50548 193.000
30.52542 184.000
30.54537 174.000
30.56532 159.000
30.58526 177.000
30.60521 177.000
30.62516 181.000
30.64511 165.000
30.66505 150.000
30.68500 189.000
30.70495 217.000
30.72489 195.000
30.74484 203.000
30.76479 175.000
30.78473 201.000
30.80468 178.000
30.82463 189.000
30.84458 177.000
30.86452 154.000
30.88447 179.000
30.90442 173.000
30.92436 192.000
30.94431 189.000
30.96426 184.000
30.98420 179.000
31.00415 172.000
31.02410 193.000
31.04404 177.000
31.06399 192.000
31.08394 178.000
31.10389 164.000
31.12383 171.000
31.14378 179.000
31.16373 168.000
31.18367 173.000
31.20362 182.000
31.22357 196.000
31.24351 196.000
31.26346 188.000
31.28341 204.000
31.30336 176.000
31.32330 210.000
31.34325 189.000
31.36320 190.000
31.38314 171.000
31.40309 191.000
31.42304 188.000
31.44298 188.000
31.46293 210.000
31.48288 197.000
31.50282 216.000
31.52277 196.000
31.54272 193.000
31.56267 192.000
31.58261 204.000
31.60256 191.000
31.62251 170.000
31.64245 198.000
31.66240 221.000
31.68235 214.000
31.70229 213.000
31.72224 170.000
31.74219 239.000
31.76214 226.000
31.78208 259.000
31.80203 242.000
31.82198 253.000
31.84192 291.000
31.86187 294.000
31.88182 317.000
31.90176 421.000
31.92171 448.000
31.94166 575.000
31.96160 615.000
31.98155 664.000
32.00150 785.000
32.02145 902.000
32.04139 984.000
32.06134 938.000
32.08129 927.000
32.10123 818.000
32.12118 780.000
32.14113 660.000
32.16107 535.000
32.18102 455.000
32.20097 414.000
32.22092 313.000
32.24086 267.000
32.26081 253.000
32.28076 226.000
32.30070 198.000
32.32065 214.000
32.34060 188.000
32.36054 208.000
32.38049 200.000
32.40044 205.000
32.42039 202.000
32.44033 207.000
32.46028 176.000
32.48023 183.000
32.50017 179.000
32.52012 199.000
32.54007 194.000
32.56001 175.000
32.57996 159.000
32.59991 193.000
32.61985 176.000
32.63980 189.000
32.65975 194.000
32.67970 180.000
32.69964 186.000
32.71959 205.000
32.73954 206.000
32.75948 210.000
32.77943 183.000
32.79938 184.000
32.81932 163.000
32.83927 183.000
32.85922 202.000
32.87917 204.000
32.89911 178.000
32.91906 175.000
32.93901 149.000
32.95895 160.000
32.97890 166.000
32.99885 176.000
33.01879 174.000
33.03874 180.000
33.05869 196.000
33.07863 152.000
33.09858 163.000
33.11853 160.000
33.13848 169.000
33.15842 176.000
33.17837 176.000
33.19832 189.000
33.21826 185.000
33.23821 170.000
33.25816 186.000
33.27810 156.000
33.29805 178.000
33.31800 197.000
33.33795 155.000
33.35789 159.000
33.37784 172.000
33.39779 186.000
33.41773 166.000
33.43768 179.000
33.45763 188.000
33.47757 162.000
33.49752 168.000
33.51747 171.000
33.53741 187.000
33.55736 186.000
33.57731 184.000
33.59726 170.000
33.61720 173.000
33.63715 172.000
33.65710 186.000
33.67704 174.000
33.69699 171.000
33.71694 206.000
33.73688 172.000
33.75683 145.000
33.77678 174.000
33.79673 153.000
33.81667 185.000
33.83662 176.000
33.85657 168.000
33.87651 169.000
33.89646 176.000
33.91641 177.000
33.93635 184.000
33.95630 199.000
33.97625 148.000
33.99620 188.000
34.01614 194.000
34.03609 180.000
34.05604 210.000
34.07598 193.000
34.09593 182.000
34.11588 203.000
34.13582 194.000
34.15577 204.000
34.17572 174.000
34.19566 180.000
34.21561 206.000
34.23556 199.000
34.25551 184.000
34.27545 189.000
34.29540 217.000
34.31535 198.000
34.33529 207.000
34.35524 223.000
34.37519 200.000
34.39513 222.000
34.41508 224.000
34.43503 241.000
34.45498 205.000
34.47492 195.000
34.49487 241.000
34.51482 254.000
34.53476 282.000
34.55471 305.000
34.57466 307.000
34.59460 324.000
34.61455 311.000
34.63450 362.000
34.65444 372.000
34.67439 360.000
34.69434 372.000
34.71429 401.000
34.73423 368.000
34.75418 394.000
34.77413 369.000
34.79407 350.000
34.81402 368.000
34.83397 304.000
34.85391 288.000
34.87386 254.000
34.89381 242.000
34.91376 263.000
34.93370 246.000
34.95365 218.000
34.97360 205.000
34.99354 216.000
35.01349 197.000
35.03344 202.000
35.05338 192.000
35.07333 202.000
35.09328 204.000
35.11322 209.000
35.13317 225.000
35.15312 227.000
35.17307 227.000
35.19301 203.000
35.21296 233.000
35.23291 224.000
35.25285 206.000
35.27280 234.000
35.29275 266.000
35.31269 218.000
35.33264 263.000
35.35259 254.000
35.37254 305.000
35.39248 301.000
35.41243 318.000
35.43238 307.000
35.45232 309.000
35.47227 324.000
35.49222 361.000
35.51216 381.000
35.53211 446.000
35.55206 449.000
35.57201 487.000
35.59195 550.000
35.61190 575.000
35.63185 613.000
35.65179 623.000
35.67174 741.000
35.69169 771.000
35.71163 873.000
35.73158 902.000
35.75153 1010.000
35.77147 945.000
35.79142 956.000
35.81137 955.000
35.83132 850.000
35.85126 821.000
35.87121 716.000
35.89116 605.000
35.91110 591.000
35.93105 465.000
35.95100 385.000
35.97094 326.000
35.99089 308.000
36.01084 301.000
36.03079 271.000
36.05073 241.000
36.07068 245.000
36.09063 219.000
36.11057 237.000
36.13052 245.000
36.15047 243.000
36.17041 218.000
36.19036 211.000
36.21031 248.000
36.23025 189.000
36.25020 211.000
36.27015 194.000
36.29010 208.000
36.31004 242.000
36.32999 226.000
36.34994 225.000
36.36988 238.000
36.38983 216.000
36.40978 211.000
36.42972 233.000
36.44967 234.000
36.46962 224.000
36.48957 250.000
36.50951 221.000
36.52946 245.000
36.54941 259.000
36.56935 279.000
36.58930 243.000
36.60925 281.000
36.62919 252.000
36.64914 272.000
36.66909 303.000
36.68903 287.000
36.70898 252.000
36.72893 281.000
36.74888 266.000
36.76882 307.000
36.78877 297.000
36.80872 265.000
36.82866 286.000
36.84861 291.000
36.86856 323.000
36.88850 349.000
36.90845 356.000
36.92840 397.000
36.94835 442.000
36.96829 482.000
36.98824 644.000
37.00819 668.000
37.02813 833.000
37.04808 881.000
37.06803 1007.000
37.08797 1110.000
37.10792 1128.000
37.12787 1253.000
37.14781 1277.000
37.16776 1137.000
37.18771 1049.000
37.20766 948.000
37.22760 859.000
37.24755 694.000
37.26750 613.000
37.28744 529.000
37.30739 434.000
37.32734 371.000
37.34728 314.000
37.36723 295.000
37.38718 259.000
37.40713 231.000
37.42707 228.000
37.44702 209.000
37.46697 235.000
37.48691 221.000
37.50686 215.000
37.52681 194.000
37.54675 207.000
37.56670 199.000
37.58665 189.000
37.60660 199.000
37.62654 191.000
37.64649 180.000
37.66644 187.000
37.68638 206.000
37.70633 202.000
37.72628 199.000
37.74622 198.000
37.76617 177.000
37.78612 208.000
37.80606 199.000
37.82601 191.000
37.84596 191.000
37.86591 201.000
37.88585 195.000
37.90580 212.000
37.92575 171.000
37.94569 196.000
37.96564 173.000
37.98559 177.000
38.00553 184.000
38.02548 169.000
38.04543 200.000
38.06538 194.000
38.08532 195.000
38.10527 205.000
38.12522 202.000
38.14516 161.000
38.16511 204.000
38.18506 190.000
38.20500 208.000
38.22495 192.000
38.24490 180.000
38.26484 217.000
38.28479 214.000
38.30474 203.000
38.32469 195.000
38.34463 201.000
38.36458 201.000
38.38453 199.000
38.40447 216.000
38.42442 201.000
38.44437 179.000
38.46431 206.000
38.48426 217.000
38.50421 221.000
38.52416 208.000
38.54410 235.000
38.56405 234.000
38.58400 258.000
38.60394 236.000
38.62389 271.000
38.64384 260.000
38.66378 266.000
38.68373 287.000
38.70368 274.000
38.72362 301.000
38.74357 307.000
38.76352 310.000
38.78347 269.000
38.80341 242.000
38.82336 243.000
38.84331 268.000
38.86325 280.000
38.88320 252.000
38.90315 275.000
38.92309 272.000
38.94304 254.000
38.96299 276.000
38.98294 277.000
39.00288 286.000
39.02283 276.000
39.04278 293.000
39.06272 316.000
39.08267 368.000
39.10262 360.000
39.12256 424.000
39.14251 447.000
39.16246 551.000
39.18241 599.000
39.20235 671.000
39.22230 804.000
39.24225 915.000
39.26219 1094.000
39.28214 1291.000
39.30209 1479.000
39.32203 1503.000
39.34198 1654.000
39.36193 1575.000
39.38187 1623.000
39.40182 1546.000
39.42177 1427.000
39.44172 1268.000
39.46166 1073.000
39.48161 958.000
39.50156 903.000
39.52150 738.000
39.54145 584.000
39.56140 524.000
39.58134 455.000
39.60129 349.000
39.62124 330.000
39.64119 312.000
39.66113 290.000
39.68108 263.000
39.70103 254.000
39.72097 235.000
39.74092 245.000
39.76087 234.000
39.78081 226.000
39.80076 233.000
39.82071 195.000
39.84065 218.000
39.86060 202.000
39.88055 183.000
39.90050 209.000
39.92044 187.000
39.94039 213.000
39.96034 212.000
39.98028 189.000
40.00023 182.000
40.02018 211.000
40.04012 182.000
40.06007 171.000
40.08002 210.000
40.09997 197.000
40.11991 177.000
40.13986 195.000
40.15981 203.000
40.17975 170.000
40.19970 159.000
40.21965 166.000
40.23959 160.000
40.25954 186.000
40.27949 205.000
40.29943 164.000
40.31938 164.000
40.33933 171.000
40.35928 184.000
40.37922 178.000
40.39917 188.000
40.41912 164.000
40.43906 175.000
40.45901 169.000
40.47896 182.000
40.49890 164.000
40.51885 169.000
40.53880 169.000
40.55875 163.000
40.57869 199.000
40.59864 177.000
40.61859 170.000
40.63853 179.000
40.65848 178.000
40.67843 178.000
40.69837 182.000
40.71832 189.000
40.73827 168.000
40.75822 185.000
40.77816 188.000
40.79811 166.000
40.81806 183.000
40.83800 203.000
40.85795 159.000
40.87790 171.000
40.89784 183.000
40.91779 178.000
40.93774 190.000
40.95768 168.000
40.97763 184.000
40.99758 171.000
41.01753 172.000
41.03747 191.000
41.05742 196.000
41.07737 182.000
41.09731 179.000
41.11726 204.000
41.13721 192.000
41.15715 171.000
41.17710 178.000
41.19705 185.000
41.21700 172.000
41.23694 183.000
41.25689 172.000
41.27684 176.000
41.29678 197.000
41.31673 166.000
41.33668 172.000
41.35662 147.000
41.37657 190.000
41.39652 154.000
41.41646 160.000
41.43641 199.000
41.45636 173.000
41.47631 175.000
41.49625 178.000
41.51620 187.000
41.53615 180.000
41.55609 185.000
41.57604 222.000
41.59599 189.000
41.61593 180.000
41.63588 202.000
41.65583 162.000
41.67578 214.000
41.69572 193.000
41.71567 200.000
41.73562 198.000
41.75556 193.000
41.77551 183.000
41.79546 197.000
41.81540 203.000
41.83535 186.000
41.85530 187.000
41.87524 172.000
41.89519 192.000
41.91514 187.000
41.93509 143.000
41.95503 176.000
41.97498 187.000
41.99493 203.000
42.01487 165.000
42.03482 186.000
42.05477 175.000
42.07471 208.000
42.09466 164.000
42.11461 175.000
42.13456 194.000
42.15450 174.000
42.17445 172.000
42.19440 195.000
42.21434 177.000
42.23429 178.000
42.25424 190.000
42.27418 197.000
42.29413 203.000
42.31408 218.000
42.33403 185.000
42.35397 187.000
42.37392 202.000
42.39387 172.000
42.41381 201.000
42.43376 227.000
42.45371 203.000
42.47365 225.000
42.49360 199.000
42.51355 220.000
42.53349 199.000
42.55344 225.000
42.57339 211.000
42.59334 243.000
42.61328 235.000
42.63323 227.000
42.65318 235.000
42.67312 235.000
42.69307 238.000
42.71302 272.000
42.73296 297.000
42.75291 300.000
42.77286 292.000
42.79281 328.000
42.81275 348.000
42.83270 368.000
42.85265 417.000
42.87259 405.000
42.89254 543.000
42.91249 545.000
42.93243 591.000
42.95238 641.000
42.97233 673.000
42.99227 802.000
43.01222 860.000
43.03217 966.000
43.05212 1097.000
43.07206 1143.000
43.09201 1175.000
43.11196 1225.000
43.13190 1306.000
43.15185 1430.000
43.17180 1347.000
43.19174 1339.000
43.21169 1310.000
43.23164 1302.000
43.25159 1167.000
43.27153 1176.000
43.29148 999.000
43.31143 975.000
43.33137 930.000
43.35132 914.000
43.37127 942.000
43.39121 959.000
43.41116 885.000
43.43111 845.000
43.45105 855.000
43.47100 839.000
43.49095 821.000
43.51090 805.000
43.53084 756.000
43.55079 660.000
43.57074 641.000
43.59068 596.000
43.61063 539.000
43.63058 451.000
43.65052 412.000
43.67047 352.000
43.69042 304.000
43.71037 299.000
43.73031 290.000
43.75026 253.000
43.77021 253.000
43.79015 239.000
43.81010 198.000
43.83005 213.000
43.84999 210.000
43.86994 199.000
43.88989 181.000
43.90984 223.000
43.92978 203.000
43.94973 191.000
43.96968 205.000
43.98962 187.000
44.00957 191.000
44.02952 188.000
44.04946 202.000
44.06941 198.000
44.08936 188.000
44.10930 168.000
44.12925 174.000
44.14920 162.000
44.16915 179.000
44.18909 165.000
44.20904 195.000
44.22899 187.000
44.24893 177.000
44.26888 210.000
44.28883 188.000
44.30877 167.000
44.32872 179.000
44.34867 179.000
44.36862 172.000
44.38856 178.000
44.40851 168.000
44.42846 169.000
44.44840 181.000
44.46835 174.000
44.48830 165.000
44.50824 169.000
44.52819 174.000
44.54814 181.000
44.56808 197.000
44.58803 209.000
44.60798 181.000
44.62793 176.000
44.64787 160.000
44.66782 182.000
44.68777 170.000
44.70771 213.000
44.72766 180.000
44.74761 190.000
44.76755 178.000
44.78750 211.000
44.80745 213.000
44.82740 161.000
44.84734 170.000
44.86729 196.000
44.88724 181.000
44.90718 186.000
44.92713 201.000
44.94708 167.000
44.96702 160.000
44.98697 215.000
45.00692 208.000
45.02686 167.000
45.04681 202.000
45.06676 170.000
45.08671 141.000
45.10665 198.000
45.12660 177.000
45.14655 187.000
45.16649 191.000
45.18644 166.000
45.20639 199.000
45.22633 182.000
45.24628 170.000
45.26623 163.000
45.28618 155.000
45.30612 194.000
45.32607 162.000
45.34602 172.000
45.36596 165.000
45.38591 153.000
45.40586 180.000
45.42580 159.000
45.44575 133.000
45.46570 169.000
45.48565 152.000
45.50559 177.000
45.52554 184.000
45.54549 174.000
45.56543 178.000
45.58538 160.000
45.60533 190.000
45.62527 159.000
45.64522 169.000
45.66517 175.000
45.68511 153.000
45.70506 146.000
45.72501 188.000
45.74496 192.000
45.76490 145.000
45.78485 166.000
45.80480 154.000
45.82474 192.000
45.84469 174.000
45.86464 163.000
45.88458 154.000
45.90453 157.000
45.92448 168.000
45.94443 155.000
45.96437 172.000
45.98432 161.000
46.00427 191.000
46.02421 164.000
46.04416 158.000
46.06411 181.000
46.08405 155.000
46.10400 152.000
46.12395 160.000
46.14389 159.000
46.16384 171.000
46.18379 181.000
46.20374 165.000
46.22368 167.000
46.24363 158.000
46.26358 184.000
46.28352 159.000
46.30347 171.000
46.32342 149.000
46.34336 161.000
46.36331 160.000
46.38326 180.000
46.40321 183.000
46.42315 187.000
46.44310 201.000
46.46305 152.000
46.48299 178.000
46.50294 161.000
46.52289 181.000
46.54283 179.000
46.56278 132.000
46.58273 197.000
46.60267 171.000
46.62262 185.000
46.64257 162.000
46.66252 152.000
46.68246 157.000
46.70241 144.000
46.72236 174.000
46.74230 174.000
46.76225 152.000
46.78220 173.000
46.80214 182.000
46.82209 183.000
46.84204 172.000
46.86199 152.000
46.88193 164.000
46.90188 168.000
46.92183 165.000
46.94177 170.000
46.96172 149.000
46.98167 156.000
47.00161 158.000
47.02156 172.000
47.04151 188.000
47.06146 165.000
47.08140 162.000
47.10135 168.000
47.12130 188.000
47.14124 158.000
47.16119 167.000
47.18114 168.000
47.20108 174.000
47.22103 174.000
47.24098 171.000
47.26092 151.000
47.28087 170.000
47.30082 174.000
47.32077 180.000
47.34071 172.000
47.36066 190.000
47.38061 181.000
47.40055 164.000
47.42050 169.000
47.44045 180.000
47.46039 154.000
47.48034 172.000
47.50029 166.000
47.52024 161.000
47.54018 168.000
47.56013 171.000
47.58008 203.000
47.60002 172.000
47.61997 177.000
47.63992 186.000
47.65986 172.000
47.67981 172.000
47.69976 152.000
47.71970 190.000
47.73965 185.000
47.75960 155.000
47.77955 195.000
47.79949 175.000
47.81944 174.000
47.83939 165.000
47.85933 188.000
47.87928 173.000
47.89923 180.000
47.91917 185.000
47.93912 170.000
47.95907 163.000
47.97902 198.000
47.99896 185.000
48.01891 194.000
48.03886 187.000
48.05880 199.000
48.07875 174.000
48.09870 179.000
48.11864 212.000
48.13859 198.000
48.15854 185.000
48.17848 202.000
48.19843 221.000
48.21838 208.000
48.23833 216.000
48.25827 217.000
48.27822 240.000
48.29817 226.000
48.31811 199.000
48.33806 254.000
48.35801 231.000
48.37795 236.000
48.39790 285.000
48.41785 241.000
48.43780 260.000
48.45774 264.000
48.47769 287.000
48.49764 351.000
48.51758 331.000
48.53753 400.000
48.55748 420.000
48.57742 431.000
48.59737 519.000
48.61732 610.000
48.63726 738.000
48.65721 853.000
48.67716 1047.000
48.69711 1142.000
48.71705 1216.000
48.73700 1368.000
48.75695 1466.000
48.77689 1536.000
48.79684 1496.000
48.81679 1469.000
48.83673 1422.000
48.85668 1237.000
48.87663 1205.000
48.89658 1072.000
48.91652 989.000
48.93647 863.000
48.95642 730.000
48.97636 640.000
48.99631 646.000
49.01626 449.000
49.03620 415.000
49.05615 363.000
49.07610 344.000
49.09605 296.000
49.11599 282.000
49.13594 277.000
49.15589 261.000
49.17583 242.000
49.19578 210.000
49.21573 232.000
49.23567 234.000
49.25562 216.000
49.27557 223.000
49.29551 214.000
49.31546 188.000
49.33541 204.000
49.35536 217.000
49.37530 200.000
49.39525 178.000
49.41520 219.000
49.43514 190.000
49.45509 197.000
49.47504 191.000
49.49498 193.000
49.51493 188.000
49.53488 187.000
49.55483 180.000
49.57477 204.000
49.59472 200.000
49.61467 199.000
49.63461 182.000
49.65456 214.000
49.67451 189.000
49.69445 202.000
49.71440 202.000
49.73435 181.000
49.75429 182.000
49.77424 165.000
49.79419 177.000
49.81414 180.000
49.83408 178.000
49.85403 185.000
49.87398 148.000
49.89392 215.000
49.91387 180.000
49.93382 207.000
49.95376 170.000
49.97371 170.000
49.99366 183.000
50.01361 207.000
50.03355 206.000
50.05350 177.000
50.07345 188.000
50.09339 178.000
50.11334 177.000
50.13329 155.000
50.15323 170.000
50.17318 187.000
50.19313 177.000
50.21307 154.000
50.23302 160.000
50.25297 164.000
50.27292 158.000
50.29286 187.000
50.31281 165.000
50.33276 181.000
50.35270 206.000
50.37265 152.000
50.39260 176.000
50.41254 184.000
50.43249 169.000
50.45244 161.000
50.47239 154.000
50.49233 146.000
50.51228 177.000
50.53223 152.000
50.55217 155.000
50.57212 150.000
50.59207 163.000
50.61201 164.000
50.63196 167.000
50.65191 145.000
50.67186 162.000
50.69180 151.000
50.71175 173.000
50.73170 171.000
50.75164 162.000
50.77159 169.000
50.79154 146.000
50.81148 152.000
50.83143 167.000
50.85138 165.000
50.87132 176.000
50.89127 145.000
50.91122 166.000
50.93117 149.000
50.95111 149.000
50.97106 164.000
50.99101 165.000
51.01095 149.000
51.03090 150.000
51.05085 178.000
51.07079 166.000
51.09074 183.000
51.11069 135.000
51.13064 161.000
51.15058 160.000
51.17053 145.000
51.19048 171.000
51.21042 151.000
51.23037 152.000
51.25032 180.000
51.27026 141.000
51.29021 168.000
51.31016 176.000
51.33010 153.000
51.35005 145.000
51.37000 157.000
51.38995 154.000
51.40989 165.000
51.42984 161.000
51.44979 160.000
51.46973 163.000
51.48968 138.000
51.50963 163.000
51.52957 154.000
51.54952 152.000
51.56947 172.000
51.58942 166.000
51.60936 170.000
51.62931 165.000
51.64926 138.000
51.66920 164.000
51.68915 146.000
51.70910 152.000
51.72904 183.000
51.74899 144.000
51.76894 177.000
51.78888 158.000
51.80883 168.000
51.82878 172.000
51.84873 145.000
51.86867 154.000
51.88862 161.000
51.90857 163.000
51.92851 159.000
51.94846 187.000
51.96841 185.000
51.98835 164.000
52.00830 172.000
52.02825 172.000
52.04820 162.000
52.06814 176.000
52.08809 166.000
52.10804 157.000
52.12798 184.000
52.14793 174.000
52.16788 173.000
52.18782 159.000
52.20777 166.000
52.22772 148.000
52.24767 166.000
52.26761 139.000
52.28756 163.000
52.30751 140.000
52.32745 154.000
52.34740 152.000
52.36735 150.000
52.38729 161.000
52.40724 171.000
52.42719 150.000
52.44713 154.000
52.46708 148.000
52.48703 145.000
52.50698 159.000
52.52692 164.000
52.54687 162.000
52.56682 141.000
52.58676 146.000
52.60671 159.000
52.62666 163.000
52.64660 149.000
52.66655 143.000
52.68650 158.000
52.70645 160.000
52.72639 161.000
52.74634 155.000
52.76629 162.000
52.78623 160.000
52.80618 174.000
52.82613 149.000
52.84607 169.000
52.86602 162.000
52.88597 157.000
52.90591 147.000
52.92586 153.000
52.94581 139.000
52.96576 153.000
52.98570 148.000
53.00565 181.000
53.02560 157.000
53.04554 157.000
53.06549 148.000
53.08544 179.000
53.10538 166.000
53.12533 156.000
53.14528 165.000
53.16523 178.000
53.18517 167.000
53.20512 146.000
53.22507 147.000
53.24501 152.000
53.26496 183.000
53.28491 149.000
53.30485 139.000
53.32480 161.000
53.34475 163.000
53.36469 144.000
53.38464 181.000
53.40459 167.000
53.42454 164.000
53.44448 157.000
53.46443 170.000
53.48438 149.000
53.50432 152.000
53.52427 183.000
53.54422 161.000
53.56416 179.000
53.58411 195.000
53.60406 149.000
53.62401 142.000
53.64395 153.000
53.66390 182.000
53.68385 157.000
53.70379 159.000
53.72374 166.000
53.74369 154.000
53.76363 151.000
53.78358 161.000
53.80353 179.000
53.82348 164.000
53.84342 173.000
53.86337 188.000
53.88332 163.000
53.90326 177.000
53.92321 185.000
53.94316 159.000
53.96310 165.000
53.98305 170.000
54.00300 168.000
54.02294 134.000
54.04289 162.000
54.06284 153.000
54.08279 159.000
54.10273 182.000
54.12268 198.000
54.14263 176.000
54.16257 165.000
54.18252 176.000
54.20247 159.000
54.22241 145.000
54.24236 184.000
54.26231 160.000
54.28226 166.000
54.30220 165.000
54.32215 171.000
54.34210 159.000
54.36204 143.000
54.38199 171.000
54.40194 151.000
54.42188 165.000
54.44183 174.000
54.46178 163.000
54.48172 157.000
54.50167 151.000
54.52162 167.000
54.54157 182.000
54.56151 148.000
54.58146 153.000
54.60141 168.000
54.62135 148.000
54.64130 167.000
54.66125 167.000
54.68119 163.000
54.70114 153.000
54.72109 159.000
54.74104 166.000
54.76098 159.000
54.78093 171.000
54.80088 184.000
54.82082 161.000
54.84077 153.000
54.86072 189.000
54.88066 172.000
54.90061 135.000
54.92056 168.000
54.94050 149.000
54.96045 136.000
54.98040 156.000
55.00035 188.000
55.02029 174.000
55.04024 183.000
55.06019 171.000
55.08013 160.000
55.10008 169.000
55.12003 173.000
55.13997 143.000
55.15992 166.000
55.17987 145.000
55.19982 148.000
55.21976 160.000
55.23971 158.000
55.25966 167.000
55.27960 167.000
55.29955 160.000
55.31950 152.000
55.33944 171.000
55.35939 142.000
55.37934 157.000
55.39929 137.000
55.41923 157.000
55.43918 156.000
55.45913 172.000
55.47907 158.000
55.49902 130.000
55.51897 176.000
55.53891 157.000
55.55886 132.000
55.57881 169.000
55.59875 156.000
55.61870 173.000
55.63865 166.000
55.65860 155.000
55.67854 189.000
55.69849 148.000
55.71844 191.000
55.73838 137.000
55.75833 180.000
55.77828 168.000
55.79822 137.000
55.81817 162.000
55.83812 176.000
55.85807 149.000
55.87801 169.000
55.89796 158.000
55.91791 163.000
55.93785 175.000
55.95780 130.000
55.97775 130.000
55.99769 148.000
56.01764 154.000
56.03759 130.000
56.05753 156.000
56.07748 156.000
56.09743 151.000
56.11738 161.000
56.13732 151.000
56.15727 141.000
56.17722 164.000
56.19716 144.000
56.21711 162.000
56.23706 166.000
56.25700 175.000
56.27695 151.000
56.29690 170.000
56.31685 149.000
56.33679 180.000
56.35674 148.000
56.37669 147.000
56.39663 164.000
56.41658 164.000
56.43653 169.000
56.45647 159.000
56.47642 175.000
56.49637 161.000
56.51631 155.000
56.53626 160.000
56.55621 159.000
56.57616 176.000
56.59610 168.000
56.61605 156.000
56.63600 171.000
56.65594 154.000
56.67589 152.000
56.69584 147.000
56.71578 171.000
56.73573 163.000
56.75568 166.000
56.77563 157.000
56.79557 179.000
56.81552 173.000
56.83547 166.000
56.85541 186.000
56.87536 168.000
56.89531 166.000
56.91525 162.000
56.93520 171.000
56.95515 163.000
56.97510 158.000
56.99504 165.000
57.01499 156.000
57.03494 171.000
57.05488 178.000
57.07483 171.000
57.09478 181.000
57.11472 161.000
57.13467 166.000
57.15462 180.000
57.17456 186.000
57.19451 189.000
57.21446 176.000
57.23441 186.000
57.25435 191.000
57.27430 193.000
57.29425 158.000
57.31419 180.000
57.33414 180.000
57.35409 187.000
57.37403 181.000
57.39398 204.000
57.41393 232.000
57.43388 216.000
57.45382 204.000
57.47377 224.000
57.49372 200.000
57.51366 191.000
57.53361 175.000
57.55356 178.000
57.57350 194.000
57.59345 178.000
57.61340 195.000
57.63334 169.000
57.65329 187.000
57.67324 194.000
57.69319 171.000
57.71313 159.000
57.73308 163.000
57.75303 153.000
57.77297 163.000
57.79292 157.000
57.81287 171.000
57.83281 162.000
57.85276 169.000
57.87271 140.000
57.89266 152.000
57.91260 170.000
57.93255 162.000
57.95250 180.000
57.97244 171.000
57.99239 148.000
58.01234 177.000
58.03228 146.000
58.05223 167.000
58.07218 152.000
58.09212 171.000
58.11207 180.000
58.13202 182.000
58.15197 202.000
58.17191 180.000
58.19186 162.000
58.21181 188.000
58.23175 184.000
58.25170 151.000
58.27165 186.000
58.29159 197.000
58.31154 148.000
58.33149 172.000
58.35144 186.000
58.37138 189.000
58.39133 172.000
58.41128 185.000
58.43122 178.000
58.45117 177.000
58.47112 167.000
58.49106 168.000
58.51101 151.000
58.53096 178.000
58.55090 176.000
58.57085 181.000
58.59080 161.000
58.61075 140.000
58.63069 183.000
58.65064 155.000
58.67059 153.000
58.69053 165.000
58.71048 158.000
58.73043 151.000
58.75037 160.000
58.77032 186.000
58.79027 157.000
58.81022 166.000
58.83016 190.000
58.85011 159.000
58.87006 155.000
58.89000 184.000
58.90995 179.000
58.92990 132.000
58.94984 160.000
58.96979 157.000
58.98974 186.000
59.00969 160.000
59.02963 175.000
59.04958 173.000
59.06953 151.000
59.08947 175.000
59.10942 157.000
59.12937 161.000
59.14931 155.000
59.16926 157.000
59.18921 161.000
59.20915 145.000
59.22910 150.000
59.24905 181.000
59.26900 161.000
59.28894 167.000
59.30889 166.000
59.32884 153.000
59.34878 143.000
59.36873 167.000
59.38868 176.000
59.40862 175.000
59.42857 163.000
59.44852 155.000
59.46847 161.000
59.48841 160.000
59.50836 153.000
59.52831 159.000
59.54825 149.000
59.56820 144.000
59.58815 164.000
59.60809 165.000
59.62804 159.000
59.64799 144.000
59.66793 150.000
59.68788 168.000
59.70783 199.000
59.72778 180.000
59.74772 181.000
59.76767 168.000
59.78762 177.000
59.80756 187.000
59.82751 163.000
59.84746 155.000
59.86740 202.000
59.88735 157.000
59.90730 169.000
59.92725 144.000
59.94719 164.000
59.96714 172.000
59.98709 179.000
60.00703 168.000
60.02698 177.000
60.04693 161.000
60.06687 183.000
60.08682 189.000
60.10677 165.000
60.12671 168.000
60.14666 156.000
60.16661 169.000
60.18656 166.000
60.20650 170.000
60.22645 156.000
60.24640 199.000
60.26634 167.000
60.28629 163.000
60.30624 190.000
60.32618 147.000
60.34613 162.000
60.36608 180.000
60.38603 160.000
60.40597 177.000
60.42592 172.000
60.44587 167.000
60.46581 171.000
60.48576 151.000
60.50571 166.000
60.52565 168.000
60.54560 173.000
60.56555 152.000
60.58550 171.000
60.60544 175.000
60.62539 157.000
60.64534 187.000
60.66528 172.000
60.68523 140.000
60.70518 190.000
60.72512 176.000
60.74507 190.000
60.76502 176.000
60.78496 168.000
60.80491 166.000
60.82486 156.000
60.84481 191.000
60.86475 177.000
60.88470 173.000
60.90465 171.000
60.92459 150.000
60.94454 172.000
60.96449 152.000
60.98443 182.000
61.00438 182.000
61.02433 183.000
61.04428 159.000
61.06422 150.000
61.08417 159.000
61.10412 150.000
61.12406 162.000
61.14401 151.000
61.16396 180.000
61.18390 170.000
61.20385 163.000
61.22380 199.000
61.24374 181.000
61.26369 205.000
61.28364 181.000
61.30359 180.000
61.32353 188.000
61.34348 182.000
61.36343 182.000
61.38337 177.000
61.40332 189.000
61.42327 192.000
61.44321 204.000
61.46316 189.000
61.48311 198.000
61.50306 218.000
61.52300 195.000
61.54295 213.000
61.56290 180.000
61.58284 251.000
61.60279 221.000
61.62274 234.000
61.64268 220.000
61.66263 220.000
61.68258 273.000
61.70252 232.000
61.72247 243.000
61.74242 232.000
61.76237 276.000
61.78231 268.000
61.80226 289.000
61.82221 308.000
61.84215 317.000
61.86210 342.000
61.88205 306.000
61.90199 395.000
61.92194 411.000
61.94189 496.000
61.96184 545.000
61.98178 589.000
62.00173 605.000
62.02168 668.000
62.04162 749.000
62.06157 716.000
62.08152 724.000
62.10146 715.000
62.12141 664.000
62.14136 704.000
62.16131 643.000
62.18125 620.000
62.20120 601.000
62.22115 561.000
62.24109 577.000
62.26104 518.000
62.28099 569.000
62.30093 465.000
62.32088 486.000
62.34083 425.000
62.36077 461.000
62.38072 416.000
62.40067 443.000
62.42062 437.000
62.44056 431.000
62.46051 456.000
62.48046 477.000
62.50040 561.000
62.52035 555.000
62.54030 568.000
62.56024 598.000
62.58019 614.000
62.60014 629.000
62.62009 713.000
62.64003 704.000
62.65998 697.000
62.67993 729.000
62.69987 729.000
62.71982 698.000
62.73977 711.000
62.75971 664.000
62.77966 628.000
62.79961 576.000
62.81955 553.000
62.83950 556.000
62.85945 523.000
62.87940 471.000
62.89934 478.000
62.91929 431.000
62.93924 386.000
62.95918 358.000
62.97913 365.000
62.99908 314.000
63.01902 328.000
63.03897 306.000
63.05892 289.000
63.07887 288.000
63.09881 268.000
63.11876 256.000
63.13871 236.000
63.15865 254.000
63.17860 257.000
63.19855 229.000
63.21849 219.000
63.23844 220.000
63.25839 193.000
63.27833 203.000
63.29828 237.000
63.31823 208.000
63.33818 169.000
63.35812 193.000
63.37807 199.000
63.39802 172.000
63.41796 174.000
63.43791 206.000
63.45786 179.000
63.47780 187.000
63.49775 220.000
63.51770 206.000
63.53765 183.000
63.55759 187.000
63.57754 211.000
63.59749 180.000
63.61743 175.000
63.63738 174.000
63.65733 170.000
63.67727 194.000
63.69722 175.000
63.71717 182.000
63.73712 187.000
63.75706 194.000
63.77701 174.000
63.79696 201.000
63.81690 194.000
63.83685 207.000
63.85680 194.000
63.87674 194.000
63.89669 196.000
63.91664 232.000
63.93658 211.000
63.95653 239.000
63.97648 238.000
63.99643 238.000
64.01637 269.000
64.03632 279.000
64.05627 266.000
64.07621 300.000
64.09616 329.000
64.11611 352.000
64.13605 376.000
64.15600 415.000
64.17595 418.000
64.19590 438.000
64.21584 462.000
64.23579 480.000
64.25574 526.000
64.27568 504.000
64.29563 531.000
64.31558 525.000
64.33552 502.000
64.35547 497.000
64.37542 465.000
64.39536 436.000
64.41531 450.000
64.43526 428.000
64.45521 449.000
64.47515 359.000
64.49510 352.000
64.51505 361.000
64.53499 353.000
64.55494 300.000
64.57489 313.000
64.59483 259.000
64.61478 262.000
64.63473 255.000
64.65468 227.000
64.67462 187.000
64.69457 213.000
64.71452 227.000
64.73446 209.000
64.75441 198.000
64.77436 197.000
64.79430 202.000
64.81425 182.000
64.83420 186.000
64.85414 185.000
64.87409 181.000
64.89404 189.000
64.91399 190.000
64.93393 187.000
64.95388 188.000
64.97383 167.000
64.99377 172.000
65.01372 172.000
65.03367 158.000
65.05361 200.000
65.07356 171.000
65.09351 181.000
65.11346 173.000
65.13340 174.000
65.15335 164.000
65.17330 170.000
65.19324 179.000
65.21319 193.000
65.23314 169.000
65.25308 181.000
65.27303 190.000
65.29298 192.000
65.31293 176.000
65.33287 209.000
65.35282 157.000
65.37277 180.000
65.39271 181.000
65.41266 198.000
65.43261 152.000
65.45255 186.000
65.47250 185.000
65.49245 181.000
65.51239 177.000
65.53234 177.000
65.55229 183.000
65.57224 192.000
65.59218 163.000
65.61213 179.000
65.63208 173.000
65.65202 187.000
65.67197 177.000
65.69192 183.000
65.71186 189.000
65.73181 177.000
65.75176 166.000
65.77171 220.000
65.79165 198.000
65.81160 174.000
65.83155 192.000
65.85149 173.000
65.87144 188.000
65.89139 188.000
65.91133 168.000
65.93128 186.000
65.95123 184.000
65.97117 152.000
65.99112 182.000
66.01107 166.000
66.03102 174.000
66.05096 205.000
66.07091 174.000
66.09086 174.000
66.11080 221.000
66.13075 198.000
66.15070 178.000
66.17064 209.000
66.19059 186.000
66.21054 226.000
66.23049 215.000
66.25043 201.000
66.27038 215.000
66.29033 186.000
66.31027 202.000
66.33022 208.000
66.35017 191.000
66.37011 224.000
66.39006 198.000
66.41001 240.000
66.42995 232.000
66.44990 257.000
66.46985 253.000
66.48980 290.000
66.50974 275.000
66.52969 308.000
66.54964 316.000
66.56958 372.000
66.58953 319.000
66.60948 345.000
66.62942 379.000
66.64937 407.000
66.66932 415.000
66.68927 383.000
66.70921 429.000
66.72916 400.000
66.74911 355.000
66.76905 377.000
66.78900 368.000
66.80895 357.000
66.82889 346.000
66.84884 359.000
66.86879 343.000
66.88874 346.000
66.90868 363.000
66.92863 355.000
66.94858 307.000
66.96852 324.000
66.98847 313.000
67.00842 292.000
67.02836 276.000
67.04831 312.000
67.06826 292.000
67.08820 263.000
67.10815 275.000
67.12810 258.000
67.14805 238.000
67.16799 263.000
67.18794 207.000
67.20789 249.000
67.22783 228.000
67.24778 226.000
67.26773 203.000
67.28767 184.000
67.30762 203.000
67.32757 191.000
67.34752 178.000
67.36746 212.000
67.38741 190.000
67.40736 177.000
67.42730 209.000
67.44725 170.000
67.46720 167.000
67.48714 144.000
67.50709 193.000
67.52704 185.000
67.54698 168.000
67.56693 166.000
67.58688 170.000
67.60683 192.000
67.62677 146.000
67.64672 163.000
67.66667 177.000
67.68661 168.000
67.70656 185.000
67.72651 183.000
67.74645 186.000
67.76640 176.000
67.78635 167.000
67.80630 188.000
67.82624 159.000
67.84619 184.000
67.86614 166.000
67.88608 201.000
67.90603 198.000
67.92598 188.000
67.94592 168.000
67.96587 158.000
67.98582 194.000
68.00576 157.000
68.02571 157.000
68.04566 182.000
68.06561 161.000
68.08555 176.000
68.10550 186.000
68.12545 183.000
68.14539 166.000
68.16534 160.000
68.18529 183.000
68.20523 169.000
68.22518 166.000
68.24513 156.000
68.26508 176.000
68.28502 180.000
68.30497 169.000
68.32492 150.000
68.34486 187.000
68.36481 165.000
68.38476 140.000
68.40470 155.000
68.42465 166.000
68.44460 159.000
68.46455 157.000
68.48449 179.000
68.50444 165.000
68.52439 200.000
68.54433 154.000
68.56428 157.000
68.58423 177.000
68.60417 160.000
68.62412 159.000
68.64407 159.000
68.66401 152.000
68.68396 176.000
68.70391 204.000
68.72386 160.000
68.74380 163.000
68.76375 167.000
68.78370 137.000
68.80364 168.000
68.82359 160.000
68.84354 176.000
68.86348 174.000
68.88343 176.000
68.90338 155.000
68.92333 154.000
68.94327 179.000
68.96322 164.000
68.98317 161.000
69.00311 170.000
69.02306 157.000
69.04301 161.000
69.06295 156.000
69.08290 144.000
69.10285 157.000
69.12279 144.000
69.14274 163.000
69.16269 160.000
69.18264 167.000
69.20258 152.000
69.22253 173.000
69.24248 164.000
69.26242 158.000
69.28237 167.000
69.30232 150.000
69.32226 159.000
69.34221 167.000
69.36216 155.000
69.38211 166.000
69.40205 167.000
69.42200 187.000
69.44195 170.000
69.46189 175.000
69.48184 150.000
69.50179 182.000
69.52173 161.000
69.54168 159.000
69.56163 170.000
69.58157 146.000
69.60152 150.000
69.62147 174.000
69.64142 184.000
69.66136 132.000
69.68131 172.000
69.70126 166.000
69.72120 181.000
69.74115 155.000
69.76110 178.000
69.78104 192.000
69.80099 185.000
69.82094 164.000
69.84089 170.000
69.86083 166.000
69.88078 162.000
69.90073 137.000
69.92067 157.000
69.94062 155.000
69.96057 195.000
69.98051 144.000
70.00046 168.000
70.02041 167.000
70.04035 179.000
70.06030 189.000
70.08025 166.000
70.10020 157.000
70.12014 157.000
70.14009 158.000
70.16004 184.000
70.17998 166.000
70.19993 164.000
70.21988 146.000
70.23982 154.000
70.25977 150.000
70.27972 172.000
70.29967 156.000
70.31961 183.000
70.33956 165.000
70.35951 146.000
70.37945 166.000
70.39940 151.000
70.41935 157.000
70.43929 155.000
70.45924 172.000
70.47919 155.000
70.49914 170.000
70.51908 148.000
70.53903 169.000
70.55898 149.000
70.57892 143.000
70.59887 181.000
70.61882 172.000
70.63876 154.000
70.65871 153.000
70.67866 156.000
70.69860 153.000
70.71855 175.000
70.73850 165.000
70.75845 156.000
70.77839 155.000
70.79834 151.000
70.81829 169.000
70.83823 135.000
70.85818 159.000
70.87813 157.000
70.89807 157.000
70.91802 136.000
70.93797 144.000
70.95792 151.000
70.97786 150.000
70.99781 149.000
71.01776 169.000
71.03770 148.000
71.05765 140.000
71.07760 169.000
71.09754 159.000
71.11749 156.000
71.13744 160.000
71.15738 158.000
71.17733 174.000
71.19728 157.000
71.21723 179.000
71.23717 166.000
71.25712 158.000
71.27707 159.000
71.29701 167.000
71.31696 146.000
71.33691 145.000
71.35685 174.000
71.37680 171.000
71.39675 170.000
71.41670 151.000
71.43664 174.000
71.45659 154.000
71.47654 180.000
71.49648 160.000
71.51643 156.000
71.53638 158.000
71.55632 167.000
71.57627 153.000
71.59622 156.000
71.61616 156.000
71.63611 165.000
71.65606 174.000
71.67601 185.000
71.69595 165.000
71.71590 131.000
71.73585 161.000
71.75579 169.000
71.77574 150.000
71.79569 159.000
71.81563 149.000
71.83558 157.000
71.85553 166.000
71.87548 162.000
71.89542 162.000
71.91537 153.000
71.93532 165.000
71.95526 170.000
71.97521 154.000
71.99516 157.000
72.01510 152.000
72.03505 200.000
72.05500 160.000
72.07495 155.000
72.09489 166.000
72.11484 173.000
72.13479 169.000
72.15473 141.000
72.17468 159.000
72.19463 150.000
72.21457 150.000
72.23452 139.000
72.25447 176.000
72.27441 144.000
72.29436 167.000
72.31431 162.000
72.33426 153.000
72.35420 175.000
72.37415 176.000
72.39410 161.000
72.41404 167.000
72.43399 154.000
72.45394 170.000
72.47388 158.000
72.49383 151.000
72.51378 160.000
72.53373 141.000
72.55367 150.000
72.57362 164.000
72.59357 140.000
72.61351 168.000
72.63346 167.000
72.65341 182.000
72.67335 163.000
72.69330 150.000
72.71325 188.000
72.73319 157.000
72.75314 159.000
72.77309 167.000
72.79304 151.000
72.81298 158.000
72.83293 181.000
72.85288 152.000
72.87282 169.000
72.89277 170.000
72.91272 160.000
72.93266 146.000
72.95261 162.000
72.97256 161.000
72.99251 180.000
73.01245 176.000
73.03240 163.000
73.05235 182.000
73.07229 156.000
73.09224 185.000
73.11219 182.000
73.13213 176.000
73.15208 160.000
73.17203 159.000
73.19197 137.000
73.21192 197.000
73.23187 175.000
73.25182 179.000
73.27176 162.000
73.29171 195.000
73.31166 175.000
73.33160 197.000
73.35155 187.000
73.37150 177.000
73.39144 199.000
73.41139 189.000
73.43134 198.000
73.45129 226.000
73.47123 233.000
73.49118 217.000
73.51113 219.000
73.53107 234.000
73.55102 240.000
73.57097 259.000
73.59091 264.000
73.61086 279.000
73.63081 275.000
73.65076 267.000
73.67070 228.000
73.69065 223.000
73.71060 248.000
73.73054 244.000
73.75049 255.000
73.77044 268.000
73.79038 259.000
73.81033 235.000
73.83028 233.000
73.85022 239.000
73.87017 210.000
73.89012 236.000
73.91007 222.000
73.93001 185.000
73.94996 170.000
73.96991 176.000
73.98985 186.000
74.00980 191.000
74.02975 184.000
74.04969 168.000
74.06964 183.000
74.08959 183.000
74.10954 165.000
74.12948 162.000
74.14943 193.000
74.16938 173.000
74.18932 159.000
74.20927 144.000
74.22922 170.000
74.24916 164.000
74.26911 167.000
74.28906 152.000
74.30900 158.000
74.32895 204.000
74.34890 169.000
74.36885 183.000
74.38879 148.000
74.40874 195.000
74.42869 184.000
74.44863 166.000
74.46858 179.000
74.48853 174.000
74.50847 188.000
74.52842 168.000
74.54837 181.000
74.56832 148.000
74.58826 202.000
74.60821 200.000
74.62816 211.000
74.64810 180.000
74.66805 182.000
74.68800 188.000
74.70794 192.000
74.72789 207.000
74.74784 202.000
74.76778 196.000
74.78773 202.000
74.80768 193.000
74.82763 225.000
74.84757 247.000
74.86752 256.000
74.88747 237.000
74.90741 245.000
74.92736 236.000
74.94731 240.000
74.96725 282.000
74.98720 257.000
75.00715 293.000
75.02710 273.000
75.04704 272.000
75.06699 261.000
75.08694 317.000
75.10688 284.000
75.12683 338.000
75.14678 318.000
75.16672 310.000
75.18667 328.000
75.20662 325.000
75.22657 336.000
75.24651 320.000
75.26646 283.000
75.28641 308.000
75.30635 274.000
75.32630 282.000
75.34625 310.000
75.36619 276.000
75.38614 268.000
75.40609 249.000
75.42603 253.000
75.44598 265.000
75.46593 271.000
75.48588 240.000
75.50582 240.000
75.52577 225.000
75.54572 209.000
75.56566 192.000
75.58561 208.000
75.60556 182.000
75.62550 188.000
75.64545 209.000
75.66540 236.000
75.68535 223.000
75.70529 221.000
75.72524 199.000
75.74519 189.000
75.76513 171.000
75.78508 204.000
75.80503 190.000
75.82497 208.000
75.84492 182.000
75.86487 217.000
75.88481 200.000
75.90476 204.000
75.92471 203.000
75.94466 196.000
75.96460 211.000
75.98455 202.000
76.00450 187.000
76.02444 183.000
76.04439 190.000
76.06434 212.000
76.08428 184.000
76.10423 187.000
76.12418 206.000
76.14413 181.000
76.16407 163.000
76.18402 180.000
76.20397 193.000
76.22391 189.000
76.24386 183.000
76.26381 174.000
76.28375 162.000
76.30370 169.000
76.32365 145.000
76.34359 172.000
76.36354 162.000
76.38349 176.000
76.40344 164.000
76.42338 154.000
76.44333 165.000
76.46328 163.000
76.48322 160.000
76.50317 169.000
76.52312 154.000
76.54306 163.000
76.56301 187.000
76.58296 174.000
76.60291 164.000
76.62285 157.000
76.64280 136.000
76.66275 153.000
76.68269 171.000
76.70264 172.000
76.72259 161.000
76.74253 162.000
76.76248 156.000
76.78243 160.000
76.80238 166.000
76.82232 160.000
76.84227 171.000
76.86222 145.000
76.88216 174.000
76.90211 173.000
76.92206 169.000
76.94200 153.000
76.96195 171.000
76.98190 158.000
77.00184 138.000
77.02179 154.000
77.04174 149.000
77.06169 147.000
77.08163 161.000
77.10158 151.000
77.12153 157.000
77.14147 183.000
77.16142 156.000
77.18137 182.000
77.20131 190.000
77.22126 143.000
77.24121 149.000
77.26116 156.000
77.28110 161.000
77.30105 177.000
77.32100 175.000
77.34094 185.000
77.36089 150.000
77.38084 165.000
77.40078 172.000
77.42073 162.000
77.44068 142.000
77.46062 158.000
77.48057 184.000
77.50052 167.000
77.52047 158.000
77.54041 193.000
77.56036 166.000
77.58031 145.000
77.60025 192.000
77.62020 165.000
77.64015 180.000
77.66009 196.000
77.68004 156.000
77.69999 187.000
77.71994 218.000
77.73988 166.000
77.75983 176.000
77.77978 234.000
77.79972 194.000
77.81967 225.000
77.83962 235.000
77.85956 222.000
77.87951 221.000
77.89946 230.000
77.91940 231.000
77.93935 250.000
77.95930 225.000
77.97925 250.000
77.99919 227.000
78.01914 270.000
78.03909 258.000
78.05903 278.000
78.07898 255.000
78.09893 241.000
78.11887 261.000
78.13882 258.000
78.15877 286.000
78.17872 281.000
78.19866 311.000
78.21861 311.000
78.23856 310.000
78.25850 325.000
78.27845 339.000
78.29840 357.000
78.31834 354.000
78.33829 315.000
78.35824 304.000
78.37819 324.000
78.39813 322.000
78.41808 312.000
78.43803 310.000
78.45797 276.000
78.47792 288.000
78.49787 291.000
78.51781 288.000
78.53776 275.000
78.55771 258.000
78.57765 260.000
78.59760 267.000
78.61755 233.000
78.63750 239.000
78.65744 223.000
78.67739 222.000
78.69734 228.000
78.71728 219.000
78.73723 242.000
78.75718 239.000
78.77712 226.000
78.79707 200.000
78.81702 220.000
78.83697 208.000
78.85691 215.000
78.87686 204.000
78.89681 208.000
78.91675 233.000
78.93670 220.000
78.95665 290.000
78.97659 232.000
78.99654 262.000
79.01649 253.000
79.03643 284.000
79.05638 307.000
79.07633 283.000
79.09628 256.000
79.11622 301.000
79.13617 288.000
79.15612 286.000
79.17606 271.000
79.19601 266.000
79.21596 255.000
79.23590 273.000
79.25585 268.000
79.27580 223.000
79.29575 263.000
79.31569 258.000
79.33564 245.000
79.35559 226.000
79.37553 257.000
79.39548 224.000
79.41543 209.000
79.43537 228.000
79.45532 199.000
79.47527 210.000
79.49521 184.000
79.51516 166.000
79.53511 177.000
79.55506 176.000
79.57500 171.000
79.59495 166.000
79.61490 152.000
79.63484 164.000
79.65479 160.000
79.67474 183.000
79.69468 188.000
79.71463 153.000
79.73458 173.000
79.75453 161.000
79.77447 169.000
79.79442 164.000
79.81437 165.000
79.83431 172.000
79.85426 161.000
79.87421 164.000
79.89415 170.000
79.91410 183.000
79.93405 174.000
79.95399 163.000
79.97394 166.000
79.99389 133.000
80.01384 142.000
80.03378 135.000
80.05373 164.000
80.07368 139.000
80.09362 154.000
80.11357 152.000
80.13352 172.000
80.15346 150.000
80.17341 169.000
80.19336 139.000
80.21331 161.000
80.23325 171.000
80.25320 176.000
80.27315 155.000
80.29309 157.000
80.31304 158.000
80.33299 180.000
80.35293 156.000
80.37288 148.000
80.39283 139.000
80.41278 165.000
80.43272 168.000
80.45267 161.000
80.47262 187.000
80.49256 145.000
80.51251 178.000
80.53246 180.000
80.55240 146.000
80.57235 176.000
80.59230 151.000
80.61224 182.000
80.63219 161.000
80.65214 172.000
80.67209 177.000
80.69203 167.000
80.71198 177.000
80.73193 188.000
80.75187 169.000
80.77182 169.000
80.79177 187.000
80.81171 165.000
80.83166 185.000
80.85161 174.000
80.87156 161.000
80.89150 191.000
80.91145 169.000
80.93140 172.000
80.95134 164.000
80.97129 156.000
80.99124 162.000
81.01118 162.000
81.03113 158.000
81.05108 168.000
81.07102 179.000
81.09097 182.000
81.11092 171.000
81.13087 179.000
81.15081 175.000
81.17076 178.000
81.19071 170.000
81.21065 165.000
81.23060 150.000
81.25055 179.000
81.27049 168.000
81.29044 167.000
81.31039 146.000
81.33034 132.000
81.35028 166.000
81.37023 170.000
81.39018 168.000
81.41012 156.000
81.43007 181.000
81.45002 159.000
81.46996 155.000
81.48991 132.000
81.50986 190.000
81.52980 159.000
81.54975 163.000
81.56970 147.000
81.58965 175.000
81.60959 143.000
81.62954 176.000
81.64949 133.000
81.66943 158.000
81.68938 136.000
81.70933 143.000
81.72927 155.000
81.74922 151.000
81.76917 171.000
81.78912 181.000
81.80906 151.000
81.82901 164.000
81.84896 158.000
81.86890 144.000
81.88885 156.000
81.90880 143.000
81.92874 159.000
81.94869 149.000
81.96864 157.000
81.98859 143.000
82.00853 157.000
82.02848 152.000
82.04843 167.000
82.06837 165.000
82.08832 156.000
82.10827 185.000
82.12821 147.000
82.14816 180.000
82.16811 157.000
82.18805 145.000
82.20800 160.000
82.22795 170.000
82.24790 145.000
82.26784 169.000
82.28779 137.000
82.30774 167.000
82.32768 142.000
82.34763 140.000
82.36758 168.000
82.38752 174.000
82.40747 178.000
82.42742 137.000
82.44737 147.000
82.46731 143.000
82.48726 178.000
82.50721 147.000
82.52715 157.000
82.54710 159.000
82.56705 129.000
82.58699 185.000
82.60694 161.000
82.62689 149.000
82.64683 151.000
82.66678 127.000
82.68673 166.000
82.70668 150.000
82.72662 152.000
82.74657 156.000
82.76652 147.000
82.78646 164.000
82.80641 146.000
82.82636 162.000
82.84630 162.000
82.86625 144.000
82.88620 156.000
82.90615 167.000
82.92609 147.000
82.94604 163.000
82.96599 129.000
82.98593 148.000
83.00588 185.000
83.02583 165.000
83.04577 161.000
83.06572 176.000
83.08567 136.000
83.10561 139.000
83.12556 160.000
83.14551 169.000
83.16546 160.000
83.18540 146.000
83.20535 164.000
83.22530 147.000
83.24524 144.000
83.26519 185.000
83.28514 171.000
83.30508 149.000
83.32503 171.000
83.34498 153.000
83.36493 171.000
83.38487 173.000
83.40482 118.000
83.42477 159.000
83.44471 159.000
83.46466 182.000
83.48461 158.000
83.50455 170.000
83.52450 172.000
83.54445 175.000
83.56440 161.000
83.58434 152.000
83.60429 146.000
83.62424 167.000
83.64418 178.000
83.66413 162.000
83.68408 162.000
83.70402 164.000
83.72397 165.000
83.74392 169.000
83.76386 170.000
83.78381 143.000
83.80376 164.000
83.82371 156.000
83.84365 175.000
83.86360 156.000
83.88355 177.000
83.90349 183.000
83.92344 144.000
83.94339 148.000
83.96333 160.000
83.98328 171.000
84.00323 161.000
84.02318 180.000
84.04312 163.000
84.06307 145.000
84.08302 156.000
84.10296 171.000
84.12291 176.000
84.14286 157.000
84.16280 152.000
84.18275 178.000
84.20270 176.000
84.22264 194.000
84.24259 176.000
84.26254 203.000
84.28249 176.000
84.30243 172.000
84.32238 183.000
84.34233 183.000
84.36227 194.000
84.38222 187.000
84.40217 213.000
84.42211 181.000
84.44206 231.000
84.46201 214.000
84.48196 221.000
84.50190 200.000
84.52185 228.000
84.54180 216.000
84.56174 252.000
84.58169 245.000
84.60164 281.000
84.62158 258.000
84.64153 243.000
84.66148 248.000
84.68142 256.000
84.70137 283.000
84.72132 252.000
84.74127 263.000
84.76121 257.000
84.78116 248.000
84.80111 244.000
84.82105 235.000
84.84100 219.000
84.86095 232.000
84.88089 252.000
84.90084 242.000
84.92079 235.000
84.94074 234.000
84.96068 199.000
84.98063 222.000
85.00058 198.000
85.02052 192.000
85.04047 203.000
85.06042 203.000
85.08036 194.000
85.10031 185.000
85.12026 171.000
85.14021 174.000
85.16015 189.000
85.18010 162.000
85.20005 204.000
85.21999 175.000
85.23994 166.000
85.25989 156.000
85.27983 175.000
85.29978 182.000
85.31973 158.000
85.33967 157.000
85.35962 170.000
85.37957 180.000
85.39952 150.000
85.41946 138.000
85.43941 138.000
85.45936 165.000
85.47930 173.000
85.49925 163.000
85.51920 166.000
85.53914 167.000
85.55909 160.000
85.57904 136.000
85.59899 134.000
85.61893 160.000
85.63888 140.000
85.65883 167.000
85.67877 149.000
85.69872 178.000
85.71867 159.000
85.73861 161.000
85.75856 142.000
85.77851 155.000
85.79845 172.000
85.81840 153.000
85.83835 144.000
85.85830 159.000
85.87824 144.000
85.89819 151.000
85.91814 146.000
85.93808 152.000
85.95803 143.000
85.97798 176.000
85.99792 127.000
86.01787 146.000
86.03782 165.000
86.05777 141.000
86.07771 146.000
86.09766 170.000
86.11761 147.000
86.13755 141.000
86.15750 141.000
86.17745 167.000
86.19739 149.000
86.21734 175.000
86.23729 142.000
86.25723 172.000
86.27718 153.000
86.29713 163.000
86.31708 158.000
86.33702 155.000
86.35697 168.000
86.37692 146.000
86.39686 156.000
86.41681 167.000
86.43676 140.000
86.45670 170.000
86.47665 155.000
86.49660 144.000
86.51655 144.000
86.53649 172.000
86.55644 146.000
86.57639 151.000
86.59633 152.000
86.61628 157.000
86.63623 175.000
86.65617 162.000
86.67612 160.000
86.69607 175.000
86.71602 162.000
86.73596 155.000
86.75591 165.000
86.77586 169.000
86.79580 158.000
86.81575 157.000
86.83570 149.000
86.85564 154.000
86.87559 146.000
86.89554 173.000
86.91548 165.000
86.93543 155.000
86.95538 175.000
86.97533 171.000
86.99527 184.000
87.01522 170.000
87.03517 177.000
87.05511 181.000
87.07506 162.000
87.09501 149.000
87.11495 185.000
87.13490 188.000
87.15485 173.000
87.17480 184.000
87.19474 170.000
87.21469 164.000
87.23464 159.000
87.25458 188.000
87.27453 188.000
87.29448 182.000
87.31442 151.000
87.33437 165.000
87.35432 179.000
87.37426 186.000
87.39421 164.000
87.41416 155.000
87.43411 177.000
87.45405 194.000
87.47400 186.000
87.49395 159.000
87.51389 190.000
87.53384 190.000
87.55379 162.000
87.57373 176.000
87.59368 195.000
87.61363 155.000
87.63358 180.000
87.65352 186.000
87.67347 193.000
87.69342 174.000
87.71336 187.000
87.73331 191.000
87.75326 177.000
87.77320 175.000
87.79315 154.000
87.81310 176.000
87.83304 187.000
87.85299 166.000
87.87294 175.000
87.89289 165.000
87.91283 169.000
87.93278 172.000
87.95273 157.000
87.97267 151.000
87.99262 190.000
88.01257 166.000
88.03251 162.000
88.05246 186.000
88.07241 158.000
88.09236 164.000
88.11230 148.000
88.13225 154.000
88.15220 176.000
88.17214 153.000
88.19209 164.000
88.21204 146.000
88.23198 160.000
88.25193 147.000
88.27188 145.000
88.29183 157.000
88.31177 162.000
88.33172 151.000
88.35167 150.000
88.37161 168.000
88.39156 141.000
88.41151 161.000
88.43145 162.000
88.45140 163.000
88.47135 143.000
88.49129 138.000
88.51124 144.000
88.53119 162.000
88.55114 137.000
88.57108 176.000
88.59103 154.000
88.61098 135.000
88.63092 152.000
88.65087 151.000
88.67082 127.000
88.69076 151.000
88.71071 159.000
88.73066 135.000
88.75061 131.000
88.77055 141.000
88.79050 173.000
88.81045 163.000
88.83039 153.000
88.85034 173.000
88.87029 168.000
88.89023 165.000
88.91018 164.000
88.93013 150.000
88.95007 152.000
88.97002 159.000
88.98997 142.000
89.00992 142.000
89.02986 155.000
89.04981 143.000
89.06976 161.000
89.08970 156.000
89.10965 153.000
89.12960 149.000
89.14954 161.000
89.16949 137.000
89.18944 174.000
89.20939 139.000
89.22933 138.000
89.24928 143.000
89.26923 159.000
89.28917 159.000
89.30912 156.000
89.32907 138.000
89.34901 156.000
89.36896 146.000
89.38891 161.000
89.40885 174.000
89.42880 139.000
89.44875 168.000
89.46870 160.000
89.48864 140.000
89.50859 150.000
89.52854 137.000
89.54848 120.000
89.56843 143.000
89.58838 167.000
89.60832 154.000
89.62827 146.000
89.64822 151.000
89.66817 165.000
89.68811 123.000
89.70806 175.000
89.72801 150.000
89.74795 152.000
89.76790 162.000
89.78785 124.000
89.80779 169.000
89.82774 159.000
89.84769 156.000
89.86764 154.000
89.88758 151.000
89.90753 141.000
89.92748 169.000
89.94742 145.000
89.96737 146.000
89.98732 166.000
90.00726 162.000
