10.00000 43.000
10.01995 44.000
10.03989 47.000
10.05984 43.000
10.07979 48.000
10.09973 39.000
10.11968 43.000
10.13963 56.000
10.15958 49.000
10.17952 49.000
10.19947 66.000
10.21942 59.000
10.23936 48.000
10.25931 59.000
10.27926 52.000
10.29920 52.000
10.31915 45.000
10.33910 57.000
10.35905 41.000
10.37899 54.000
10.39894 63.000
10.41889 46.000
10.43883 61.000
10.45878 45.000
10.47873 52.000
10.49867 42.000
10.51862 54.000
10.53857 48.000
10.55851 44.000
10.57846 52.000
10.59841 54.000
10.61836 58.000
10.63830 46.000
10.65825 46.000
10.67820 67.000
10.69814 56.000
10.71809 52.000
10.73804 51.000
10.75798 54.000
10.77793 57.000
10.79788 65.000
10.81783 47.000
10.83777 57.000
10.85772 53.000
10.87767 59.000
10.89761 57.000
10.91756 48.000
10.93751 62.000
10.95745 57.000
10.97740 48.000
10.99735 56.000
11.01730 66.000
11.03724 59.000
11.05719 48.000
11.07714 55.000
11.09708 45.000
11.11703 55.000
11.13698 52.000
11.15692 63.000
11.17687 46.000
11.19682 61.000
11.21676 51.000
11.23671 62.000
11.25666 43.000
11.27661 53.000
11.29655 55.000
11.31650 51.000
11.33645 52.000
11.35639 63.000
11.37634 39.000
11.39629 48.000
11.41623 57.000
11.43618 59.000
11.45613 51.000
11.47608 47.000
11.49602 61.000
11.51597 57.000
11.53592 46.000
11.55586 55.000
11.57581 55.000
11.59576 54.000
11.61570 56.000
11.63565 55.000
11.65560 49.000
11.67554 54.000
11.69549 48.000
11.71544 44.000
11.73539 42.000
11.75533 48.000
11.77528 62.000
11.79523 53.000
11.81517 57.000
11.83512 50.000
11.85507 43.000
11.87501 44.000
11.89496 45.000
11.91491 56.000
11.93486 56.000
11.95480 46.000
11.97475 59.000
11.99470 55.000
12.01464 48.000
12.03459 43.000
12.05454 52.000
12.07448 62.000
12.09443 46.000
12.11438 56.000
12.13432 51.000
12.15427 58.000
12.17422 49.000
12.19417 46.000
12.21411 62.000
12.23406 54.000
12.25401 56.000
12.27395 51.000
12.29390 51.000
12.31385 43.000
12.33379 50.000
12.35374 53.000
12.37369 57.000
12.39364 48.000
12.41358 50.000
12.43353 45.000
12.45348 61.000
12.47342 55.000
12.49337 63.000
12.51332 67.000
12.53326 57.000
12.55321 61.000
12.57316 66.000
12.59311 50.000
12.61305 50.000
12.63300 52.000
12.65295 54.000
12.67289 48.000
12.69284 51.000
12.71279 52.000
12.73273 77.000
12.75268 56.000
12.77263 48.000
12.79257 41.000
12.81252 54.000
12.83247 59.000
12.85242 55.000
12.87236 67.000
12.89231 62.000
12.91226 48.000
12.93220 59.000
12.95215 42.000
12.97210 65.000
12.99204 60.000
13.01199 70.000
13.03194 45.000
13.05189 53.000
13.07183 45.000
13.09178 72.000
13.11173 57.000
13.13167 46.000
13.15162 43.000
13.17157 54.000
13.19151 53.000
13.21146 55.000
13.23141 49.000
13.25135 52.000
13.27130 59.000
13.29125 52.000
13.31120 64.000
13.33114 59.000
13.35109 64.000
13.37104 70.000
13.39098 62.000
13.41093 55.000
13.43088 65.000
13.45082 57.000
13.47077 39.000
13.49072 65.000
13.51067 55.000
13.53061 63.000
13.55056 56.000
13.57051 65.000
13.59045 54.000
13.61040 53.000
13.63035 65.000
13.65029 65.000
13.67024 60.000
13.69019 60.000
13.71013 50.000
13.73008 47.000
13.75003 64.000
13.76998 64.000
13.78992 43.000
13.80987 57.000
13.82982 62.000
13.84976 54.000
13.86971 77.000
13.88966 58.000
13.90960 43.000
13.92955 43.000
13.94950 49.000
13.96945 60.000
13.98939 60.000
14.00934 68.000
14.02929 57.000
14.04923 55.000
14.06918 46.000
14.08913 66.000
14.10907 57.000
14.12902 58.000
14.14897 44.000
14.16892 72.000
14.18886 56.000
14.20881 53.000
14.22876 61.000
14.24870 69.000
14.26865 69.000
14.28860 60.000
14.30854 54.000
14.32849 61.000
14.34844 64.000
14.36838 68.000
14.38833 72.000
14.40828 55.000
14.42823 63.000
14.44817 71.000
14.46812 59.000
14.48807 60.000
14.50801 59.000
14.52796 51.000
14.54791 52.000
14.56785 47.000
14.58780 65.000
14.60775 50.000
14.62770 55.000
14.64764 71.000
14.66759 57.000
14.68754 76.000
14.70748 63.000
14.72743 66.000
14.74738 66.000
14.76732 50.000
14.78727 55.000
14.80722 65.000
14.82716 45.000
14.84711 63.000
14.86706 59.000
14.88701 55.000
14.90695 60.000
14.92690 69.000
14.94685 74.000
14.96679 56.000
14.98674 74.000
15.00669 81.000
15.02663 62.000
15.04658 76.000
15.06653 76.000
15.08648 60.000
15.10642 73.000
15.12637 66.000
15.14632 76.000
15.16626 78.000
15.18621 75.000
15.20616 75.000
15.22610 80.000
15.24605 62.000
15.26600 78.000
15.28594 83.000
15.30589 82.000
15.32584 82.000
15.34579 74.000
15.36573 80.000
15.38568 77.000
15.40563 94.000
15.42557 95.000
15.44552 95.000
15.46547 89.000
15.48541 99.000
15.50536 95.000
15.52531 102.000
15.54526 113.000
15.56520 146.000
15.58515 136.000
15.60510 170.000
15.62504 183.000
15.64499 217.000
15.66494 278.000
15.68488 402.000
15.70483 550.000
15.72478 837.000
15.74472 1310.000
15.76467 1956.000
15.78462 2923.000
15.80457 3950.000
15.82451 4186.000
15.84446 3884.000
15.86441 3059.000
15.88435 2120.000
15.90430 1164.000
15.92425 674.000
15.94419 388.000
15.96414 264.000
15.98409 204.000
16.00404 126.000
16.02398 137.000
16.04393 136.000
16.06388 119.000
16.08382 96.000
16.10377 110.000
16.12372 86.000
16.14366 81.000
16.16361 90.000
16.18356 93.000
16.20351 85.000
16.22345 77.000
16.24340 87.000
16.26335 91.000
16.28329 87.000
16.30324 83.000
16.32319 94.000
16.34313 87.000
16.36308 78.000
16.38303 80.000
16.40297 74.000
16.42292 72.000
16.44287 58.000
16.46282 72.000
16.48276 81.000
16.50271 71.000
16.52266 62.000
16.54260 68.000
16.56255 66.000
16.58250 63.000
16.60244 67.000
16.62239 72.000
16.64234 78.000
16.66229 65.000
16.68223 70.000
16.70218 74.000
16.72213 74.000
16.74207 64.000
16.76202 74.000
16.78197 65.000
16.80191 60.000
16.82186 74.000
16.84181 63.000
16.86175 84.000
16.88170 70.000
16.90165 75.000
16.92160 67.000
16.94154 73.000
16.96149 64.000
16.98144 54.000
17.00138 53.000
17.02133 67.000
17.04128 71.000
17.06122 71.000
17.08117 59.000
17.10112 58.000
17.12107 57.000
17.14101 54.000
17.16096 56.000
17.18091 65.000
17.20085 82.000
17.22080 63.000
17.24075 68.000
17.26069 58.000
17.28064 57.000
17.30059 76.000
17.32053 79.000
17.34048 59.000
17.36043 62.000
17.38038 70.000
17.40032 71.000
17.42027 59.000
17.44022 70.000
17.46016 74.000
17.48011 71.000
17.50006 58.000
17.52000 54.000
17.53995 52.000
17.55990 76.000
17.57985 79.000
17.59979 75.000
17.61974 52.000
17.63969 77.000
17.65963 69.000
17.67958 55.000
17.69953 59.000
17.71947 60.000
17.73942 69.000
17.75937 54.000
17.77932 74.000
17.79926 59.000
17.81921 56.000
17.83916 74.000
17.85910 59.000
17.87905 55.000
17.89900 62.000
17.91894 73.000
17.93889 59.000
17.95884 65.000
17.97878 63.000
17.99873 65.000
18.01868 60.000
18.03863 75.000
18.05857 76.000
18.07852 70.000
18.09847 73.000
18.11841 74.000
18.13836 77.000
18.15831 70.000
18.17825 74.000
18.19820 70.000
18.21815 81.000
18.23810 90.000
18.25804 103.000
18.27799 106.000
18.29794 134.000
18.31788 136.000
18.33783 178.000
18.35778 234.000
18.37772 264.000
18.39767 349.000
18.41762 354.000
18.43756 342.000
18.45751 278.000
18.47746 236.000
18.49741 179.000
18.51735 129.000
18.53730 96.000
18.55725 87.000
18.57719 76.000
18.59714 72.000
18.61709 63.000
18.63703 73.000
18.65698 77.000
18.67693 72.000
18.69688 74.000
18.71682 79.000
18.73677 74.000
18.75672 76.000
18.77666 65.000
18.79661 79.000
18.81656 64.000
18.83650 69.000
18.85645 76.000
18.87640 81.000
18.89634 75.000
18.91629 49.000
18.93624 59.000
18.95619 69.000
18.97613 59.000
18.99608 61.000
19.01603 67.000
19.03597 65.000
19.05592 58.000
19.07587 49.000
19.09581 51.000
19.11576 77.000
19.13571 64.000
19.15566 72.000
19.17560 82.000
19.19555 65.000
19.21550 60.000
19.23544 60.000
19.25539 73.000
19.27534 57.000
19.29528 58.000
19.31523 65.000
19.33518 80.000
19.35513 71.000
19.37507 68.000
19.39502 47.000
19.41497 60.000
19.43491 71.000
19.45486 69.000
19.47481 74.000
19.49475 52.000
19.51470 64.000
19.53465 57.000
19.55459 65.000
19.57454 58.000
19.59449 65.000
19.61444 67.000
19.63438 59.000
19.65433 66.000
19.67428 53.000
19.69422 63.000
19.71417 66.000
19.73412 51.000
19.75406 72.000
19.77401 57.000
19.79396 57.000
19.81391 60.000
19.83385 62.000
19.85380 49.000
19.87375 69.000
19.89369 76.000
19.91364 70.000
19.93359 73.000
19.95353 60.000
19.97348 63.000
19.99343 58.000
20.01337 79.000
20.03332 65.000
20.05327 65.000
20.07322 76.000
20.09316 68.000
20.11311 60.000
20.13306 61.000
20.15300 64.000
20.17295 71.000
20.19290 62.000
20.21284 69.000
20.23279 52.000
20.25274 65.000
20.27269 61.000
20.29263 71.000
20.31258 64.000
20.33253 77.000
20.35247 55.000
20.37242 56.000
20.39237 50.000
20.41231 59.000
20.43226 66.000
20.45221 65.000
20.47215 63.000
20.49210 63.000
20.51205 77.000
20.53200 69.000
20.55194 61.000
20.57189 52.000
20.59184 56.000
20.61178 65.000
20.63173 67.000
20.65168 74.000
20.67162 60.000
20.69157 76.000
20.71152 75.000
20.73147 68.000
20.75141 64.000
20.77136 58.000
20.79131 68.000
20.81125 68.000
20.83120 64.000
20.85115 62.000
20.87109 65.000
20.89104 73.000
20.91099 66.000
20.93094 59.000
20.95088 85.000
20.97083 56.000
20.99078 70.000
21.01072 71.000
21.03067 66.000
21.05062 93.000
21.07056 54.000
21.09051 82.000
21.11046 74.000
21.13040 63.000
21.15035 67.000
21.17030 72.000
21.19025 61.000
21.21019 65.000
21.23014 85.000
21.25009 57.000
21.27003 79.000
21.28998 75.000
21.30993 62.000
21.32987 75.000
21.34982 74.000
21.36977 65.000
21.38972 84.000
21.40966 66.000
21.42961 56.000
21.44956 79.000
21.46950 61.000
21.48945 60.000
21.50940 68.000
21.52934 65.000
21.54929 69.000
21.56924 67.000
21.58918 66.000
21.60913 66.000
21.62908 62.000
21.64903 70.000
21.66897 64.000
21.68892 62.000
21.70887 77.000
21.72881 54.000
21.74876 66.000
21.76871 65.000
21.78865 66.000
21.80860 59.000
21.82855 79.000
21.84850 56.000
21.86844 77.000
21.88839 72.000
21.90834 73.000
21.92828 72.000
21.94823 75.000
21.96818 54.000
21.98812 61.000
22.00807 77.000
22.02802 78.000
22.04796 54.000
22.06791 61.000
22.08786 68.000
22.10781 73.000
22.12775 64.000
22.14770 75.000
22.16765 71.000
22.18759 74.000
22.20754 68.000
22.22749 81.000
22.24743 62.000
22.26738 67.000
22.28733 66.000
22.30728 71.000
22.32722 53.000
22.34717 57.000
22.36712 68.000
22.38706 69.000
22.40701 81.000
22.42696 64.000
22.44690 65.000
22.46685 64.000
22.48680 62.000
22.50675 74.000
22.52669 62.000
22.54664 63.000
22.56659 81.000
22.58653 57.000
22.60648 85.000
22.62643 64.000
22.64637 72.000
22.66632 66.000
22.68627 64.000
22.70621 75.000
22.72616 70.000
22.74611 74.000
22.76606 73.000
22.78600 73.000
22.80595 77.000
22.82590 70.000
22.84584 75.000
22.86579 67.000
22.88574 65.000
22.90568 66.000
22.92563 81.000
22.94558 77.000
22.96553 58.000
22.98547 67.000
23.00542 67.000
23.02537 70.000
23.04531 73.000
23.06526 57.000
23.08521 82.000
23.10515 63.000
23.12510 67.000
23.14505 52.000
23.16499 62.000
23.18494 61.000
23.20489 68.000
23.22484 65.000
23.24478 67.000
23.26473 62.000
23.28468 65.000
23.30462 69.000
23.32457 86.000
23.34452 75.000
23.36446 78.000
23.38441 72.000
23.40436 84.000
23.42431 72.000
23.44425 57.000
23.46420 64.000
23.48415 56.000
23.50409 68.000
23.52404 73.000
23.54399 52.000
23.56393 70.000
23.58388 73.000
23.60383 61.000
23.62377 78.000
23.64372 60.000
23.66367 80.000
23.68362 67.000
23.70356 74.000
23.72351 78.000
23.74346 65.000
23.76340 79.000
23.78335 78.000
23.80330 61.000
23.82324 83.000
23.84319 59.000
23.86314 66.000
23.88309 71.000
23.90303 58.000
23.92298 71.000
23.94293 68.000
23.96287 55.000
23.98282 55.000
24.00277 70.000
24.02271 72.000
24.04266 68.000
24.06261 63.000
24.08256 77.000
24.10250 58.000
24.12245 89.000
24.14240 73.000
24.16234 79.000
24.18229 67.000
24.20224 75.000
24.22218 71.000
24.24213 74.000
24.26208 68.000
24.28202 70.000
24.30197 65.000
24.32192 78.000
24.34187 59.000
24.36181 68.000
24.38176 65.000
24.40171 78.000
24.42165 58.000
24.44160 60.000
24.46155 70.000
24.48149 67.000
24.50144 84.000
24.52139 82.000
24.54134 67.000
24.56128 74.000
24.58123 72.000
24.60118 84.000
24.62112 79.000
24.64107 77.000
24.66102 73.000
24.68096 63.000
24.70091 84.000
24.72086 54.000
24.74080 73.000
24.76075 56.000
24.78070 73.000
24.80065 71.000
24.82059 73.000
24.84054 57.000
24.86049 58.000
24.88043 64.000
24.90038 59.000
24.92033 65.000
24.94027 60.000
24.96022 73.000
24.98017 76.000
25.00012 66.000
25.02006 71.000
25.04001 81.000
25.05996 81.000
25.07990 82.000
25.09985 59.000
25.11980 63.000
25.13974 82.000
25.15969 67.000
25.17964 78.000
25.19958 73.000
25.21953 85.000
25.23948 64.000
25.25943 64.000
25.27937 68.000
25.29932 62.000
25.31927 77.000
25.33921 70.000
25.35916 94.000
25.37911 80.000
25.39905 77.000
25.41900 89.000
25.43895 62.000
25.45890 81.000
25.47884 77.000
25.49879 63.000
25.51874 63.000
25.53868 70.000
25.55863 84.000
25.57858 56.000
25.59852 82.000
25.61847 64.000
25.63842 70.000
25.65837 62.000
25.67831 71.000
25.69826 63.000
25.71821 71.000
25.73815 73.000
25.75810 88.000
25.77805 76.000
25.79799 71.000
25.81794 73.000
25.83789 75.000
25.85783 92.000
25.87778 73.000
25.89773 67.000
25.91768 74.000
25.93762 73.000
25.95757 72.000
25.97752 82.000
25.99746 71.000
26.01741 70.000
26.03736 63.000
26.05730 91.000
26.07725 68.000
26.09720 78.000
26.11715 71.000
26.13709 75.000
26.15704 74.000
26.17699 60.000
26.19693 62.000
26.21688 88.000
26.23683 67.000
26.25677 75.000
26.27672 74.000
26.29667 76.000
26.31661 70.000
26.33656 75.000
26.35651 59.000
26.37646 69.000
26.39640 85.000
26.41635 75.000
26.43630 69.000
26.45624 86.000
26.47619 64.000
26.49614 67.000
26.51608 76.000
26.53603 62.000
26.55598 72.000
26.57593 73.000
26.59587 82.000
26.61582 67.000
26.63577 71.000
26.65571 65.000
26.67566 67.000
26.69561 80.000
26.71555 74.000
26.73550 75.000
26.75545 77.000
26.77539 75.000
26.79534 74.000
26.81529 90.000
26.83524 83.000
26.85518 62.000
26.87513 73.000
26.89508 61.000
26.91502 57.000
26.93497 69.000
26.95492 84.000
26.97486 78.000
26.99481 61.000
27.01476 63.000
27.03471 88.000
27.05465 77.000
27.07460 80.000
27.09455 75.000
27.11449 73.000
27.13444 75.000
27.15439 85.000
27.17433 74.000
27.19428 87.000
27.21423 78.000
27.23417 75.000
27.25412 88.000
27.27407 82.000
27.29402 74.000
27.31396 74.000
27.33391 66.000
27.35386 89.000
27.37380 78.000
27.39375 71.000
27.41370 73.000
27.43364 65.000
27.45359 84.000
27.47354 69.000
27.49349 77.000
27.51343 64.000
27.53338 72.000
27.55333 64.000
27.57327 79.000
27.59322 65.000
27.61317 73.000
27.63311 81.000
27.65306 70.000
27.67301 70.000
27.69296 91.000
27.71290 73.000
27.73285 65.000
27.75280 87.000
27.77274 73.000
27.79269 66.000
27.81264 80.000
27.83258 74.000
27.85253 65.000
27.87248 71.000
27.89242 72.000
27.91237 72.000
27.93232 76.000
27.95227 79.000
27.97221 94.000
27.99216 68.000
28.01211 94.000
28.03205 73.000
28.05200 84.000
28.07195 79.000
28.09189 71.000
28.11184 59.000
28.13179 63.000
28.15174 90.000
28.17168 68.000
28.19163 79.000
28.21158 83.000
28.23152 78.000
28.25147 74.000
28.27142 62.000
28.29136 82.000
28.31131 64.000
28.33126 71.000
28.35120 92.000
28.37115 77.000
28.39110 74.000
28.41105 70.000
28.43099 77.000
28.45094 78.000
28.47089 56.000
28.49083 75.000
28.51078 76.000
28.53073 74.000
28.55067 77.000
28.57062 85.000
28.59057 76.000
28.61052 87.000
28.63046 84.000
28.65041 76.000
28.67036 86.000
28.69030 88.000
28.71025 81.000
28.73020 84.000
28.75014 69.000
28.77009 81.000
28.79004 60.000
28.80998 75.000
28.82993 86.000
28.84988 76.000
28.86983 63.000
28.88977 83.000
28.90972 80.000
28.92967 75.000
28.94961 73.000
28.96956 70.000
28.98951 73.000
29.00945 76.000
29.02940 68.000
29.04935 81.000
29.06930 87.000
29.08924 78.000
29.10919 77.000
29.12914 83.000
29.14908 74.000
29.16903 73.000
29.18898 71.000
29.20892 81.000
29.22887 69.000
29.24882 70.000
29.26877 82.000
29.28871 82.000
29.30866 80.000
29.32861 80.000
29.34855 82.000
29.36850 76.000
29.38845 65.000
29.40839 82.000
29.42834 84.000
29.44829 84.000
29.46823 79.000
29.48818 72.000
29.50813 81.000
29.52808 78.000
29.54802 81.000
29.56797 72.000
29.58792 67.000
29.60786 69.000
29.62781 74.000
29.64776 71.000
29.66770 79.000
29.68765 75.000
29.70760 75.000
29.72755 77.000
29.74749 63.000
29.76744 91.000
29.78739 90.000
29.80733 82.000
29.82728 88.000
29.84723 87.000
29.86717 95.000
29.88712 95.000
29.90707 80.000
29.92701 99.000
29.94696 94.000
29.96691 99.000
29.98686 107.000
30.00680 116.000
30.02675 139.000
30.04670 186.000
30.06664 141.000
30.08659 206.000
30.10654 211.000
30.12648 268.000
30.14643 331.000
30.16638 344.000
30.18633 397.000
30.20627 508.000
30.22622 597.000
30.24617 633.000
30.26611 604.000
30.28606 556.000
30.30601 517.000
30.32595 419.000
30.34590 354.000
30.36585 316.000
30.38579 224.000
30.40574 167.000
30.42569 151.000
30.44564 118.000
30.46558 110.000
30.48553 110.000
30.50548 94.000
30.52542 96.000
30.54537 82.000
30.56532 107.000
30.58526 84.000
30.60521 84.000
30.62516 88.000
30.64511 75.000
30.66505 77.000
30.68500 79.000
30.70495 98.000
30.72489 98.000
30.74484 81.000
30.76479 96.000
30.78473 82.000
30.80468 93.000
30.82463 88.000
30.84458 70.000
30.86452 81.000
30.88447 83.000
30.90442 79.000
30.92436 74.000
30.94431 87.000
30.96426 88.000
30.98420 80.000
31.00415 91.000
31.02410 87.000
31.04404 87.000
31.06399 68.000
31.08394 82.000
31.10389 79.000
31.12383 80.000
31.14378 87.000
31.16373 85.000
31.18367 85.000
31.20362 78.000
31.22357 79.000
31.24351 87.000
31.26346 63.000
31.28341 97.000
31.30336 84.000
31.32330 73.000
31.34325 89.000
31.36320 85.000
31.38314 70.000
31.40309 78.000
31.42304 103.000
31.44298 71.000
31.46293 67.000
31.48288 86.000
31.50282 87.000
31.52277 90.000
31.54272 108.000
31.56267 63.000
31.58261 86.000
31.60256 96.000
31.62251 84.000
31.64245 89.000
31.66240 95.000
31.68235 96.000
31.70229 117.000
31.72224 127.000
31.74219 170.000
31.76214 185.000
31.78208 208.000
31.80203 273.000
31.82198 349.000
31.84192 390.000
31.86187 421.000
31.88182 411.000
31.90176 363.000
31.92171 323.000
31.94166 340.000
31.96160 276.000
31.98155 262.000
32.00150 201.000
32.02145 161.000
32.04139 140.000
32.06134 114.000
32.08129 108.000
32.10123 106.000
32.12118 108.000
32.14113 94.000
32.16107 82.000
32.18102 93.000
32.20097 88.000
32.22092 89.000
32.24086 68.000
32.26081 77.000
32.28076 96.000
32.30070 87.000
32.32065 79.000
32.34060 90.000
32.36054 89.000
32.38049 87.000
32.40044 70.000
32.42039 88.000
32.44033 72.000
32.46028 79.000
32.48023 84.000
32.50017 87.000
32.52012 82.000
32.54007 73.000
32.56001 65.000
32.57996 75.000
32.59991 89.000
32.61985 80.000
32.63980 94.000
32.65975 89.000
32.67970 89.000
32.69964 75.000
32.71959 73.000
32.73954 77.000
32.75948 74.000
32.77943 77.000
32.79938 72.000
32.81932 75.000
32.83927 87.000
32.85922 78.000
32.87917 75.000
32.89911 78.000
32.91906 94.000
32.93901 84.000
32.95895 88.000
32.97890 87.000
32.99885 71.000
33.01879 85.000
33.03874 82.000
33.05869 99.000
33.07863 85.000
33.09858 78.000
33.11853 91.000
33.13848 101.000
33.15842 81.000
33.17837 85.000
33.19832 72.000
33.21826 77.000
33.23821 98.000
33.25816 85.000
33.27810 80.000
33.29805 78.000
33.31800 79.000
33.33795 70.000
33.35789 85.000
33.37784 71.000
33.39779 83.000
33.41773 77.000
33.43768 76.000
33.45763 76.000
33.47757 84.000
33.49752 79.000
33.51747 71.000
33.53741 80.000
33.55736 94.000
33.57731 87.000
33.59726 84.000
33.61720 82.000
33.63715 70.000
33.65710 82.000
33.67704 64.000
33.69699 81.000
33.71694 70.000
33.73688 70.000
33.75683 94.000
33.77678 81.000
33.79673 79.000
33.81667 80.000
33.83662 81.000
33.85657 90.000
33.87651 93.000
33.89646 76.000
33.91641 96.000
33.93635 97.000
33.95630 81.000
33.97625 87.000
33.99620 81.000
34.01614 75.000
34.03609 80.000
34.05604 74.000
34.07598 99.000
34.09593 77.000
34.11588 87.000
34.13582 91.000
34.15577 104.000
34.17572 90.000
34.19566 95.000
34.21561 76.000
34.23556 101.000
34.25551 99.000
34.27545 99.000
34.29540 70.000
34.31535 86.000
34.33529 65.000
34.35524 91.000
34.37519 100.000
34.39513 101.000
34.41508 80.000
34.43503 96.000
34.45498 91.000
34.47492 87.000
34.49487 79.000
34.51482 95.000
34.53476 81.000
34.55471 80.000
34.57466 87.000
34.59460 79.000
34.61455 93.000
34.63450 89.000
34.65444 86.000
34.67439 92.000
34.69434 80.000
34.71429 88.000
34.73423 94.000
34.75418 96.000
34.77413 94.000
34.79407 100.000
34.81402 101.000
34.83397 75.000
34.85391 92.000
34.87386 103.000
34.89381 78.000
34.91376 111.000
34.93370 87.000
34.95365 102.000
34.97360 105.000
34.99354 97.000
35.01349 104.000
35.03344 92.000
35.05338 103.000
35.07333 94.000
35.09328 102.000
35.11322 109.000
35.13317 98.000
35.15312 138.000
35.17307 108.000
35.19301 107.000
35.21296 135.000
35.23291 156.000
35.25285 154.000
35.27280 188.000
35.29275 198.000
35.31269 219.000
35.33264 238.000
35.35259 309.000
35.37254 310.000
35.39248 373.000
35.41243 423.000
35.43238 505.000
35.45232 573.000
35.47227 689.000
35.49222 861.000
35.51216 967.000
35.53211 1203.000
35.55206 1379.000
35.57201 1578.000
35.59195 1629.000
35.61190 1796.000
35.63185 1859.000
35.65179 1892.000
35.67174 1830.000
35.69169 1695.000
35.71163 1663.000
35.73158 1394.000
35.75153 1272.000
35.77147 1095.000
35.79142 891.000
35.81137 778.000
35.83132 579.000
35.85126 529.000
35.87121 428.000
35.89116 325.000
35.91110 274.000
35.93105 241.000
35.95100 191.000
35.97094 181.000
35.99089 154.000
36.01084 131.000
36.03079 116.000
36.05073 104.000
36.07068 108.000
36.09063 94.000
36.11057 104.000
36.13052 83.000
36.15047 102.000
36.17041 102.000
36.19036 93.000
36.21031 93.000
36.23025 91.000
36.25020 109.000
36.27015 99.000
36.29010 110.000
36.31004 90.000
36.32999 100.000
36.34994 88.000
36.36988 111.000
36.38983 93.000
36.40978 107.000
36.42972 102.000
36.44967 91.000
36.46962 79.000
36.48957 98.000
36.50951 105.000
36.52946 98.000
36.54941 94.000
36.56935 121.000
36.58930 123.000
36.60925 113.000
36.62919 123.000
36.64914 129.000
36.66909 135.000
36.68903 127.000
36.70898 129.000
36.72893 141.000
36.74888 118.000
36.76882 120.000
36.78877 99.000
36.80872 110.000
36.82866 89.000
36.84861 111.000
36.86856 103.000
36.88850 88.000
36.90845 96.000
36.92840 88.000
36.94835 87.000
36.96829 119.000
36.98824 101.000
37.00819 92.000
37.02813 97.000
37.04808 120.000
37.06803 125.000
37.08797 127.000
37.10792 129.000
37.12787 130.000
37.14781 128.000
37.16776 159.000
37.18771 167.000
37.20766 197.000
37.22760 215.000
37.24755 213.000
37.26750 202.000
37.28744 224.000
37.30739 172.000
37.32734 160.000
37.34728 170.000
37.36723 150.000
37.38718 150.000
37.40713 118.000
37.42707 101.000
37.44702 103.000
37.46697 99.000
37.48691 86.000
37.50686 100.000
37.52681 105.000
37.54675 90.000
37.56670 100.000
37.58665 94.000
37.60660 82.000
37.62654 88.000
37.64649 85.000
37.66644 79.000
37.68638 91.000
37.70633 89.000
37.72628 96.000
37.74622 81.000
37.76617 86.000
37.78612 82.000
37.80606 81.000
37.82601 73.000
37.84596 81.000
37.86591 78.000
37.88585 76.000
37.90580 71.000
37.92575 82.000
37.94569 76.000
37.96564 90.000
37.98559 77.000
38.00553 70.000
38.02548 103.000
38.04543 89.000
38.06538 71.000
38.08532 80.000
38.10527 93.000
38.12522 96.000
38.14516 79.000
38.16511 76.000
38.18506 66.000
38.20500 87.000
38.22495 101.000
38.24490 76.000
38.26484 81.000
38.28479 99.000
38.30474 78.000
38.32469 96.000
38.34463 94.000
38.36458 83.000
38.38453 72.000
38.40447 90.000
38.42442 104.000
38.44437 72.000
38.46431 88.000
38.48426 81.000
38.50421 85.000
38.52416 87.000
38.54410 91.000
38.56405 108.000
38.58400 89.000
38.60394 84.000
38.62389 85.000
38.64384 93.000
38.66378 94.000
38.68373 95.000
38.70368 136.000
38.72362 119.000
38.74357 133.000
38.76352 181.000
38.78347 158.000
38.80341 151.000
38.82336 163.000
38.84331 155.000
38.86325 153.000
38.88320 143.000
38.90315 156.000
38.92309 141.000
38.94304 132.000
38.96299 140.000
38.98294 161.000
39.00288 170.000
39.02283 193.000
39.04278 191.000
39.06272 167.000
39.08267 232.000
39.10262 268.000
39.12256 277.000
39.14251 318.000
39.16246 393.000
39.18241 556.000
39.20235 653.000
39.22230 733.000
39.24225 879.000
39.26219 900.000
39.28214 916.000
39.30209 939.000
39.32203 936.000
39.34198 834.000
39.36193 820.000
39.38187 686.000
39.40182 592.000
39.42177 500.000
39.44172 443.000
39.46166 334.000
39.48161 292.000
39.50156 256.000
39.52150 185.000
39.54145 162.000
39.56140 160.000
39.58134 147.000
39.60129 127.000
39.62124 127.000
39.64119 120.000
39.66113 110.000
39.68108 111.000
39.70103 108.000
39.72097 100.000
39.74092 92.000
39.76087 94.000
39.78081 94.000
39.80076 112.000
39.82071 114.000
39.84065 71.000
39.86060 89.000
39.88055 84.000
39.90050 74.000
39.92044 95.000
39.94039 86.000
39.96034 83.000
39.98028 85.000
40.00023 85.000
40.02018 89.000
40.04012 76.000
40.06007 78.000
40.08002 83.000
40.09997 97.000
40.11991 84.000
40.13986 107.000
40.15981 83.000
40.17975 89.000
40.19970 100.000
40.21965 65.000
40.23959 92.000
40.25954 83.000
40.27949 57.000
40.29943 92.000
40.31938 77.000
40.33933 77.000
40.35928 75.000
40.37922 86.000
40.39917 92.000
40.41912 82.000
40.43906 80.000
40.45901 89.000
40.47896 63.000
40.49890 67.000
40.51885 85.000
40.53880 74.000
40.55875 78.000
40.57869 70.000
40.59864 80.000
40.61859 67.000
40.63853 67.000
40.65848 70.000
40.67843 65.000
40.69837 91.000
40.71832 89.000
40.73827 79.000
40.75822 83.000
40.77816 83.000
40.79811 91.000
40.81806 89.000
40.83800 77.000
40.85795 78.000
40.87790 89.000
40.89784 70.000
40.91779 78.000
40.93774 91.000
40.95768 69.000
40.97763 82.000
40.99758 91.000
41.01753 75.000
41.03747 80.000
41.05742 80.000
41.07737 82.000
41.09731 76.000
41.11726 83.000
41.13721 76.000
41.15715 90.000
41.17710 63.000
41.19705 70.000
41.21700 83.000
41.23694 78.000
41.25689 94.000
41.27684 76.000
41.29678 99.000
41.31673 84.000
41.33668 91.000
41.35662 83.000
41.37657 74.000
41.39652 79.000
41.41646 86.000
41.43641 69.000
41.45636 67.000
41.47631 63.000
41.49625 72.000
41.51620 87.000
41.53615 82.000
41.55609 73.000
41.57604 83.000
41.59599 95.000
41.61593 86.000
41.63588 72.000
41.65583 76.000
41.67578 67.000
41.69572 104.000
41.71567 80.000
41.73562 85.000
41.75556 87.000
41.77551 86.000
41.79546 86.000
41.81540 84.000
41.83535 83.000
41.85530 82.000
41.87524 71.000
41.89519 106.000
41.91514 82.000
41.93509 74.000
41.95503 80.000
41.97498 69.000
41.99493 94.000
42.01487 71.000
42.03482 78.000
42.05477 72.000
42.07471 73.000
42.09466 90.000
42.11461 81.000
42.13456 87.000
42.15450 70.000
42.17445 83.000
42.19440 73.000
42.21434 73.000
42.23429 90.000
42.25424 53.000
42.27418 77.000
42.29413 85.000
42.31408 63.000
42.33403 78.000
42.35397 77.000
42.37392 87.000
42.39387 72.000
42.41381 78.000
42.43376 71.000
42.45371 90.000
42.47365 89.000
42.49360 82.000
42.51355 77.000
42.53349 85.000
42.55344 90.000
42.57339 71.000
42.59334 82.000
42.61328 73.000
42.63323 81.000
42.65318 89.000
42.67312 76.000
42.69307 91.000
42.71302 79.000
42.73296 75.000
42.75291 96.000
42.77286 85.000
42.79281 88.000
42.81275 111.000
42.83270 108.000
42.85265 98.000
42.87259 94.000
42.89254 111.000
42.91249 113.000
42.93243 130.000
42.95238 137.000
42.97233 141.000
42.99227 157.000
43.01222 160.000
43.03217 174.000
43.05212 164.000
43.07206 200.000
43.09201 233.000
43.11196 247.000
43.13190 290.000
43.15185 287.000
43.17180 361.000
43.19174 383.000
43.21169 397.000
43.23164 478.000
43.25159 544.000
43.27153 609.000
43.29148 599.000
43.31143 610.000
43.33137 631.000
43.35132 620.000
43.37127 597.000
43.39121 568.000
43.41116 537.000
43.43111 492.000
43.45105 430.000
43.47100 400.000
43.49095 316.000
43.51090 329.000
43.53084 257.000
43.55079 230.000
43.57074 186.000
43.59068 169.000
43.61063 145.000
43.63058 133.000
43.65052 119.000
43.67047 128.000
43.69042 94.000
43.71037 94.000
43.73031 99.000
43.75026 84.000
43.77021 86.000
43.79015 97.000
43.81010 97.000
43.83005 72.000
43.84999 95.000
43.86994 68.000
43.88989 85.000
43.90984 83.000
43.92978 87.000
43.94973 96.000
43.96968 93.000
43.98962 84.000
44.00957 85.000
44.02952 66.000
44.04946 76.000
44.06941 79.000
44.08936 71.000
44.10930 101.000
44.12925 83.000
44.14920 102.000
44.16915 72.000
44.18909 81.000
44.20904 74.000
44.22899 79.000
44.24893 94.000
44.26888 91.000
44.28883 86.000
44.30877 72.000
44.32872 91.000
44.34867 81.000
44.36862 85.000
44.38856 80.000
44.40851 71.000
44.42846 75.000
44.44840 79.000
44.46835 62.000
44.48830 66.000
44.50824 74.000
44.52819 77.000
44.54814 94.000
44.56808 55.000
44.58803 84.000
44.60798 73.000
44.62793 89.000
44.64787 79.000
44.66782 78.000
44.68777 79.000
44.70771 86.000
44.72766 91.000
44.74761 71.000
44.76755 71.000
44.78750 71.000
44.80745 78.000
44.82740 80.000
44.84734 67.000
44.86729 88.000
44.88724 96.000
44.90718 73.000
44.92713 90.000
44.94708 100.000
44.96702 81.000
44.98697 69.000
45.00692 84.000
45.02686 71.000
45.04681 73.000
45.06676 88.000
45.08671 88.000
45.10665 67.000
45.12660 74.000
45.14655 88.000
45.16649 64.000
45.18644 77.000
45.20639 89.000
45.22633 76.000
45.24628 72.000
45.26623 80.000
45.28618 83.000
45.30612 78.000
45.32607 79.000
45.34602 82.000
45.36596 85.000
45.38591 65.000
45.40586 94.000
45.42580 76.000
45.44575 85.000
45.46570 72.000
45.48565 61.000
45.50559 64.000
45.52554 90.000
45.54549 70.000
45.56543 87.000
45.58538 78.000
45.60533 82.000
45.62527 77.000
45.64522 79.000
45.66517 59.000
45.68511 96.000
45.70506 86.000
45.72501 74.000
45.74496 71.000
45.76490 74.000
45.78485 67.000
45.80480 70.000
45.82474 73.000
45.84469 51.000
45.86464 78.000
45.88458 84.000
45.90453 66.000
45.92448 76.000
45.94443 74.000
45.96437 72.000
45.98432 73.000
46.00427 70.000
46.02421 62.000
46.04416 60.000
46.06411 78.000
46.08405 77.000
46.10400 69.000
46.12395 79.000
46.14389 85.000
46.16384 87.000
46.18379 79.000
46.20374 67.000
46.22368 88.000
46.24363 84.000
46.26358 76.000
46.28352 80.000
46.30347 84.000
46.32342 75.000
46.34336 64.000
46.36331 79.000
46.38326 100.000
46.40321 88.000
46.42315 71.000
46.44310 61.000
46.46305 81.000
46.48299 89.000
46.50294 75.000
46.52289 84.000
46.54283 103.000
46.56278 84.000
46.58273 92.000
46.60267 64.000
46.62262 88.000
46.64257 97.000
46.66252 75.000
46.68246 69.000
46.70241 72.000
46.72236 65.000
46.74230 81.000
46.76225 92.000
46.78220 70.000
46.80214 69.000
46.82209 82.000
46.84204 78.000
46.86199 73.000
46.88193 76.000
46.90188 82.000
46.92183 80.000
46.94177 71.000
46.96172 73.000
46.98167 88.000
47.00161 89.000
47.02156 75.000
47.04151 85.000
47.06146 98.000
47.08140 84.000
47.10135 79.000
47.12130 102.000
47.14124 84.000
47.16119 78.000
47.18114 87.000
47.20108 79.000
47.22103 82.000
47.24098 88.000
47.26092 81.000
47.28087 93.000
47.30082 90.000
47.32077 88.000
47.34071 74.000
47.36066 98.000
47.38061 97.000
47.40055 82.000
47.42050 88.000
47.44045 99.000
47.46039 84.000
47.48034 105.000
47.50029 88.000
47.52024 97.000
47.54018 80.000
47.56013 88.000
47.58008 77.000
47.60002 84.000
47.61997 80.000
47.63992 83.000
47.65986 84.000
47.67981 90.000
47.69976 91.000
47.71970 86.000
47.73965 76.000
47.75960 93.000
47.77955 101.000
47.79949 68.000
47.81944 91.000
47.83939 88.000
47.85933 71.000
47.87928 73.000
47.89923 89.000
47.91917 85.000
47.93912 92.000
47.95907 97.000
47.97902 111.000
47.99896 85.000
48.01891 93.000
48.03886 100.000
48.05880 93.000
48.07875 95.000
48.09870 102.000
48.11864 98.000
48.13859 98.000
48.15854 110.000
48.17848 121.000
48.19843 110.000
48.21838 126.000
48.23833 112.000
48.25827 99.000
48.27822 131.000
48.29817 137.000
48.31811 143.000
48.33806 149.000
48.35801 176.000
48.37795 194.000
48.39790 213.000
48.41785 265.000
48.43780 325.000
48.45774 349.000
48.47769 393.000
48.49764 472.000
48.51758 560.000
48.53753 681.000
48.55748 762.000
48.57742 805.000
48.59737 779.000
48.61732 744.000
48.63726 716.000
48.65721 692.000
48.67716 694.000
48.69711 579.000
48.71705 573.000
48.73700 489.000
48.75695 480.000
48.77689 416.000
48.79684 329.000
48.81679 300.000
48.83673 260.000
48.85668 226.000
48.87663 195.000
48.89658 187.000
48.91652 147.000
48.93647 153.000
48.95642 145.000
48.97636 135.000
48.99631 118.000
49.01626 135.000
49.03620 112.000
49.05615 94.000
49.07610 96.000
49.09605 110.000
49.11599 90.000
49.13594 93.000
49.15589 98.000
49.17583 90.000
49.19578 103.000
49.21573 98.000
49.23567 84.000
49.25562 83.000
49.27557 95.000
49.29551 90.000
49.31546 87.000
49.33541 84.000
49.35536 96.000
49.37530 71.000
49.39525 94.000
49.41520 94.000
49.43514 75.000
49.45509 84.000
49.47504 74.000
49.49498 78.000
49.51493 93.000
49.53488 78.000
49.55483 74.000
49.57477 86.000
49.59472 89.000
49.61467 83.000
49.63461 84.000
49.65456 69.000
49.67451 79.000
49.69445 75.000
49.71440 90.000
49.73435 69.000
49.75429 81.000
49.77424 83.000
49.79419 91.000
49.81414 71.000
49.83408 54.000
49.85403 90.000
49.87398 80.000
49.89392 73.000
49.91387 87.000
49.93382 73.000
49.95376 80.000
49.97371 77.000
49.99366 79.000
50.01361 75.000
50.03355 86.000
50.05350 86.000
50.07345 78.000
50.09339 67.000
50.11334 70.000
50.13329 77.000
50.15323 85.000
50.17318 75.000
50.19313 72.000
50.21307 76.000
50.23302 72.000
50.25297 85.000
50.27292 98.000
50.29286 79.000
50.31281 82.000
50.33276 71.000
50.35270 85.000
50.37265 65.000
50.39260 70.000
50.41254 67.000
50.43249 67.000
50.45244 75.000
50.47239 84.000
50.49233 63.000
50.51228 79.000
50.53223 81.000
50.55217 79.000
50.57212 65.000
50.59207 70.000
50.61201 85.000
50.63196 77.000
50.65191 81.000
50.67186 70.000
50.69180 79.000
50.71175 70.000
50.73170 74.000
50.75164 64.000
50.77159 66.000
50.79154 84.000
50.81148 87.000
50.83143 60.000
50.85138 70.000
50.87132 76.000
50.89127 70.000
50.91122 86.000
50.93117 75.000
50.95111 73.000
50.97106 87.000
50.99101 94.000
51.01095 80.000
51.03090 79.000
51.05085 73.000
51.07079 65.000
51.09074 75.000
51.11069 64.000
51.13064 71.000
51.15058 66.000
51.17053 84.000
51.19048 63.000
51.21042 74.000
51.23037 64.000
51.25032 93.000
51.27026 79.000
51.29021 90.000
51.31016 69.000
51.33010 78.000
51.35005 81.000
51.37000 69.000
51.38995 100.000
51.40989 77.000
51.42984 83.000
51.44979 83.000
51.46973 70.000
51.48968 85.000
51.50963 71.000
51.52957 86.000
51.54952 91.000
51.56947 81.000
51.58942 66.000
51.60936 83.000
51.62931 83.000
51.64926 75.000
51.66920 79.000
51.68915 71.000
51.70910 48.000
51.72904 62.000
51.74899 95.000
51.76894 71.000
51.78888 80.000
51.80883 65.000
51.82878 73.000
51.84873 78.000
51.86867 67.000
51.88862 78.000
51.90857 67.000
51.92851 66.000
51.94846 69.000
51.96841 77.000
51.98835 71.000
52.00830 71.000
52.02825 86.000
52.04820 61.000
52.06814 75.000
52.08809 85.000
52.10804 68.000
52.12798 85.000
52.14793 88.000
52.16788 82.000
52.18782 75.000
52.20777 70.000
52.22772 86.000
52.24767 66.000
52.26761 75.000
52.28756 68.000
52.30751 68.000
52.32745 67.000
52.34740 73.000
52.36735 91.000
52.38729 94.000
52.40724 72.000
52.42719 59.000
52.44713 69.000
52.46708 65.000
52.48703 73.000
52.50698 100.000
52.52692 67.000
52.54687 69.000
52.56682 64.000
52.58676 74.000
52.60671 65.000
52.62666 82.000
52.64660 77.000
52.66655 81.000
52.68650 71.000
52.70645 81.000
52.72639 75.000
52.74634 62.000
52.76629 68.000
52.78623 72.000
52.80618 78.000
52.82613 104.000
52.84607 85.000
52.86602 92.000
52.88597 85.000
52.90591 57.000
52.92586 93.000
52.94581 72.000
52.96576 75.000
52.98570 67.000
53.00565 85.000
53.02560 78.000
53.04554 70.000
53.06549 77.000
53.08544 96.000
53.10538 91.000
53.12533 71.000
53.14528 79.000
53.16523 84.000
53.18517 78.000
53.20512 80.000
53.22507 94.000
53.24501 86.000
53.26496 82.000
53.28491 96.000
53.30485 97.000
53.32480 108.000
53.34475 93.000
53.36469 85.000
53.38464 102.000
53.40459 95.000
53.42454 101.000
53.44448 87.000
53.46443 100.000
53.48438 122.000
53.50432 126.000
53.52427 138.000
53.54422 164.000
53.56416 149.000
53.58411 174.000
53.60406 163.000
53.62401 168.000
53.64395 177.000
53.66390 179.000
53.68385 180.000
53.70379 175.000
53.72374 161.000
53.74369 168.000
53.76363 154.000
53.78358 141.000
53.80353 149.000
53.82348 143.000
53.84342 132.000
53.86337 125.000
53.88332 139.000
53.90326 116.000
53.92321 106.000
53.94316 89.000
53.96310 86.000
53.98305 80.000
54.00300 88.000
54.02294 85.000
54.04289 76.000
54.06284 73.000
54.08279 72.000
54.10273 92.000
54.12268 87.000
54.14263 85.000
54.16257 65.000
54.18252 74.000
54.20247 88.000
54.22241 79.000
54.24236 86.000
54.26231 72.000
54.28226 76.000
54.30220 84.000
54.32215 87.000
54.34210 78.000
54.36204 70.000
54.38199 63.000
54.40194 91.000
54.42188 78.000
54.44183 86.000
54.46178 70.000
54.48172 77.000
54.50167 63.000
54.52162 75.000
54.54157 76.000
54.56151 82.000
54.58146 66.000
54.60141 85.000
54.62135 72.000
54.64130 71.000
54.66125 73.000
54.68119 88.000
54.70114 81.000
54.72109 70.000
54.74104 60.000
54.76098 90.000
54.78093 78.000
54.80088 96.000
54.82082 73.000
54.84077 64.000
54.86072 78.000
54.88066 77.000
54.90061 67.000
54.92056 81.000
54.94050 70.000
54.96045 69.000
54.98040 66.000
55.00035 69.000
55.02029 76.000
55.04024 78.000
55.06019 85.000
55.08013 78.000
55.10008 82.000
55.12003 66.000
55.13997 65.000
55.15992 92.000
55.17987 75.000
55.19982 81.000
55.21976 78.000
55.23971 76.000
55.25966 82.000
55.27960 84.000
55.29955 84.000
55.31950 88.000
55.33944 78.000
55.35939 71.000
55.37934 68.000
55.39929 80.000
55.41923 79.000
55.43918 83.000
55.45913 84.000
55.47907 77.000
55.49902 68.000
55.51897 88.000
55.53891 73.000
55.55886 85.000
55.57881 71.000
55.59875 77.000
55.61870 68.000
55.63865 84.000
55.65860 80.000
55.67854 61.000
55.69849 79.000
55.71844 56.000
55.73838 76.000
55.75833 106.000
55.77828 83.000
55.79822 62.000
55.81817 71.000
55.83812 94.000
55.85807 84.000
55.87801 71.000
55.89796 69.000
55.91791 79.000
55.93785 71.000
55.95780 74.000
55.97775 89.000
55.99769 83.000
56.01764 73.000
56.03759 77.000
56.05753 72.000
56.07748 71.000
56.09743 84.000
56.11738 81.000
56.13732 82.000
56.15727 73.000
56.17722 91.000
56.19716 83.000
56.21711 97.000
56.23706 82.000
56.25700 82.000
56.27695 77.000
56.29690 86.000
56.31685 87.000
56.33679 79.000
56.35674 85.000
56.37669 70.000
56.39663 92.000
56.41658 97.000
56.43653 93.000
56.45647 81.000
56.47642 73.000
56.49637 86.000
56.51631 77.000
56.53626 86.000
56.55621 75.000
56.57616 76.000
56.59610 111.000
56.61605 98.000
56.63600 98.000
56.65594 100.000
56.67589 83.000
56.69584 108.000
56.71578 112.000
56.73573 108.000
56.75568 132.000
56.77563 113.000
56.79557 109.000
56.81552 107.000
56.83547 147.000
56.85541 138.000
56.87536 141.000
56.89531 161.000
56.91525 172.000
56.93520 181.000
56.95515 177.000
56.97510 179.000
56.99504 231.000
57.01499 243.000
57.03494 240.000
57.05488 271.000
57.07483 327.000
57.09478 317.000
57.11472 325.000
57.13467 348.000
57.15462 377.000
57.17456 404.000
57.19451 395.000
57.21446 403.000
57.23441 393.000
57.25435 405.000
57.27430 386.000
57.29425 352.000
57.31419 340.000
57.33414 346.000
57.35409 292.000
57.37403 288.000
57.39398 247.000
57.41393 236.000
57.43388 235.000
57.45382 194.000
57.47377 191.000
57.49372 162.000
57.51366 140.000
57.53361 121.000
57.55356 113.000
57.57350 102.000
57.59345 107.000
57.61340 101.000
57.63334 75.000
57.65329 72.000
57.67324 85.000
57.69319 88.000
57.71313 86.000
57.73308 67.000
57.75303 73.000
57.77297 93.000
57.79292 79.000
57.81287 80.000
57.83281 88.000
57.85276 89.000
57.87271 90.000
57.89266 64.000
57.91260 63.000
57.93255 83.000
57.95250 70.000
57.97244 89.000
57.99239 90.000
58.01234 80.000
58.03228 92.000
58.05223 71.000
58.07218 87.000
58.09212 89.000
58.11207 75.000
58.13202 82.000
58.15197 67.000
58.17191 72.000
58.19186 80.000
58.21181 102.000
58.23175 73.000
58.25170 85.000
58.27165 82.000
58.29159 90.000
58.31154 112.000
58.33149 95.000
58.35144 79.000
58.37138 92.000
58.39133 89.000
58.41128 78.000
58.43122 104.000
58.45117 95.000
58.47112 81.000
58.49106 87.000
58.51101 99.000
58.53096 103.000
58.55090 78.000
58.57085 102.000
58.59080 80.000
58.61075 76.000
58.63069 68.000
58.65064 83.000
58.67059 78.000
58.69053 87.000
58.71048 96.000
58.73043 100.000
58.75037 90.000
58.77032 77.000
58.79027 89.000
58.81022 81.000
58.83016 81.000
58.85011 72.000
58.87006 69.000
58.89000 75.000
58.90995 92.000
58.92990 80.000
58.94984 83.000
58.96979 87.000
58.98974 74.000
59.00969 80.000
59.02963 76.000
59.04958 77.000
59.06953 80.000
59.08947 79.000
59.10942 87.000
59.12937 83.000
59.14931 75.000
59.16926 82.000
59.18921 76.000
59.20915 90.000
59.22910 59.000
59.24905 90.000
59.26900 92.000
59.28894 66.000
59.30889 98.000
59.32884 71.000
59.34878 94.000
59.36873 80.000
59.38868 104.000
59.40862 58.000
59.42857 90.000
59.44852 80.000
59.46847 88.000
59.48841 96.000
59.50836 87.000
59.52831 95.000
59.54825 77.000
59.56820 72.000
59.58815 75.000
59.60809 76.000
59.62804 73.000
59.64799 89.000
59.66793 78.000
59.68788 84.000
59.70783 73.000
59.72778 82.000
59.74772 92.000
59.76767 80.000
59.78762 84.000
59.80756 80.000
59.82751 88.000
59.84746 73.000
59.86740 88.000
59.88735 65.000
59.90730 86.000
59.92725 90.000
59.94719 98.000
59.96714 78.000
59.98709 99.000
60.00703 80.000
60.02698 81.000
60.04693 78.000
60.06687 92.000
60.08682 78.000
60.10677 75.000
60.12671 81.000
60.14666 75.000
60.16661 78.000
60.18656 79.000
60.20650 90.000
60.22645 75.000
60.24640 80.000
60.26634 94.000
60.28629 57.000
60.30624 79.000
60.32618 75.000
60.34613 77.000
60.36608 73.000
60.38603 81.000
60.40597 70.000
60.42592 80.000
60.44587 86.000
60.46581 75.000
60.48576 90.000
60.50571 80.000
60.52565 78.000
60.54560 84.000
60.56555 78.000
60.58550 79.000
60.60544 95.000
60.62539 69.000
60.64534 79.000
60.66528 77.000
60.68523 72.000
60.70518 74.000
60.72512 96.000
60.74507 87.000
60.76502 79.000
60.78496 107.000
60.80491 84.000
60.82486 80.000
60.84481 81.000
60.86475 101.000
60.88470 82.000
60.90465 83.000
60.92459 89.000
60.94454 89.000
60.96449 94.000
60.98443 86.000
61.00438 86.000
61.02433 94.000
61.04428 81.000
61.06422 103.000
61.08417 91.000
61.10412 83.000
61.12406 107.000
61.14401 92.000
61.16396 93.000
61.18390 79.000
61.20385 87.000
61.22380 92.000
61.24374 104.000
61.26369 90.000
61.28364 99.000
61.30359 99.000
61.32353 93.000
61.34348 119.000
61.36343 84.000
61.38337 114.000
61.40332 104.000
61.42327 136.000
61.44321 133.000
61.46316 152.000
61.48311 151.000
61.50306 154.000
61.52300 173.000
61.54295 210.000
61.56290 218.000
61.58284 201.000
61.60279 255.000
61.62274 265.000
61.64268 316.000
61.66263 292.000
61.68258 332.000
61.70252 318.000
61.72247 353.000
61.74242 345.000
61.76237 333.000
61.78231 333.000
61.80226 284.000
61.82221 293.000
61.84215 291.000
61.86210 289.000
61.88205 264.000
61.90199 242.000
61.92194 213.000
61.94189 223.000
61.96184 189.000
61.98178 145.000
62.00173 180.000
62.02168 174.000
62.04162 140.000
62.06157 142.000
62.08152 133.000
62.10146 132.000
62.12141 144.000
62.14136 127.000
62.16131 127.000
62.18125 124.000
62.20120 130.000
62.22115 132.000
62.24109 127.000
62.26104 121.000
62.28099 129.000
62.30093 124.000
62.32088 128.000
62.34083 132.000
62.36077 158.000
62.38072 118.000
62.40067 166.000
62.42062 153.000
62.44056 147.000
62.46051 161.000
62.48046 168.000
62.50040 203.000
62.52035 194.000
62.54030 245.000
62.56024 251.000
62.58019 241.000
62.60014 269.000
62.62009 314.000
62.64003 287.000
62.65998 350.000
62.67993 367.000
62.69987 430.000
62.71982 392.000
62.73977 473.000
62.75971 453.000
62.77966 551.000
62.79961 485.000
62.81955 481.000
62.83950 482.000
62.85945 467.000
62.87940 462.000
62.89934 429.000
62.91929 432.000
62.93924 434.000
62.95918 372.000
62.97913 367.000
62.99908 353.000
63.01902 268.000
63.03897 297.000
63.05892 237.000
63.07887 229.000
63.09881 213.000
63.11876 164.000
63.13871 184.000
63.15865 142.000
63.17860 141.000
63.19855 109.000
63.21849 101.000
63.23844 115.000
63.25839 117.000
63.27833 93.000
63.29828 87.000
63.31823 84.000
63.33818 105.000
63.35812 99.000
63.37807 95.000
63.39802 86.000
63.41796 85.000
63.43791 89.000
63.45786 84.000
63.47780 92.000
63.49775 86.000
63.51770 99.000
63.53765 85.000
63.55759 92.000
63.57754 98.000
63.59749 83.000
63.61743 81.000
63.63738 76.000
63.65733 104.000
63.67727 91.000
63.69722 97.000
63.71717 100.000
63.73712 80.000
63.75706 101.000
63.77701 100.000
63.79696 105.000
63.81690 94.000
63.83685 104.000
63.85680 117.000
63.87674 128.000
63.89669 124.000
63.91664 157.000
63.93658 149.000
63.95653 175.000
63.97648 199.000
63.99643 209.000
64.01637 213.000
64.03632 252.000
64.05627 252.000
64.07621 254.000
64.09616 288.000
64.11611 282.000
64.13605 281.000
64.15600 284.000
64.17595 278.000
64.19590 276.000
64.21584 255.000
64.23579 253.000
64.25574 246.000
64.27568 243.000
64.29563 241.000
64.31558 237.000
64.33552 206.000
64.35547 189.000
64.37542 160.000
64.39536 167.000
64.41531 167.000
64.43526 149.000
64.45521 150.000
64.47515 127.000
64.49510 116.000
64.51505 129.000
64.53499 113.000
64.55494 99.000
64.57489 99.000
64.59483 134.000
64.61478 89.000
64.63473 98.000
64.65468 91.000
64.67462 103.000
64.69457 94.000
64.71452 92.000
64.73446 69.000
64.75441 71.000
64.77436 102.000
64.79430 87.000
64.81425 72.000
64.83420 68.000
64.85414 87.000
64.87409 89.000
64.89404 87.000
64.91399 76.000
64.93393 95.000
64.95388 87.000
64.97383 76.000
64.99377 80.000
65.01372 78.000
65.03367 82.000
65.05361 82.000
65.07356 97.000
65.09351 96.000
65.11346 92.000
65.13340 81.000
65.15335 96.000
65.17330 85.000
65.19324 88.000
65.21319 77.000
65.23314 93.000
65.25308 87.000
65.27303 75.000
65.29298 82.000
65.31293 90.000
65.33287 92.000
65.35282 83.000
65.37277 79.000
65.39271 80.000
65.41266 83.000
65.43261 79.000
65.45255 80.000
65.47250 99.000
65.49245 86.000
65.51239 102.000
65.53234 86.000
65.55229 87.000
65.57224 81.000
65.59218 89.000
65.61213 77.000
65.63208 81.000
65.65202 89.000
65.67197 84.000
65.69192 97.000
65.71186 83.000
65.73181 100.000
65.75176 94.000
65.77171 79.000
65.79165 79.000
65.81160 88.000
65.83155 110.000
65.85149 92.000
65.87144 101.000
65.89139 106.000
65.91133 86.000
65.93128 95.000
65.95123 106.000
65.97117 108.000
65.99112 111.000
66.01107 108.000
66.03102 98.000
66.05096 82.000
66.07091 97.000
66.09086 109.000
66.11080 100.000
66.13075 119.000
66.15070 113.000
66.17064 102.000
66.19059 107.000
66.21054 120.000
66.23049 131.000
66.25043 139.000
66.27038 148.000
66.29033 166.000
66.31027 160.000
66.33022 177.000
66.35017 183.000
66.37011 200.000
66.39006 199.000
66.41001 221.000
66.42995 235.000
66.44990 250.000
66.46985 268.000
66.48980 236.000
66.50974 233.000
66.52969 223.000
66.54964 222.000
66.56958 253.000
66.58953 240.000
66.60948 240.000
66.62942 201.000
66.64937 185.000
66.66932 174.000
66.68927 183.000
66.70921 173.000
66.72916 181.000
66.74911 169.000
66.76905 159.000
66.78900 162.000
66.80895 151.000
66.82889 127.000
66.84884 122.000
66.86879 116.000
66.88874 83.000
66.90868 94.000
66.92863 100.000
66.94858 118.000
66.96852 95.000
66.98847 92.000
67.00842 93.000
67.02836 87.000
67.04831 76.000
67.06826 83.000
67.08820 94.000
67.10815 75.000
67.12810 91.000
67.14805 80.000
67.16799 85.000
67.18794 61.000
67.20789 76.000
67.22783 77.000
67.24778 87.000
67.26773 83.000
67.28767 82.000
67.30762 84.000
67.32757 83.000
67.34752 61.000
67.36746 89.000
67.38741 86.000
67.40736 67.000
67.42730 68.000
67.44725 58.000
67.46720 78.000
67.48714 77.000
67.50709 68.000
67.52704 66.000
67.54698 70.000
67.56693 76.000
67.58688 80.000
67.60683 69.000
67.62677 66.000
67.64672 83.000
67.66667 74.000
67.68661 83.000
67.70656 84.000
67.72651 85.000
67.74645 66.000
67.76640 91.000
67.78635 92.000
67.80630 76.000
67.82624 84.000
67.84619 78.000
67.86614 89.000
67.88608 101.000
67.90603 82.000
67.92598 68.000
67.94592 86.000
67.96587 85.000
67.98582 82.000
68.00576 79.000
68.02571 83.000
68.04566 71.000
68.06561 89.000
68.08555 86.000
68.10550 89.000
68.12545 102.000
68.14539 68.000
68.16534 82.000
68.18529 85.000
68.20523 96.000
68.22518 82.000
68.24513 82.000
68.26508 94.000
68.28502 72.000
68.30497 69.000
68.32492 79.000
68.34486 89.000
68.36481 74.000
68.38476 69.000
68.40470 76.000
68.42465 89.000
68.44460 80.000
68.46455 84.000
68.48449 83.000
68.50444 85.000
68.52439 63.000
68.54433 84.000
68.56428 68.000
68.58423 83.000
68.60417 69.000
68.62412 73.000
68.64407 71.000
68.66401 64.000
68.68396 81.000
68.70391 98.000
68.72386 69.000
68.74380 90.000
68.76375 86.000
68.78370 64.000
68.80364 72.000
68.82359 79.000
68.84354 73.000
68.86348 59.000
68.88343 77.000
68.90338 69.000
68.92333 84.000
68.94327 76.000
68.96322 94.000
68.98317 77.000
69.00311 79.000
69.02306 75.000
69.04301 75.000
69.06295 83.000
69.08290 70.000
69.10285 76.000
69.12279 83.000
69.14274 76.000
69.16269 86.000
69.18264 77.000
69.20258 77.000
69.22253 85.000
69.24248 78.000
69.26242 73.000
69.28237 79.000
69.30232 75.000
69.32226 72.000
69.34221 91.000
69.36216 75.000
69.38211 69.000
69.40205 95.000
69.42200 85.000
69.44195 62.000
69.46189 80.000
69.48184 74.000
69.50179 68.000
69.52173 68.000
69.54168 72.000
69.56163 93.000
69.58157 80.000
69.60152 62.000
69.62147 85.000
69.64142 93.000
69.66136 74.000
69.68131 70.000
69.70126 80.000
69.72120 98.000
69.74115 89.000
69.76110 80.000
69.78104 73.000
69.80099 60.000
69.82094 88.000
69.84089 73.000
69.86083 68.000
69.88078 78.000
69.90073 89.000
69.92067 86.000
69.94062 62.000
69.96057 81.000
69.98051 73.000
70.00046 72.000
70.02041 77.000
70.04035 74.000
70.06030 65.000
70.08025 79.000
70.10020 77.000
70.12014 59.000
70.14009 87.000
70.16004 68.000
70.17998 77.000
70.19993 63.000
70.21988 53.000
70.23982 73.000
70.25977 80.000
70.27972 69.000
70.29967 73.000
70.31961 71.000
70.33956 82.000
70.35951 76.000
70.37945 71.000
70.39940 76.000
70.41935 72.000
70.43929 80.000
70.45924 79.000
70.47919 74.000
70.49914 83.000
70.51908 77.000
70.53903 81.000
70.55898 75.000
70.57892 69.000
70.59887 86.000
70.61882 81.000
70.63876 70.000
70.65871 67.000
70.67866 76.000
70.69860 86.000
70.71855 91.000
70.73850 80.000
70.75845 95.000
70.77839 80.000
70.79834 86.000
70.81829 88.000
70.83823 74.000
70.85818 66.000
70.87813 62.000
70.89807 63.000
70.91802 91.000
70.93797 83.000
70.95792 92.000
70.97786 79.000
70.99781 80.000
71.01776 91.000
71.03770 99.000
71.05765 75.000
71.07760 91.000
71.09754 88.000
71.11749 82.000
71.13744 90.000
71.15738 86.000
71.17733 106.000
71.19728 99.000
71.21723 88.000
71.23717 99.000
71.25712 94.000
71.27707 107.000
71.29701 97.000
71.31696 96.000
71.33691 118.000
71.35685 91.000
71.37680 101.000
71.39675 105.000
71.41670 92.000
71.43664 93.000
71.45659 93.000
71.47654 100.000
71.49648 79.000
71.51643 82.000
71.53638 97.000
71.55632 89.000
71.57627 75.000
71.59622 82.000
71.61616 80.000
71.63611 71.000
71.65606 83.000
71.67601 97.000
71.69595 72.000
71.71590 70.000
71.73585 82.000
71.75579 84.000
71.77574 74.000
71.79569 81.000
71.81563 88.000
71.83558 77.000
71.85553 81.000
71.87548 75.000
71.89542 75.000
71.91537 99.000
71.93532 81.000
71.95526 84.000
71.97521 82.000
71.99516 95.000
72.01510 79.000
72.03505 67.000
72.05500 85.000
72.07495 59.000
72.09489 83.000
72.11484 82.000
72.13479 69.000
72.15473 84.000
72.17468 77.000
72.19463 76.000
72.21457 62.000
72.23452 89.000
72.25447 93.000
72.27441 82.000
72.29436 81.000
72.31431 87.000
72.33426 78.000
72.35420 76.000
72.37415 79.000
72.39410 67.000
72.41404 70.000
72.43399 72.000
72.45394 82.000
72.47388 88.000
72.49383 72.000
72.51378 88.000
72.53373 73.000
72.55367 81.000
72.57362 80.000
72.59357 84.000
72.61351 74.000
72.63346 77.000
72.65341 98.000
72.67335 77.000
72.69330 71.000
72.71325 93.000
72.73319 70.000
72.75314 68.000
72.77309 92.000
72.79304 71.000
72.81298 79.000
72.83293 76.000
72.85288 99.000
72.87282 83.000
72.89277 65.000
72.91272 68.000
72.93266 110.000
72.95261 87.000
72.97256 74.000
72.99251 98.000
73.01245 83.000
73.03240 85.000
73.05235 81.000
73.07229 84.000
73.09224 85.000
73.11219 90.000
73.13213 99.000
73.15208 104.000
73.17203 97.000
73.19197 120.000
73.21192 120.000
73.23187 111.000
73.25182 127.000
73.27176 125.000
73.29171 134.000
73.31166 132.000
73.33160 133.000
73.35155 137.000
73.37150 146.000
73.39144 130.000
73.41139 143.000
73.43134 134.000
73.45129 154.000
73.47123 129.000
73.49118 132.000
73.51113 125.000
73.53107 150.000
73.55102 127.000
73.57097 138.000
73.59091 115.000
73.61086 100.000
73.63081 117.000
73.65076 103.000
73.67070 120.000
73.69065 96.000
73.71060 94.000
73.73054 98.000
73.75049 100.000
73.77044 93.000
73.79038 96.000
73.81033 104.000
73.83028 103.000
73.85022 109.000
73.87017 84.000
73.89012 90.000
73.91007 103.000
73.93001 96.000
73.94996 84.000
73.96991 99.000
73.98985 121.000
74.00980 114.000
74.02975 108.000
74.04969 118.000
74.06964 93.000
74.08959 128.000
74.10954 141.000
74.12948 132.000
74.14943 122.000
74.16938 145.000
74.18932 131.000
74.20927 146.000
74.22922 137.000
74.24916 147.000
74.26911 139.000
74.28906 137.000
74.30900 147.000
74.32895 145.000
74.34890 141.000
74.36885 148.000
74.38879 155.000
74.40874 130.000
74.42869 154.000
74.44863 130.000
74.46858 144.000
74.48853 130.000
74.50847 121.000
74.52842 107.000
74.54837 90.000
74.56832 114.000
74.58826 99.000
74.60821 114.000
74.62816 99.000
74.64810 91.000
74.66805 110.000
74.68800 93.000
74.70794 93.000
74.72789 95.000
74.74784 107.000
74.76778 94.000
74.78773 100.000
74.80768 91.000
74.82763 89.000
74.84757 89.000
74.86752 81.000
74.88747 92.000
74.90741 103.000
74.92736 104.000
74.94731 90.000
74.96725 100.000
74.98720 87.000
75.00715 89.000
75.02710 99.000
75.04704 97.000
75.06699 89.000
75.08694 94.000
75.10688 106.000
75.12683 104.000
75.14678 99.000
75.16672 111.000
75.18667 102.000
75.20662 107.000
75.22657 118.000
75.24651 113.000
75.26646 121.000
75.28641 115.000
75.30635 108.000
75.32630 111.000
75.34625 114.000
75.36619 117.000
75.38614 120.000
75.40609 119.000
75.42603 111.000
75.44598 118.000
75.46593 130.000
75.48588 134.000
75.50582 121.000
75.52577 112.000
75.54572 131.000
75.56566 104.000
75.58561 128.000
75.60556 113.000
75.62550 117.000
75.64545 130.000
75.66540 97.000
75.68535 97.000
75.70529 114.000
75.72524 105.000
75.74519 100.000
75.76513 91.000
75.78508 86.000
75.80503 102.000
75.82497 85.000
75.84492 103.000
75.86487 103.000
75.88481 85.000
75.90476 74.000
75.92471 88.000
75.94466 80.000
75.96460 85.000
75.98455 79.000
76.00450 82.000
76.02444 63.000
76.04439 74.000
76.06434 73.000
76.08428 72.000
76.10423 79.000
76.12418 75.000
76.14413 69.000
76.16407 94.000
76.18402 86.000
76.20397 78.000
76.22391 77.000
76.24386 72.000
76.26381 79.000
76.28375 81.000
76.30370 76.000
76.32365 107.000
76.34359 72.000
76.36354 78.000
76.38349 72.000
76.40344 81.000
76.42338 78.000
76.44333 55.000
76.46328 79.000
76.48322 83.000
76.50317 61.000
76.52312 80.000
76.54306 75.000
76.56301 82.000
76.58296 85.000
76.60291 73.000
76.62285 91.000
76.64280 82.000
76.66275 70.000
76.68269 90.000
76.70264 67.000
76.72259 78.000
76.74253 78.000
76.76248 78.000
76.78243 76.000
76.80238 69.000
76.82232 93.000
76.84227 87.000
76.86222 83.000
76.88216 73.000
76.90211 76.000
76.92206 61.000
76.94200 67.000
76.96195 93.000
76.98190 75.000
77.00184 79.000
77.02179 72.000
77.04174 81.000
77.06169 79.000
77.08163 79.000
77.10158 93.000
77.12153 75.000
77.14147 79.000
77.16142 89.000
77.18137 74.000
77.20131 81.000
77.22126 85.000
77.24121 91.000
77.26116 79.000
77.28110 76.000
77.30105 72.000
77.32100 91.000
77.34094 90.000
77.36089 103.000
77.38084 86.000
77.40078 87.000
77.42073 100.000
77.44068 99.000
77.46062 98.000
77.48057 105.000
77.50052 107.000
77.52047 110.000
77.54041 107.000
77.56036 114.000
77.58031 112.000
77.60025 121.000
77.62020 160.000
77.64015 149.000
77.66009 154.000
77.68004 170.000
77.69999 176.000
77.71994 176.000
77.73988 177.000
77.75983 181.000
77.77978 200.000
77.79972 176.000
77.81967 208.000
77.83962 189.000
77.85956 187.000
77.87951 179.000
77.89946 178.000
77.91940 201.000
77.93935 151.000
77.95930 185.000
77.97925 155.000
77.99919 153.000
78.01914 156.000
78.03909 158.000
78.05903 151.000
78.07898 139.000
78.09893 142.000
78.11887 151.000
78.13882 137.000
78.15877 109.000
78.17872 130.000
78.19866 112.000
78.21861 104.000
78.23856 112.000
78.25850 90.000
78.27845 109.000
78.29840 96.000
78.31834 91.000
78.33829 91.000
78.35824 94.000
78.37819 98.000
78.39813 86.000
78.41808 91.000
78.43803 92.000
78.45797 92.000
78.47792 92.000
78.49787 82.000
78.51781 94.000
78.53776 60.000
78.55771 86.000
78.57765 88.000
78.59760 87.000
78.61755 92.000
78.63750 81.000
78.65744 94.000
78.67739 101.000
78.69734 90.000
78.71728 84.000
78.73723 89.000
78.75718 74.000
78.77712 80.000
78.79707 91.000
78.81702 75.000
78.83697 88.000
78.85691 77.000
78.87686 78.000
78.89681 74.000
78.91675 98.000
78.93670 95.000
78.95665 92.000
78.97659 77.000
78.99654 86.000
79.01649 94.000
79.03643 108.000
79.05638 97.000
79.07633 85.000
79.09628 95.000
79.11622 105.000
79.13617 93.000
79.15612 87.000
79.17606 92.000
79.19601 103.000
79.21596 104.000
79.23590 100.000
79.25585 99.000
79.27580 98.000
79.29575 80.000
79.31569 98.000
79.33564 101.000
79.35559 93.000
79.37553 85.000
79.39548 110.000
79.41543 107.000
79.43537 103.000
79.45532 96.000
79.47527 100.000
79.49521 82.000
79.51516 81.000
79.53511 83.000
79.55506 90.000
79.57500 90.000
79.59495 80.000
79.61490 106.000
79.63484 82.000
79.65479 92.000
79.67474 87.000
79.69468 85.000
79.71463 77.000
79.73458 82.000
79.75453 77.000
79.77447 89.000
79.79442 76.000
79.81437 78.000
79.83431 98.000
79.85426 77.000
79.87421 70.000
79.89415 83.000
79.91410 65.000
79.93405 64.000
79.95399 81.000
79.97394 89.000
79.99389 68.000
80.01384 85.000
80.03378 76.000
80.05373 99.000
80.07368 82.000
80.09362 74.000
80.11357 73.000
80.13352 81.000
80.15346 85.000
80.17341 76.000
80.19336 81.000
80.21331 75.000
80.23325 77.000
80.25320 93.000
80.27315 82.000
80.29309 112.000
80.31304 78.000
80.33299 89.000
80.35293 72.000
80.37288 76.000
80.39283 70.000
80.41278 74.000
80.43272 82.000
80.45267 76.000
80.47262 88.000
80.49256 88.000
80.51251 94.000
80.53246 90.000
80.55240 88.000
80.57235 93.000
80.59230 90.000
80.61224 78.000
80.63219 78.000
80.65214 81.000
80.67209 77.000
80.69203 91.000
80.71198 77.000
80.73193 66.000
80.75187 95.000
80.77182 82.000
80.79177 100.000
80.81171 92.000
80.83166 89.000
80.85161 72.000
80.87156 79.000
80.89150 76.000
80.91145 76.000
80.93140 85.000
80.95134 93.000
80.97129 81.000
80.99124 74.000
81.01118 82.000
81.03113 63.000
81.05108 80.000
81.07102 86.000
81.09097 88.000
81.11092 85.000
81.13087 81.000
81.15081 67.000
81.17076 75.000
81.19071 81.000
81.21065 76.000
81.23060 68.000
81.25055 86.000
81.27049 68.000
81.29044 78.000
81.31039 68.000
81.33034 79.000
81.35028 71.000
81.37023 69.000
81.39018 71.000
81.41012 73.000
81.43007 73.000
81.45002 82.000
81.46996 77.000
81.48991 72.000
81.50986 88.000
81.52980 77.000
81.54975 79.000
81.56970 71.000
81.58965 73.000
81.60959 73.000
81.62954 85.000
81.64949 70.000
81.66943 75.000
81.68938 83.000
81.70933 71.000
81.72927 85.000
81.74922 80.000
81.76917 97.000
81.78912 76.000
81.80906 81.000
81.82901 84.000
81.84896 81.000
81.86890 74.000
81.88885 79.000
81.90880 83.000
81.92874 69.000
81.94869 76.000
81.96864 82.000
81.98859 92.000
82.00853 80.000
82.02848 80.000
82.04843 91.000
82.06837 95.000
82.08832 84.000
82.10827 84.000
82.12821 79.000
82.14816 84.000
82.16811 66.000
82.18805 79.000
82.20800 60.000
82.22795 81.000
82.24790 78.000
82.26784 79.000
82.28779 82.000
82.30774 84.000
82.32768 97.000
82.34763 93.000
82.36758 66.000
82.38752 70.000
82.40747 71.000
82.42742 63.000
82.44737 89.000
82.46731 83.000
82.48726 89.000
82.50721 91.000
82.52715 82.000
82.54710 81.000
82.56705 94.000
82.58699 73.000
82.60694 67.000
82.62689 61.000
82.64683 69.000
82.66678 78.000
82.68673 78.000
82.70668 73.000
82.72662 71.000
82.74657 88.000
82.76652 76.000
82.78646 77.000
82.80641 86.000
82.82636 82.000
82.84630 84.000
82.86625 70.000
82.88620 73.000
82.90615 81.000
82.92609 68.000
82.94604 76.000
82.96599 81.000
82.98593 73.000
83.00588 59.000
83.02583 75.000
83.04577 81.000
83.06572 75.000
83.08567 81.000
83.10561 81.000
83.12556 98.000
83.14551 79.000
83.16546 67.000
83.18540 84.000
83.20535 59.000
83.22530 87.000
83.24524 83.000
83.26519 77.000
83.28514 86.000
83.30508 78.000
83.32503 77.000
83.34498 73.000
83.36493 78.000
83.38487 84.000
83.40482 79.000
83.42477 72.000
83.44471 81.000
83.46466 71.000
83.48461 88.000
83.50455 72.000
83.52450 94.000
83.54445 101.000
83.56440 73.000
83.58434 79.000
83.60429 72.000
83.62424 84.000
83.64418 88.000
83.66413 87.000
83.68408 77.000
83.70402 69.000
83.72397 81.000
83.74392 78.000
83.76386 80.000
83.78381 77.000
83.80376 78.000
83.82371 82.000
83.84365 84.000
83.86360 80.000
83.88355 85.000
83.90349 87.000
83.92344 84.000
83.94339 91.000
83.96333 85.000
83.98328 86.000
84.00323 96.000
84.02318 96.000
84.04312 101.000
84.06307 110.000
84.08302 113.000
84.10296 106.000
84.12291 117.000
84.14286 138.000
84.16280 119.000
84.18275 130.000
84.20270 129.000
84.22264 115.000
84.24259 148.000
84.26254 151.000
84.28249 152.000
84.30243 136.000
84.32238 145.000
84.34233 157.000
84.36227 154.000
84.38222 130.000
84.40217 135.000
84.42211 121.000
84.44206 142.000
84.46201 137.000
84.48196 140.000
84.50190 125.000
84.52185 114.000
84.54180 104.000
84.56174 101.000
84.58169 107.000
84.60164 112.000
84.62158 114.000
84.64153 113.000
84.66148 106.000
84.68142 110.000
84.70137 113.000
84.72132 126.000
84.74127 108.000
84.76121 101.000
84.78116 99.000
84.80111 101.000
84.82105 104.000
84.84100 97.000
84.86095 88.000
84.88089 82.000
84.90084 87.000
84.92079 66.000
84.94074 78.000
84.96068 77.000
84.98063 105.000
85.00058 95.000
85.02052 84.000
85.04047 91.000
85.06042 92.000
85.08036 73.000
85.10031 90.000
85.12026 85.000
85.14021 80.000
85.16015 91.000
85.18010 70.000
85.20005 81.000
85.21999 71.000
85.23994 81.000
85.25989 95.000
85.27983 68.000
85.29978 96.000
85.31973 89.000
85.33967 82.000
85.35962 71.000
85.37957 80.000
85.39952 78.000
85.41946 77.000
85.43941 63.000
85.45936 80.000
85.47930 87.000
85.49925 81.000
85.51920 81.000
85.53914 71.000
85.55909 78.000
85.57904 76.000
85.59899 80.000
85.61893 75.000
85.63888 55.000
85.65883 87.000
85.67877 85.000
85.69872 77.000
85.71867 78.000
85.73861 68.000
85.75856 69.000
85.77851 72.000
85.79845 86.000
85.81840 83.000
85.83835 82.000
85.85830 81.000
85.87824 69.000
85.89819 71.000
85.91814 101.000
85.93808 74.000
85.95803 58.000
85.97798 102.000
85.99792 68.000
86.01787 76.000
86.03782 78.000
86.05777 72.000
86.07771 71.000
86.09766 81.000
86.11761 106.000
86.13755 77.000
86.15750 99.000
86.17745 79.000
86.19739 76.000
86.21734 80.000
86.23729 87.000
86.25723 90.000
86.27718 82.000
86.29713 86.000
86.31708 93.000
86.33702 95.000
86.35697 83.000
86.37692 94.000
86.39686 93.000
86.41681 94.000
86.43676 90.000
86.45670 86.000
86.47665 101.000
86.49660 67.000
86.51655 95.000
86.53649 102.000
86.55644 94.000
86.57639 89.000
86.59633 78.000
86.61628 85.000
86.63623 81.000
86.65617 92.000
86.67612 92.000
86.69607 91.000
86.71602 66.000
86.73596 118.000
86.75591 97.000
86.77586 75.000
86.79580 99.000
86.81575 103.000
86.83570 84.000
86.85564 106.000
86.87559 106.000
86.89554 108.000
86.91548 107.000
86.93543 121.000
86.95538 112.000
86.97533 111.000
86.99527 114.000
87.01522 119.000
87.03517 102.000
87.05511 99.000
87.07506 105.000
87.09501 117.000
87.11495 108.000
87.13490 107.000
87.15485 85.000
87.17480 101.000
87.19474 106.000
87.21469 107.000
87.23464 108.000
87.25458 117.000
87.27453 88.000
87.29448 95.000
87.31442 127.000
87.33437 94.000
87.35432 94.000
87.37426 97.000
87.39421 96.000
87.41416 88.000
87.43411 88.000
87.45405 110.000
87.47400 79.000
87.49395 93.000
87.51389 83.000
87.53384 86.000
87.55379 78.000
87.57373 70.000
87.59368 77.000
87.61363 88.000
87.63358 79.000
87.65352 91.000
87.67347 69.000
87.69342 79.000
87.71336 85.000
87.73331 85.000
87.75326 75.000
87.77320 80.000
87.79315 78.000
87.81310 60.000
87.83304 84.000
87.85299 88.000
87.87294 72.000
87.89289 66.000
87.91283 91.000
87.93278 64.000
87.95273 61.000
87.97267 77.000
87.99262 70.000
88.01257 56.000
88.03251 69.000
88.05246 84.000
88.07241 58.000
88.09236 71.000
88.11230 74.000
88.13225 72.000
88.15220 55.000
88.17214 66.000
88.19209 86.000
88.21204 82.000
88.23198 78.000
88.25193 61.000
88.27188 80.000
88.29183 70.000
88.31177 89.000
88.33172 58.000
88.35167 84.000
88.37161 90.000
88.39156 91.000
88.41151 78.000
88.43145 70.000
88.45140 66.000
88.47135 71.000
88.49129 71.000
88.51124 75.000
88.53119 71.000
88.55114 69.000
88.57108 77.000
88.59103 85.000
88.61098 90.000
88.63092 69.000
88.65087 80.000
88.67082 81.000
88.69076 73.000
88.71071 83.000
88.73066 70.000
88.75061 81.000
88.77055 77.000
88.79050 93.000
88.81045 78.000
88.83039 71.000
88.85034 58.000
88.87029 75.000
88.89023 83.000
88.91018 89.000
88.93013 88.000
88.95007 75.000
88.97002 84.000
88.98997 85.000
89.00992 84.000
89.02986 82.000
89.04981 81.000
89.06976 92.000
89.08970 72.000
89.10965 88.000
89.12960 87.000
89.14954 82.000
89.16949 86.000
89.18944 88.000
89.20939 108.000
89.22933 80.000
89.24928 89.000
89.26923 91.000
89.28917 87.000
89.30912 81.000
89.32907 73.000
89.34901 95.000
89.36896 101.000
89.38891 85.000
89.40885 106.000
89.42880 113.000
89.44875 85.000
89.46870 83.000
89.48864 95.000
89.50859 90.000
89.52854 113.000
89.54848 102.000
89.56843 112.000
89.58838 98.000
89.60832 106.000
89.62827 101.000
89.64822 122.000
89.66817 119.000
89.68811 123.000
89.70806 127.000
89.72801 145.000
89.74795 134.000
89.76790 159.000
89.78785 107.000
89.80779 149.000
89.82774 122.000
89.84769 131.000
89.86764 159.000
89.88758 140.000
89.90753 128.000
89.92748 146.000
89.94742 165.000
89.96737 160.000
89.98732 161.000
90.00726 195.000
