10.00000 130.000
10.01995 123.000
10.03989 115.000
10.05984 104.000
10.07979 108.000
10.09973 104.000
10.11968 121.000
10.13963 102.000
10.15958 119.000
10.17952 124.000
10.19947 111.000
10.21942 120.000
10.23936 116.000
10.25931 105.000
10.27926 118.000
10.29920 112.000
10.31915 104.000
10.33910 120.000
10.35905 120.000
10.37899 102.000
10.39894 119.000
10.41889 119.000
10.43883 125.000
10.45878 98.000
10.47873 107.000
10.49867 91.000
10.51862 114.000
10.53857 126.000
10.55851 104.000
10.57846 102.000
10.59841 123.000
10.61836 115.000
10.63830 106.000
10.65825 111.000
10.67820 120.000
10.69814 101.000
10.71809 119.000
10.73804 101.000
10.75798 114.000
10.77793 119.000
10.79788 94.000
10.81783 119.000
10.83777 131.000
10.85772 114.000
10.87767 117.000
10.89761 113.000
10.91756 120.000
10.93751 111.000
10.95745 94.000
10.97740 113.000
10.99735 98.000
11.01730 102.000
11.03724 114.000
11.05719 108.000
11.07714 115.000
11.09708 121.000
11.11703 123.000
11.13698 111.000
11.15692 114.000
11.17687 154.000
11.19682 122.000
11.21676 107.000
11.23671 101.000
11.25666 110.000
11.27661 111.000
11.29655 107.000
11.31650 127.000
11.33645 107.000
11.35639 96.000
11.37634 112.000
11.39629 100.000
11.41623 124.000
11.43618 102.000
11.45613 129.000
11.47608 112.000
11.49602 114.000
11.51597 117.000
11.53592 97.000
11.55586 130.000
11.57581 100.000
11.59576 125.000
11.61570 119.000
11.63565 116.000
11.65560 107.000
11.67554 102.000
11.69549 106.000
11.71544 105.000
11.73539 112.000
11.75533 129.000
11.77528 111.000
11.79523 119.000
11.81517 118.000
11.83512 110.000
11.85507 115.000
11.87501 117.000
11.89496 118.000
11.91491 108.000
11.93486 112.000
11.95480 110.000
11.97475 113.000
11.99470 120.000
12.01464 110.000
12.03459 114.000
12.05454 107.000
12.07448 106.000
12.09443 116.000
12.11438 124.000
12.13432 95.000
12.15427 110.000
12.17422 135.000
12.19417 92.000
12.21411 89.000
12.23406 108.000
12.25401 117.000
12.27395 111.000
12.29390 123.000
12.31385 103.000
12.33379 106.000
12.35374 97.000
12.37369 106.000
12.39364 119.000
12.41358 122.000
12.43353 104.000
12.45348 119.000
12.47342 110.000
12.49337 117.000
12.51332 127.000
12.53326 110.000
12.55321 123.000
12.57316 120.000
12.59311 125.000
12.61305 112.000
12.63300 109.000
12.65295 117.000
12.67289 117.000
12.69284 109.000
12.71279 110.000
12.73273 129.000
12.75268 116.000
12.77263 111.000
12.79257 129.000
12.81252 105.000
12.83247 121.000
12.85242 95.000
12.87236 127.000
12.89231 108.000
12.91226 108.000
12.93220 133.000
12.95215 130.000
12.97210 125.000
12.99204 114.000
13.01199 116.000
13.03194 129.000
13.05189 143.000
13.07183 125.000
13.09178 123.000
13.11173 116.000
13.13167 131.000
13.15162 144.000
13.17157 94.000
13.19151 101.000
13.21146 126.000
13.23141 122.000
13.25135 115.000
13.27130 113.000
13.29125 106.000
13.31120 115.000
13.33114 140.000
13.35109 113.000
13.37104 132.000
13.39098 125.000
13.41093 138.000
13.43088 126.000
13.45082 114.000
13.47077 123.000
13.49072 126.000
13.51067 131.000
13.53061 114.000
13.55056 122.000
13.57051 142.000
13.59045 121.000
13.61040 125.000
13.63035 138.000
13.65029 128.000
13.67024 144.000
13.69019 122.000
13.71013 148.000
13.73008 116.000
13.75003 127.000
13.76998 127.000
13.78992 147.000
13.80987 129.000
13.82982 143.000
13.84976 140.000
13.86971 142.000
13.88966 122.000
13.90960 132.000
13.92955 153.000
13.94950 128.000
13.96945 144.000
13.98939 150.000
14.00934 153.000
14.02929 169.000
14.04923 141.000
14.06918 149.000
14.08913 168.000
14.10907 166.000
14.12902 152.000
14.14897 139.000
14.16892 161.000
14.18886 141.000
14.20881 145.000
14.22876 142.000
14.24870 154.000
14.26865 181.000
14.28860 159.000
14.30854 173.000
14.32849 152.000
14.34844 163.000
14.36838 146.000
14.38833 166.000
14.40828 155.000
14.42823 146.000
14.44817 159.000
14.46812 163.000
14.48807 177.000
14.50801 201.000
14.52796 165.000
14.54791 157.000
14.56785 179.000
14.58780 167.000
14.60775 162.000
14.62770 199.000
14.64764 188.000
14.66759 182.000
14.68754 208.000
14.70748 186.000
14.72743 193.000
14.74738 188.000
14.76732 186.000
14.78727 182.000
14.80722 207.000
14.82716 203.000
14.84711 232.000
14.86706 219.000
14.88701 226.000
14.90695 245.000
14.92690 237.000
14.94685 257.000
14.96679 228.000
14.98674 268.000
15.00669 223.000
15.02663 242.000
15.04658 252.000
15.06653 264.000
15.08648 290.000
15.10642 305.000
15.12637 306.000
15.14632 305.000
15.16626 310.000
15.18621 312.000
15.20616 333.000
15.22610 370.000
15.24605 370.000
15.26600 405.000
15.28594 437.000
15.30589 478.000
15.32584 513.000
15.34579 617.000
15.36573 697.000
15.38568 828.000
15.40563 987.000
15.42557 1344.000
15.44552 1704.000
15.46547 2343.000
15.48541 3322.000
15.50536 4622.000
15.52531 6414.000
15.54526 8922.000
15.56520 11440.000
15.58515 13556.000
15.60510 14682.000
15.62504 14080.000
15.64499 10808.000
15.66494 7292.000
15.68488 4169.000
15.70483 2146.000
15.72478 1184.000
15.74472 839.000
15.76467 602.000
15.78462 544.000
15.80457 440.000
15.82451 401.000
15.84446 342.000
15.86441 353.000
15.88435 278.000
15.90430 287.000
15.92425 278.000
15.94419 246.000
15.96414 270.000
15.98409 243.000
16.00404 242.000
16.02398 230.000
16.04393 246.000
16.06388 213.000
16.08382 211.000
16.10377 192.000
16.12372 203.000
16.14366 200.000
16.16361 176.000
16.18356 190.000
16.20351 188.000
16.22345 169.000
16.24340 151.000
16.26335 179.000
16.28329 166.000
16.30324 165.000
16.32319 140.000
16.34313 149.000
16.36308 157.000
16.38303 142.000
16.40297 152.000
16.42292 143.000
16.44287 137.000
16.46282 120.000
16.48276 137.000
16.50271 129.000
16.52266 129.000
16.54260 128.000
16.56255 134.000
16.58250 125.000
16.60244 127.000
16.62239 111.000
16.64234 131.000
16.66229 107.000
16.68223 113.000
16.70218 103.000
16.72213 130.000
16.74207 122.000
16.76202 110.000
16.78197 107.000
16.80191 118.000
16.82186 114.000
16.84181 116.000
16.86175 136.000
16.88170 120.000
16.90165 118.000
16.92160 106.000
16.94154 124.000
16.96149 108.000
16.98144 106.000
17.00138 101.000
17.02133 131.000
17.04128 96.000
17.06122 109.000
17.08117 104.000
17.10112 104.000
17.12107 91.000
17.14101 105.000
17.16096 101.000
17.18091 98.000
17.20085 112.000
17.22080 123.000
17.24075 116.000
17.26069 96.000
17.28064 125.000
17.30059 103.000
17.32053 104.000
17.34048 114.000
17.36043 133.000
17.38038 123.000
17.40032 107.000
17.42027 133.000
17.44022 119.000
17.46016 118.000
17.48011 100.000
17.50006 86.000
17.52000 111.000
17.53995 94.000
17.55990 98.000
17.57985 91.000
17.59979 102.000
17.61974 92.000
17.63969 123.000
17.65963 115.000
17.67958 125.000
17.69953 120.000
17.71947 139.000
17.73942 113.000
17.75937 101.000
17.77932 124.000
17.79926 119.000
17.81921 108.000
17.83916 101.000
17.85910 117.000
17.87905 103.000
17.89900 112.000
17.91894 100.000
17.93889 102.000
17.95884 135.000
17.97878 121.000
17.99873 114.000
18.01868 130.000
18.03863 138.000
18.05857 161.000
18.07852 185.000
18.09847 198.000
18.11841 215.000
18.13836 227.000
18.15831 311.000
18.17825 331.000
18.19820 366.000
18.21815 397.000
18.23810 412.000
18.25804 387.000
18.27799 367.000
18.29794 353.000
18.31788 249.000
18.33783 220.000
18.35778 164.000
18.37772 122.000
18.39767 126.000
18.41762 115.000
18.43756 122.000
18.45751 103.000
18.47746 102.000
18.49741 90.000
18.51735 84.000
18.53730 109.000
18.55725 97.000
18.57719 116.000
18.59714 120.000
18.61709 104.000
18.63703 101.000
18.65698 101.000
18.67693 124.000
18.69688 86.000
18.71682 110.000
18.73677 82.000
18.75672 95.000
18.77666 103.000
18.79661 109.000
18.81656 115.000
18.83650 103.000
18.85645 107.000
18.87640 110.000
18.89634 101.000
18.91629 102.000
18.93624 105.000
18.95619 104.000
18.97613 98.000
18.99608 89.000
19.01603 100.000
19.03597 89.000
19.05592 119.000
19.07587 95.000
19.09581 100.000
19.11576 118.000
19.13571 109.000
19.15566 97.000
19.17560 119.000
19.19555 100.000
19.21550 110.000
19.23544 97.000
19.25539 80.000
19.27534 94.000
19.29528 89.000
19.31523 94.000
19.33518 83.000
19.35513 111.000
19.37507 96.000
19.39502 117.000
19.41497 117.000
19.43491 110.000
19.45486 88.000
19.47481 107.000
19.49475 111.000
19.51470 94.000
19.53465 116.000
19.55459 118.000
19.57454 101.000
19.59449 94.000
19.61444 103.000
19.63438 94.000
19.65433 102.000
19.67428 91.000
19.69422 114.000
19.71417 104.000
19.73412 96.000
19.75406 101.000
19.77401 90.000
19.79396 83.000
19.81391 126.000
19.83385 95.000
19.85380 104.000
19.87375 97.000
19.89369 103.000
19.91364 83.000
19.93359 95.000
19.95353 100.000
19.97348 84.000
19.99343 85.000
20.01337 124.000
20.03332 104.000
20.05327 105.000
20.07322 85.000
20.09316 94.000
20.11311 97.000
20.13306 93.000
20.15300 108.000
20.17295 96.000
20.19290 107.000
20.21284 92.000
20.23279 106.000
20.25274 113.000
20.27269 109.000
20.29263 109.000
20.31258 87.000
20.33253 102.000
20.35247 106.000
20.37242 92.000
20.39237 109.000
20.41231 95.000
20.43226 105.000
20.45221 103.000
20.47215 102.000
20.49210 112.000
20.51205 109.000
20.53200 107.000
20.55194 108.000
20.57189 92.000
20.59184 100.000
20.61178 118.000
20.63173 98.000
20.65168 115.000
20.67162 106.000
20.69157 98.000
20.71152 93.000
20.73147 102.000
20.75141 88.000
20.77136 87.000
20.79131 84.000
20.81125 94.000
20.83120 109.000
20.85115 97.000
20.87109 88.000
20.89104 82.000
20.91099 89.000
20.93094 105.000
20.95088 94.000
20.97083 84.000
20.99078 99.000
21.01072 102.000
21.03067 90.000
21.05062 87.000
21.07056 127.000
21.09051 91.000
21.11046 102.000
21.13040 91.000
21.15035 86.000
21.17030 91.000
21.19025 83.000
21.21019 89.000
21.23014 90.000
21.25009 89.000
21.27003 106.000
21.28998 95.000
21.30993 86.000
21.32987 105.000
21.34982 89.000
21.36977 92.000
21.38972 104.000
21.40966 95.000
21.42961 108.000
21.44956 108.000
21.46950 100.000
21.48945 82.000
21.50940 105.000
21.52934 111.000
21.54929 110.000
21.56924 106.000
21.58918 87.000
21.60913 104.000
21.62908 93.000
21.64903 98.000
21.66897 106.000
21.68892 104.000
21.70887 106.000
21.72881 94.000
21.74876 95.000
21.76871 107.000
21.78865 92.000
21.80860 90.000
21.82855 109.000
21.84850 86.000
21.86844 85.000
21.88839 104.000
21.90834 97.000
21.92828 103.000
21.94823 85.000
21.96818 108.000
21.98812 102.000
22.00807 84.000
22.02802 105.000
22.04796 88.000
22.06791 97.000
22.08786 103.000
22.10781 92.000
22.12775 114.000
22.14770 98.000
22.16765 92.000
22.18759 104.000
22.20754 91.000
22.22749 97.000
22.24743 105.000
22.26738 104.000
22.28733 106.000
22.30728 96.000
22.32722 113.000
22.34717 80.000
22.36712 120.000
22.38706 91.000
22.40701 105.000
22.42696 97.000
22.44690 92.000
22.46685 100.000
22.48680 111.000
22.50675 98.000
22.52669 90.000
22.54664 96.000
22.56659 104.000
22.58653 94.000
22.60648 93.000
22.62643 74.000
22.64637 101.000
22.66632 90.000
22.68627 118.000
22.70621 95.000
22.72616 112.000
22.74611 96.000
22.76606 109.000
22.78600 111.000
22.80595 108.000
22.82590 91.000
22.84584 109.000
22.86579 110.000
22.88574 109.000
22.90568 103.000
22.92563 91.000
22.94558 97.000
22.96553 113.000
22.98547 95.000
23.00542 129.000
23.02537 98.000
23.04531 120.000
23.06526 86.000
23.08521 102.000
23.10515 108.000
23.12510 118.000
23.14505 91.000
23.16499 103.000
23.18494 108.000
23.20489 95.000
23.22484 75.000
23.24478 104.000
23.26473 101.000
23.28468 109.000
23.30462 81.000
23.32457 99.000
23.34452 99.000
23.36446 97.000
23.38441 90.000
23.40436 103.000
23.42431 107.000
23.44425 109.000
23.46420 102.000
23.48415 115.000
23.50409 110.000
23.52404 97.000
23.54399 95.000
23.56393 100.000
23.58388 105.000
23.60383 94.000
23.62377 83.000
23.64372 114.000
23.66367 106.000
23.68362 102.000
23.70356 84.000
23.72351 91.000
23.74346 108.000
23.76340 116.000
23.78335 98.000
23.80330 103.000
23.82324 120.000
23.84319 138.000
23.86314 83.000
23.88309 109.000
23.90303 95.000
23.92298 93.000
23.94293 96.000
23.96287 94.000
23.98282 78.000
24.00277 110.000
24.02271 94.000
24.04266 118.000
24.06261 101.000
24.08256 101.000
24.10250 87.000
24.12245 95.000
24.14240 107.000
24.16234 105.000
24.18229 102.000
24.20224 107.000
24.22218 109.000
24.24213 91.000
24.26208 120.000
24.28202 106.000
24.30197 107.000
24.32192 93.000
24.34187 102.000
24.36181 90.000
24.38176 104.000
24.40171 90.000
24.42165 103.000
24.44160 94.000
24.46155 93.000
24.48149 100.000
24.50144 115.000
24.52139 97.000
24.54134 94.000
24.56128 91.000
24.58123 100.000
24.60118 104.000
24.62112 111.000
24.64107 89.000
24.66102 94.000
24.68096 89.000
24.70091 90.000
24.72086 114.000
24.74080 105.000
24.76075 93.000
24.78070 101.000
24.80065 116.000
24.82059 95.000
24.84054 100.000
24.86049 111.000
24.88043 100.000
24.90038 101.000
24.92033 95.000
24.94027 105.000
24.96022 95.000
24.98017 90.000
25.00012 104.000
25.02006 100.000
25.04001 91.000
25.05996 98.000
25.07990 91.000
25.09985 116.000
25.11980 87.000
25.13974 113.000
25.15969 138.000
25.17964 101.000
25.19958 104.000
25.21953 110.000
25.23948 112.000
25.25943 99.000
25.27937 111.000
25.29932 93.000
25.31927 92.000
25.33921 119.000
25.35916 105.000
25.37911 102.000
25.39905 110.000
25.41900 100.000
25.43895 122.000
25.45890 113.000
25.47884 122.000
25.49879 109.000
25.51874 106.000
25.53868 104.000
25.55863 130.000
25.57858 94.000
25.59852 100.000
25.61847 121.000
25.63842 107.000
25.65837 87.000
25.67831 102.000
25.69826 115.000
25.71821 101.000
25.73815 98.000
25.75810 123.000
25.77805 99.000
25.79799 104.000
25.81794 98.000
25.83789 116.000
25.85783 108.000
25.87778 89.000
25.89773 117.000
25.91768 98.000
25.93762 106.000
25.95757 117.000
25.97752 112.000
25.99746 83.000
26.01741 97.000
26.03736 108.000
26.05730 112.000
26.07725 106.000
26.09720 101.000
26.11715 101.000
26.13709 97.000
26.15704 99.000
26.17699 100.000
26.19693 83.000
26.21688 98.000
26.23683 96.000
26.25677 88.000
26.27672 109.000
26.29667 107.000
26.31661 103.000
26.33656 93.000
26.35651 103.000
26.37646 98.000
26.39640 114.000
26.41635 102.000
26.43630 111.000
26.45624 95.000
26.47619 104.000
26.49614 99.000
26.51608 97.000
26.53603 93.000
26.55598 96.000
26.57593 122.000
26.59587 96.000
26.61582 124.000
26.63577 125.000
26.65571 96.000
26.67566 140.000
26.69561 99.000
26.71555 126.000
26.73550 92.000
26.75545 106.000
26.77539 111.000
26.79534 106.000
26.81529 102.000
26.83524 83.000
26.85518 91.000
26.87513 105.000
26.89508 111.000
26.91502 110.000
26.93497 102.000
26.95492 88.000
26.97486 80.000
26.99481 95.000
27.01476 104.000
27.03471 105.000
27.05465 98.000
27.07460 100.000
27.09455 101.000
27.11449 109.000
27.13444 104.000
27.15439 93.000
27.17433 97.000
27.19428 83.000
27.21423 89.000
27.23417 102.000
27.25412 120.000
27.27407 86.000
27.29402 96.000
27.31396 94.000
27.33391 95.000
27.35386 104.000
27.37380 105.000
27.39375 94.000
27.41370 87.000
27.43364 100.000
27.45359 97.000
27.47354 115.000
27.49349 95.000
27.51343 105.000
27.53338 104.000
27.55333 108.000
27.57327 100.000
27.59322 101.000
27.61317 123.000
27.63311 106.000
27.65306 116.000
27.67301 98.000
27.69296 96.000
27.71290 117.000
27.73285 107.000
27.75280 103.000
27.77274 99.000
27.79269 85.000
27.81264 100.000
27.83258 92.000
27.85253 108.000
27.87248 101.000
27.89242 86.000
27.91237 106.000
27.93232 110.000
27.95227 113.000
27.97221 102.000
27.99216 120.000
28.01211 92.000
28.03205 85.000
28.05200 98.000
28.07195 98.000
28.09189 106.000
28.11184 96.000
28.13179 104.000
28.15174 107.000
28.17168 105.000
28.19163 114.000
28.21158 113.000
28.23152 107.000
28.25147 115.000
28.27142 90.000
28.29136 114.000
28.31131 108.000
28.33126 116.000
28.35120 109.000
28.37115 105.000
28.39110 102.000
28.41105 88.000
28.43099 101.000
28.45094 98.000
28.47089 114.000
28.49083 91.000
28.51078 107.000
28.53073 95.000
28.55067 103.000
28.57062 104.000
28.59057 109.000
28.61052 96.000
28.63046 108.000
28.65041 106.000
28.67036 80.000
28.69030 104.000
28.71025 109.000
28.73020 90.000
28.75014 106.000
28.77009 102.000
28.79004 99.000
28.80998 115.000
28.82993 128.000
28.84988 99.000
28.86983 88.000
28.88977 103.000
28.90972 114.000
28.92967 105.000
28.94961 112.000
28.96956 85.000
28.98951 119.000
29.00945 112.000
29.02940 110.000
29.04935 101.000
29.06930 104.000
29.08924 111.000
29.10919 109.000
29.12914 116.000
29.14908 126.000
29.16903 113.000
29.18898 99.000
29.20892 104.000
29.22887 98.000
29.24882 100.000
29.26877 86.000
29.28871 98.000
29.30866 118.000
29.32861 119.000
29.34855 114.000
29.36850 102.000
29.38845 114.000
29.40839 103.000
29.42834 114.000
29.44829 105.000
29.46823 99.000
29.48818 109.000
29.50813 107.000
29.52808 103.000
29.54802 117.000
29.56797 111.000
29.58792 112.000
29.60786 120.000
29.62781 107.000
29.64776 97.000
29.66770 99.000
29.68765 104.000
29.70760 125.000
29.72755 138.000
29.74749 124.000
29.76744 140.000
29.78739 130.000
29.80733 147.000
29.82728 160.000
29.84723 176.000
29.86717 187.000
29.88712 203.000
29.90707 249.000
29.92701 265.000
29.94696 277.000
29.96691 314.000
29.98686 351.000
30.00680 356.000
30.02675 406.000
30.04670 372.000
30.06664 448.000
30.08659 436.000
30.10654 411.000
30.12648 395.000
30.14643 358.000
30.16638 303.000
30.18633 299.000
30.20627 256.000
30.22622 225.000
30.24617 205.000
30.26611 149.000
30.28606 167.000
30.30601 139.000
30.32595 143.000
30.34590 154.000
30.36585 132.000
30.38579 123.000
30.40574 108.000
30.42569 138.000
30.44564 136.000
30.46558 120.000
30.48553 120.000
30.50548 106.000
30.52542 138.000
30.54537 119.000
30.56532 113.000
30.58526 106.000
30.60521 110.000
30.62516 116.000
30.64511 123.000
30.66505 112.000
30.68500 130.000
30.70495 123.000
30.72489 110.000
30.74484 142.000
30.76479 95.000
30.78473 122.000
30.80468 115.000
30.82463 128.000
30.84458 113.000
30.86452 114.000
30.88447 123.000
30.90442 109.000
30.92436 122.000
30.94431 105.000
30.96426 123.000
30.98420 100.000
31.00415 120.000
31.02410 126.000
31.04404 124.000
31.06399 123.000
31.08394 112.000
31.10389 141.000
31.12383 112.000
31.14378 118.000
31.16373 114.000
31.18367 131.000
31.20362 125.000
31.22357 121.000
31.24351 126.000
31.26346 143.000
31.28341 146.000
31.30336 129.000
31.32330 140.000
31.34325 140.000
31.36320 171.000
31.38314 172.000
31.40309 191.000
31.42304 210.000
31.44298 265.000
31.46293 271.000
31.48288 330.000
31.50282 437.000
31.52277 589.000
31.54272 868.000
31.56267 1041.000
31.58261 1187.000
31.60256 1143.000
31.62251 1001.000
31.64245 883.000
31.66240 769.000
31.68235 651.000
31.70229 491.000
31.72224 372.000
31.74219 270.000
31.76214 237.000
31.78208 179.000
31.80203 179.000
31.82198 168.000
31.84192 140.000
31.86187 150.000
31.88182 123.000
31.90176 131.000
31.92171 123.000
31.94166 127.000
31.96160 144.000
31.98155 117.000
32.00150 133.000
32.02145 122.000
32.04139 129.000
32.06134 127.000
32.08129 115.000
32.10123 123.000
32.12118 120.000
32.14113 126.000
32.16107 112.000
32.18102 104.000
32.20097 101.000
32.22092 111.000
32.24086 125.000
32.26081 112.000
32.28076 111.000
32.30070 114.000
32.32065 112.000
32.34060 107.000
32.36054 104.000
32.38049 81.000
32.40044 105.000
32.42039 107.000
32.44033 111.000
32.46028 95.000
32.48023 113.000
32.50017 92.000
32.52012 88.000
32.54007 106.000
32.56001 119.000
32.57996 95.000
32.59991 120.000
32.61985 117.000
32.63980 89.000
32.65975 108.000
32.67970 103.000
32.69964 104.000
32.71959 108.000
32.73954 103.000
32.75948 101.000
32.77943 105.000
32.79938 98.000
32.81932 106.000
32.83927 103.000
32.85922 129.000
32.87917 97.000
32.89911 107.000
32.91906 104.000
32.93901 125.000
32.95895 96.000
32.97890 114.000
32.99885 106.000
33.01879 104.000
33.03874 112.000
33.05869 117.000
33.07863 119.000
33.09858 98.000
33.11853 106.000
33.13848 89.000
33.15842 106.000
33.17837 105.000
33.19832 105.000
33.21826 91.000
33.23821 102.000
33.25816 109.000
33.27810 101.000
33.29805 81.000
33.31800 103.000
33.33795 93.000
33.35789 103.000
33.37784 99.000
33.39779 109.000
33.41773 126.000
33.43768 111.000
33.45763 112.000
33.47757 105.000
33.49752 119.000
33.51747 136.000
33.53741 89.000
33.55736 106.000
33.57731 92.000
33.59726 113.000
33.61720 104.000
33.63715 101.000
33.65710 104.000
33.67704 105.000
33.69699 107.000
33.71694 119.000
33.73688 120.000
33.75683 97.000
33.77678 91.000
33.79673 102.000
33.81667 108.000
33.83662 102.000
33.85657 103.000
33.87651 99.000
33.89646 114.000
33.91641 131.000
33.93635 130.000
33.95630 111.000
33.97625 94.000
33.99620 113.000
34.01614 97.000
34.03609 122.000
34.05604 111.000
34.07598 117.000
34.09593 111.000
34.11588 120.000
34.13582 105.000
34.15577 132.000
34.17572 133.000
34.19566 124.000
34.21561 114.000
34.23556 107.000
34.25551 119.000
34.27545 119.000
34.29540 126.000
34.31535 125.000
34.33529 119.000
34.35524 101.000
34.37519 103.000
34.39513 119.000
34.41508 146.000
34.43503 107.000
34.45498 109.000
34.47492 109.000
34.49487 134.000
34.51482 109.000
34.53476 122.000
34.55471 120.000
34.57466 120.000
34.59460 115.000
34.61455 135.000
34.63450 134.000
34.65444 108.000
34.67439 125.000
34.69434 113.000
34.71429 132.000
34.73423 134.000
34.75418 138.000
34.77413 137.000
34.79407 125.000
34.81402 124.000
34.83397 131.000
34.85391 141.000
34.87386 134.000
34.89381 149.000
34.91376 149.000
34.93370 145.000
34.95365 147.000
34.97360 143.000
34.99354 166.000
35.01349 161.000
35.03344 185.000
35.05338 187.000
35.07333 195.000
35.09328 202.000
35.11322 232.000
35.13317 248.000
35.15312 291.000
35.17307 282.000
35.19301 336.000
35.21296 408.000
35.23291 432.000
35.25285 530.000
35.27280 626.000
35.29275 632.000
35.31269 748.000
35.33264 750.000
35.35259 928.000
35.37254 999.000
35.39248 992.000
35.41243 1090.000
35.43238 1072.000
35.45232 1127.000
35.47227 1109.000
35.49222 1066.000
35.51216 1010.000
35.53211 803.000
35.55206 801.000
35.57201 667.000
35.59195 570.000
35.61190 543.000
35.63185 446.000
35.65179 413.000
35.67174 340.000
35.69169 369.000
35.71163 404.000
35.73158 445.000
35.75153 434.000
35.77147 571.000
35.79142 688.000
35.81137 849.000
35.83132 905.000
35.85126 943.000
35.87121 865.000
35.89116 719.000
35.91110 674.000
35.93105 575.000
35.95100 504.000
35.97094 419.000
35.99089 346.000
36.01084 318.000
36.03079 219.000
36.05073 197.000
36.07068 195.000
36.09063 183.000
36.11057 146.000
36.13052 160.000
36.15047 165.000
36.17041 152.000
36.19036 139.000
36.21031 168.000
36.23025 152.000
36.25020 142.000
36.27015 133.000
36.29010 140.000
36.31004 127.000
36.32999 145.000
36.34994 139.000
36.36988 125.000
36.38983 143.000
36.40978 145.000
36.42972 144.000
36.44967 116.000
36.46962 118.000
36.48957 114.000
36.50951 139.000
36.52946 132.000
36.54941 132.000
36.56935 142.000
36.58930 132.000
36.60925 146.000
36.62919 150.000
36.64914 147.000
36.66909 159.000
36.68903 172.000
36.70898 174.000
36.72893 200.000
36.74888 205.000
36.76882 209.000
36.78877 183.000
36.80872 196.000
36.82866 193.000
36.84861 193.000
36.86856 186.000
36.88850 182.000
36.90845 160.000
36.92840 197.000
36.94835 166.000
36.96829 198.000
36.98824 191.000
37.00819 218.000
37.02813 214.000
37.04808 207.000
37.06803 197.000
37.08797 195.000
37.10792 205.000
37.12787 201.000
37.14781 226.000
37.16776 175.000
37.18771 197.000
37.20766 166.000
37.22760 176.000
37.24755 164.000
37.26750 134.000
37.28744 121.000
37.30739 138.000
37.32734 132.000
37.34728 126.000
37.36723 139.000
37.38718 143.000
37.40713 133.000
37.42707 128.000
37.44702 114.000
37.46697 123.000
37.48691 121.000
37.50686 128.000
37.52681 146.000
37.54675 140.000
37.56670 117.000
37.58665 122.000
37.60660 128.000
37.62654 112.000
37.64649 121.000
37.66644 104.000
37.68638 141.000
37.70633 124.000
37.72628 100.000
37.74622 111.000
37.76617 104.000
37.78612 104.000
37.80606 127.000
37.82601 114.000
37.84596 124.000
37.86591 109.000
37.88585 120.000
37.90580 98.000
37.92575 125.000
37.94569 115.000
37.96564 106.000
37.98559 135.000
38.00553 134.000
38.02548 108.000
38.04543 118.000
38.06538 120.000
38.08532 129.000
38.10527 111.000
38.12522 112.000
38.14516 105.000
38.16511 119.000
38.18506 98.000
38.20500 104.000
38.22495 124.000
38.24490 109.000
38.26484 107.000
38.28479 113.000
38.30474 142.000
38.32469 126.000
38.34463 113.000
38.36458 125.000
38.38453 105.000
38.40447 122.000
38.42442 129.000
38.44437 117.000
38.46431 133.000
38.48426 148.000
38.50421 126.000
38.52416 132.000
38.54410 151.000
38.56405 133.000
38.58400 161.000
38.60394 134.000
38.62389 160.000
38.64384 165.000
38.66378 163.000
38.68373 154.000
38.70368 149.000
38.72362 145.000
38.74357 137.000
38.76352 150.000
38.78347 160.000
38.80341 167.000
38.82336 140.000
38.84331 173.000
38.86325 164.000
38.88320 151.000
38.90315 157.000
38.92309 174.000
38.94304 184.000
38.96299 164.000
38.98294 180.000
39.00288 210.000
39.02283 205.000
39.04278 206.000
39.06272 231.000
39.08267 271.000
39.10262 297.000
39.12256 306.000
39.14251 321.000
39.16246 366.000
39.18241 457.000
39.20235 523.000
39.22230 645.000
39.24225 797.000
39.26219 953.000
39.28214 1172.000
39.30209 1257.000
39.32203 1399.000
39.34198 1374.000
39.36193 1413.000
39.38187 1211.000
39.40182 1084.000
39.42177 965.000
39.44172 859.000
39.46166 764.000
39.48161 630.000
39.50156 492.000
39.52150 379.000
39.54145 302.000
39.56140 277.000
39.58134 254.000
39.60129 241.000
39.62124 211.000
39.64119 200.000
39.66113 190.000
39.68108 175.000
39.70103 158.000
39.72097 176.000
39.74092 169.000
39.76087 136.000
39.78081 158.000
39.80076 137.000
39.82071 150.000
39.84065 131.000
39.86060 123.000
39.88055 147.000
39.90050 110.000
39.92044 132.000
39.94039 106.000
39.96034 118.000
39.98028 149.000
40.00023 109.000
40.02018 128.000
40.04012 100.000
40.06007 108.000
40.08002 119.000
40.09997 104.000
40.11991 112.000
40.13986 115.000
40.15981 118.000
40.17975 91.000
40.19970 122.000
40.21965 130.000
40.23959 109.000
40.25954 117.000
40.27949 115.000
40.29943 121.000
40.31938 112.000
40.33933 116.000
40.35928 124.000
40.37922 109.000
40.39917 118.000
40.41912 84.000
40.43906 134.000
40.45901 100.000
40.47896 104.000
40.49890 121.000
40.51885 111.000
40.53880 104.000
40.55875 119.000
40.57869 108.000
40.59864 102.000
40.61859 84.000
40.63853 118.000
40.65848 120.000
40.67843 94.000
40.69837 102.000
40.71832 132.000
40.73827 111.000
40.75822 128.000
40.77816 111.000
40.79811 122.000
40.81806 109.000
40.83800 99.000
40.85795 116.000
40.87790 118.000
40.89784 106.000
40.91779 107.000
40.93774 97.000
40.95768 103.000
40.97763 120.000
40.99758 101.000
41.01753 109.000
41.03747 105.000
41.05742 96.000
41.07737 111.000
41.09731 117.000
41.11726 103.000
41.13721 115.000
41.15715 107.000
41.17710 91.000
41.19705 129.000
41.21700 103.000
41.23694 95.000
41.25689 91.000
41.27684 127.000
41.29678 93.000
41.31673 92.000
41.33668 100.000
41.35662 108.000
41.37657 92.000
41.39652 133.000
41.41646 122.000
41.43641 118.000
41.45636 91.000
41.47631 108.000
41.49625 109.000
41.51620 107.000
41.53615 96.000
41.55609 108.000
41.57604 109.000
41.59599 102.000
41.61593 112.000
41.63588 86.000
41.65583 94.000
41.67578 109.000
41.69572 108.000
41.71567 94.000
41.73562 116.000
41.75556 127.000
41.77551 99.000
41.79546 127.000
41.81540 102.000
41.83535 113.000
41.85530 105.000
41.87524 123.000
41.89519 119.000
41.91514 95.000
41.93509 124.000
41.95503 121.000
41.97498 127.000
41.99493 111.000
42.01487 106.000
42.03482 119.000
42.05477 105.000
42.07471 119.000
42.09466 106.000
42.11461 130.000
42.13456 111.000
42.15450 112.000
42.17445 104.000
42.19440 111.000
42.21434 84.000
42.23429 125.000
42.25424 119.000
42.27418 119.000
42.29413 125.000
42.31408 125.000
42.33403 116.000
42.35397 95.000
42.37392 111.000
42.39387 91.000
42.41381 135.000
42.43376 100.000
42.45371 101.000
42.47365 112.000
42.49360 112.000
42.51355 119.000
42.53349 101.000
42.55344 121.000
42.57339 131.000
42.59334 115.000
42.61328 145.000
42.63323 119.000
42.65318 125.000
42.67312 161.000
42.69307 132.000
42.71302 140.000
42.73296 119.000
42.75291 147.000
42.77286 143.000
42.79281 167.000
42.81275 173.000
42.83270 186.000
42.85265 193.000
42.87259 174.000
42.89254 200.000
42.91249 191.000
42.93243 228.000
42.95238 261.000
42.97233 249.000
42.99227 287.000
43.01222 286.000
43.03217 324.000
43.05212 305.000
43.07206 327.000
43.09201 341.000
43.11196 342.000
43.13190 326.000
43.15185 365.000
43.17180 384.000
43.19174 386.000
43.21169 389.000
43.23164 348.000
43.25159 419.000
43.27153 430.000
43.29148 482.000
43.31143 574.000
43.33137 598.000
43.35132 600.000
43.37127 577.000
43.39121 590.000
43.41116 548.000
43.43111 523.000
43.45105 484.000
43.47100 456.000
43.49095 381.000
43.51090 333.000
43.53084 279.000
43.55079 237.000
43.57074 203.000
43.59068 174.000
43.61063 159.000
43.63058 178.000
43.65052 134.000
43.67047 162.000
43.69042 148.000
43.71037 171.000
43.73031 131.000
43.75026 118.000
43.77021 133.000
43.79015 114.000
43.81010 120.000
43.83005 128.000
43.84999 122.000
43.86994 129.000
43.88989 121.000
43.90984 128.000
43.92978 137.000
43.94973 105.000
43.96968 101.000
43.98962 120.000
44.00957 126.000
44.02952 123.000
44.04946 107.000
44.06941 113.000
44.08936 128.000
44.10930 111.000
44.12925 98.000
44.14920 124.000
44.16915 126.000
44.18909 113.000
44.20904 112.000
44.22899 114.000
44.24893 102.000
44.26888 108.000
44.28883 127.000
44.30877 104.000
44.32872 103.000
44.34867 109.000
44.36862 111.000
44.38856 109.000
44.40851 103.000
44.42846 104.000
44.44840 114.000
44.46835 113.000
44.48830 116.000
44.50824 113.000
44.52819 146.000
44.54814 100.000
44.56808 114.000
44.58803 109.000
44.60798 109.000
44.62793 107.000
44.64787 112.000
44.66782 100.000
44.68777 111.000
44.70771 104.000
44.72766 103.000
44.74761 108.000
44.76755 96.000
44.78750 83.000
44.80745 109.000
44.82740 98.000
44.84734 109.000
44.86729 118.000
44.88724 106.000
44.90718 107.000
44.92713 116.000
44.94708 88.000
44.96702 107.000
44.98697 110.000
45.00692 118.000
45.02686 118.000
45.04681 128.000
45.06676 121.000
45.08671 117.000
45.10665 121.000
45.12660 123.000
45.14655 120.000
45.16649 90.000
45.18644 106.000
45.20639 120.000
45.22633 109.000
45.24628 113.000
45.26623 114.000
45.28618 97.000
45.30612 100.000
45.32607 107.000
45.34602 114.000
45.36596 98.000
45.38591 117.000
45.40586 100.000
45.42580 114.000
45.44575 115.000
45.46570 106.000
45.48565 102.000
45.50559 116.000
45.52554 106.000
45.54549 124.000
45.56543 110.000
45.58538 79.000
45.60533 102.000
45.62527 114.000
45.64522 99.000
45.66517 98.000
45.68511 127.000
45.70506 100.000
45.72501 97.000
45.74496 106.000
45.76490 84.000
45.78485 117.000
45.80480 111.000
45.82474 105.000
45.84469 81.000
45.86464 98.000
45.88458 85.000
45.90453 97.000
45.92448 92.000
45.94443 92.000
45.96437 108.000
45.98432 100.000
46.00427 105.000
46.02421 100.000
46.04416 109.000
46.06411 97.000
46.08405 102.000
46.10400 123.000
46.12395 113.000
46.14389 107.000
46.16384 124.000
46.18379 105.000
46.20374 109.000
46.22368 99.000
46.24363 138.000
46.26358 117.000
46.28352 112.000
46.30347 92.000
46.32342 108.000
46.34336 127.000
46.36331 116.000
46.38326 110.000
46.40321 132.000
46.42315 102.000
46.44310 104.000
46.46305 111.000
46.48299 109.000
46.50294 130.000
46.52289 103.000
46.54283 104.000
46.56278 128.000
46.58273 111.000
46.60267 118.000
46.62262 112.000
46.64257 110.000
46.66252 104.000
46.68246 110.000
46.70241 102.000
46.72236 86.000
46.74230 105.000
46.76225 111.000
46.78220 107.000
46.80214 108.000
46.82209 106.000
46.84204 110.000
46.86199 105.000
46.88193 118.000
46.90188 102.000
46.92183 108.000
46.94177 104.000
46.96172 103.000
46.98167 105.000
47.00161 96.000
47.02156 105.000
47.04151 123.000
47.06146 97.000
47.08140 107.000
47.10135 110.000
47.12130 102.000
47.14124 118.000
47.16119 108.000
47.18114 118.000
47.20108 87.000
47.22103 115.000
47.24098 122.000
47.26092 82.000
47.28087 117.000
47.30082 111.000
47.32077 91.000
47.34071 98.000
47.36066 111.000
47.38061 105.000
47.40055 134.000
47.42050 104.000
47.44045 109.000
47.46039 108.000
47.48034 127.000
47.50029 106.000
47.52024 127.000
47.54018 94.000
47.56013 117.000
47.58008 125.000
47.60002 110.000
47.61997 108.000
47.63992 124.000
47.65986 118.000
47.67981 107.000
47.69976 114.000
47.71970 132.000
47.73965 120.000
47.75960 136.000
47.77955 135.000
47.79949 112.000
47.81944 119.000
47.83939 135.000
47.85933 132.000
47.87928 112.000
47.89923 124.000
47.91917 145.000
47.93912 140.000
47.95907 148.000
47.97902 135.000
47.99896 154.000
48.01891 155.000
48.03886 143.000
48.05880 131.000
48.07875 130.000
48.09870 141.000
48.11864 163.000
48.13859 164.000
48.15854 155.000
48.17848 192.000
48.19843 206.000
48.21838 211.000
48.23833 235.000
48.25827 278.000
48.27822 272.000
48.29817 267.000
48.31811 298.000
48.33806 361.000
48.35801 378.000
48.37795 441.000
48.39790 502.000
48.41785 510.000
48.43780 607.000
48.45774 789.000
48.47769 901.000
48.49764 1026.000
48.51758 1121.000
48.53753 1196.000
48.55748 1262.000
48.57742 1172.000
48.59737 1090.000
48.61732 1006.000
48.63726 929.000
48.65721 912.000
48.67716 785.000
48.69711 716.000
48.71705 679.000
48.73700 570.000
48.75695 468.000
48.77689 407.000
48.79684 372.000
48.81679 294.000
48.83673 264.000
48.85668 274.000
48.87663 222.000
48.89658 212.000
48.91652 205.000
48.93647 198.000
48.95642 187.000
48.97636 197.000
48.99631 168.000
49.01626 179.000
49.03620 168.000
49.05615 150.000
49.07610 203.000
49.09605 175.000
49.11599 136.000
49.13594 125.000
49.15589 137.000
49.17583 131.000
49.19578 133.000
49.21573 153.000
49.23567 130.000
49.25562 137.000
49.27557 126.000
49.29551 115.000
49.31546 129.000
49.33541 131.000
49.35536 139.000
49.37530 109.000
49.39525 124.000
49.41520 113.000
49.43514 98.000
49.45509 121.000
49.47504 114.000
49.49498 116.000
49.51493 119.000
49.53488 105.000
49.55483 91.000
49.57477 110.000
49.59472 110.000
49.61467 123.000
49.63461 117.000
49.65456 91.000
49.67451 102.000
49.69445 107.000
49.71440 123.000
49.73435 113.000
49.75429 109.000
49.77424 92.000
49.79419 123.000
49.81414 96.000
49.83408 121.000
49.85403 116.000
49.87398 105.000
49.89392 104.000
49.91387 111.000
49.93382 111.000
49.95376 114.000
49.97371 111.000
49.99366 119.000
50.01361 100.000
50.03355 111.000
50.05350 98.000
50.07345 113.000
50.09339 101.000
50.11334 95.000
50.13329 93.000
50.15323 117.000
50.17318 113.000
50.19313 106.000
50.21307 100.000
50.23302 110.000
50.25297 120.000
50.27292 89.000
50.29286 112.000
50.31281 108.000
50.33276 96.000
50.35270 112.000
50.37265 103.000
50.39260 101.000
50.41254 102.000
50.43249 80.000
50.45244 125.000
50.47239 102.000
50.49233 96.000
50.51228 109.000
50.53223 115.000
50.55217 102.000
50.57212 99.000
50.59207 93.000
50.61201 84.000
50.63196 82.000
50.65191 101.000
50.67186 114.000
50.69180 98.000
50.71175 107.000
50.73170 108.000
50.75164 94.000
50.77159 105.000
50.79154 94.000
50.81148 93.000
50.83143 101.000
50.85138 113.000
50.87132 88.000
50.89127 96.000
50.91122 99.000
50.93117 101.000
50.95111 113.000
50.97106 111.000
50.99101 98.000
51.01095 98.000
51.03090 104.000
51.05085 81.000
51.07079 69.000
51.09074 90.000
51.11069 95.000
51.13064 97.000
51.15058 105.000
51.17053 94.000
51.19048 84.000
51.21042 102.000
51.23037 99.000
51.25032 102.000
51.27026 104.000
51.29021 89.000
51.31016 88.000
51.33010 111.000
51.35005 88.000
51.37000 104.000
51.38995 105.000
51.40989 96.000
51.42984 85.000
51.44979 102.000
51.46973 110.000
51.48968 99.000
51.50963 97.000
51.52957 97.000
51.54952 84.000
51.56947 86.000
51.58942 98.000
51.60936 96.000
51.62931 105.000
51.64926 93.000
51.66920 94.000
51.68915 103.000
51.70910 94.000
51.72904 88.000
51.74899 95.000
51.76894 104.000
51.78888 87.000
51.80883 92.000
51.82878 87.000
51.84873 89.000
51.86867 97.000
51.88862 104.000
51.90857 96.000
51.92851 94.000
51.94846 96.000
51.96841 92.000
51.98835 87.000
52.00830 113.000
52.02825 108.000
52.04820 102.000
52.06814 105.000
52.08809 108.000
52.10804 100.000
52.12798 96.000
52.14793 93.000
52.16788 91.000
52.18782 98.000
52.20777 107.000
52.22772 101.000
52.24767 86.000
52.26761 94.000
52.28756 107.000
52.30751 100.000
52.32745 103.000
52.34740 91.000
52.36735 97.000
52.38729 98.000
52.40724 116.000
52.42719 109.000
52.44713 94.000
52.46708 97.000
52.48703 104.000
52.50698 87.000
52.52692 94.000
52.54687 107.000
52.56682 94.000
52.58676 105.000
52.60671 86.000
52.62666 104.000
52.64660 95.000
52.66655 96.000
52.68650 101.000
52.70645 101.000
52.72639 91.000
52.74634 95.000
52.76629 89.000
52.78623 114.000
52.80618 121.000
52.82613 100.000
52.84607 101.000
52.86602 97.000
52.88597 99.000
52.90591 95.000
52.92586 80.000
52.94581 91.000
52.96576 102.000
52.98570 97.000
53.00565 113.000
53.02560 131.000
53.04554 95.000
53.06549 101.000
53.08544 112.000
53.10538 113.000
53.12533 95.000
53.14528 105.000
53.16523 107.000
53.18517 107.000
53.20512 106.000
53.22507 137.000
53.24501 136.000
53.26496 150.000
53.28491 144.000
53.30485 116.000
53.32480 158.000
53.34475 151.000
53.36469 132.000
53.38464 136.000
53.40459 139.000
53.42454 149.000
53.44448 148.000
53.46443 158.000
53.48438 172.000
53.50432 134.000
53.52427 156.000
53.54422 138.000
53.56416 147.000
53.58411 156.000
53.60406 143.000
53.62401 122.000
53.64395 153.000
53.66390 138.000
53.68385 118.000
53.70379 115.000
53.72374 118.000
53.74369 126.000
53.76363 105.000
53.78358 124.000
53.80353 111.000
53.82348 104.000
53.84342 94.000
53.86337 103.000
53.88332 107.000
53.90326 120.000
53.92321 93.000
53.94316 104.000
53.96310 101.000
53.98305 98.000
54.00300 85.000
54.02294 92.000
54.04289 100.000
54.06284 100.000
54.08279 102.000
54.10273 98.000
54.12268 132.000
54.14263 103.000
54.16257 103.000
54.18252 96.000
54.20247 86.000
54.22241 94.000
54.24236 100.000
54.26231 82.000
54.28226 99.000
54.30220 108.000
54.32215 114.000
54.34210 118.000
54.36204 103.000
54.38199 82.000
54.40194 94.000
54.42188 119.000
54.44183 99.000
54.46178 107.000
54.48172 97.000
54.50167 126.000
54.52162 99.000
54.54157 110.000
54.56151 115.000
54.58146 99.000
54.60141 104.000
54.62135 104.000
54.64130 101.000
54.66125 74.000
54.68119 92.000
54.70114 86.000
54.72109 96.000
54.74104 91.000
54.76098 102.000
54.78093 89.000
54.80088 100.000
54.82082 100.000
54.84077 121.000
54.86072 100.000
54.88066 110.000
54.90061 98.000
54.92056 85.000
54.94050 113.000
54.96045 88.000
54.98040 94.000
55.00035 99.000
55.02029 96.000
55.04024 116.000
55.06019 102.000
55.08013 94.000
55.10008 89.000
55.12003 116.000
55.13997 95.000
55.15992 93.000
55.17987 94.000
55.19982 94.000
55.21976 95.000
55.23971 117.000
55.25966 99.000
55.27960 103.000
55.29955 98.000
55.31950 94.000
55.33944 101.000
55.35939 87.000
55.37934 103.000
55.39929 96.000
55.41923 103.000
55.43918 77.000
55.45913 97.000
55.47907 112.000
55.49902 101.000
55.51897 85.000
55.53891 103.000
55.55886 89.000
55.57881 98.000
55.59875 95.000
55.61870 101.000
55.63865 94.000
55.65860 116.000
55.67854 108.000
55.69849 100.000
55.71844 104.000
55.73838 110.000
55.75833 93.000
55.77828 104.000
55.79822 88.000
55.81817 110.000
55.83812 98.000
55.85807 97.000
55.87801 79.000
55.89796 99.000
55.91791 102.000
55.93785 107.000
55.95780 106.000
55.97775 108.000
55.99769 101.000
56.01764 113.000
56.03759 86.000
56.05753 113.000
56.07748 112.000
56.09743 100.000
56.11738 112.000
56.13732 89.000
56.15727 102.000
56.17722 121.000
56.19716 99.000
56.21711 113.000
56.23706 112.000
56.25700 116.000
56.27695 122.000
56.29690 118.000
56.31685 114.000
56.33679 119.000
56.35674 114.000
56.37669 117.000
56.39663 119.000
56.41658 124.000
56.43653 119.000
56.45647 119.000
56.47642 134.000
56.49637 128.000
56.51631 124.000
56.53626 115.000
56.55621 155.000
56.57616 144.000
56.59610 174.000
56.61605 135.000
56.63600 167.000
56.65594 171.000
56.67589 187.000
56.69584 151.000
56.71578 170.000
56.73573 182.000
56.75568 217.000
56.77563 208.000
56.79557 250.000
56.81552 222.000
56.83547 243.000
56.85541 229.000
56.87536 238.000
56.89531 252.000
56.91525 243.000
56.93520 270.000
56.95515 278.000
56.97510 244.000
56.99504 282.000
57.01499 265.000
57.03494 257.000
57.05488 270.000
57.07483 244.000
57.09478 272.000
57.11472 297.000
57.13467 261.000
57.15462 244.000
57.17456 219.000
57.19451 211.000
57.21446 210.000
57.23441 194.000
57.25435 189.000
57.27430 187.000
57.29425 192.000
57.31419 146.000
57.33414 168.000
57.35409 147.000
57.37403 164.000
57.39398 151.000
57.41393 132.000
57.43388 133.000
57.45382 119.000
57.47377 128.000
57.49372 126.000
57.51366 127.000
57.53361 118.000
57.55356 126.000
57.57350 129.000
57.59345 115.000
57.61340 117.000
57.63334 112.000
57.65329 111.000
57.67324 116.000
57.69319 115.000
57.71313 121.000
57.73308 95.000
57.75303 113.000
57.77297 117.000
57.79292 100.000
57.81287 108.000
57.83281 95.000
57.85276 111.000
57.87271 105.000
57.89266 102.000
57.91260 110.000
57.93255 101.000
57.95250 132.000
57.97244 90.000
57.99239 102.000
58.01234 87.000
58.03228 105.000
58.05223 119.000
58.07218 100.000
58.09212 109.000
58.11207 97.000
58.13202 110.000
58.15197 115.000
58.17191 103.000
58.19186 113.000
58.21181 104.000
58.23175 100.000
58.25170 122.000
58.27165 110.000
58.29159 103.000
58.31154 90.000
58.33149 96.000
58.35144 96.000
58.37138 101.000
58.39133 101.000
58.41128 99.000
58.43122 94.000
58.45117 104.000
58.47112 108.000
58.49106 91.000
58.51101 76.000
58.53096 97.000
58.55090 93.000
58.57085 101.000
58.59080 114.000
58.61075 118.000
58.63069 112.000
58.65064 88.000
58.67059 95.000
58.69053 112.000
58.71048 106.000
58.73043 90.000
58.75037 106.000
58.77032 90.000
58.79027 103.000
58.81022 108.000
58.83016 101.000
58.85011 111.000
58.87006 100.000
58.89000 110.000
58.90995 124.000
58.92990 117.000
58.94984 97.000
58.96979 88.000
58.98974 101.000
59.00969 122.000
59.02963 101.000
59.04958 93.000
59.06953 84.000
59.08947 103.000
59.10942 91.000
59.12937 74.000
59.14931 89.000
59.16926 120.000
59.18921 109.000
59.20915 100.000
59.22910 95.000
59.24905 102.000
59.26900 81.000
59.28894 117.000
59.30889 101.000
59.32884 108.000
59.34878 86.000
59.36873 101.000
59.38868 92.000
59.40862 101.000
59.42857 100.000
59.44852 104.000
59.46847 122.000
59.48841 98.000
59.50836 94.000
59.52831 101.000
59.54825 106.000
59.56820 102.000
59.58815 100.000
59.60809 95.000
59.62804 108.000
59.64799 84.000
59.66793 110.000
59.68788 90.000
59.70783 97.000
59.72778 83.000
59.74772 118.000
59.76767 108.000
59.78762 80.000
59.80756 108.000
59.82751 104.000
59.84746 108.000
59.86740 111.000
59.88735 102.000
59.90730 87.000
59.92725 79.000
59.94719 108.000
59.96714 116.000
59.98709 113.000
60.00703 85.000
60.02698 112.000
60.04693 108.000
60.06687 99.000
60.08682 108.000
60.10677 104.000
60.12671 109.000
60.14666 108.000
60.16661 100.000
60.18656 98.000
60.20650 104.000
60.22645 102.000
60.24640 103.000
60.26634 101.000
60.28629 103.000
60.30624 119.000
60.32618 120.000
60.34613 93.000
60.36608 104.000
60.38603 98.000
60.40597 101.000
60.42592 106.000
60.44587 88.000
60.46581 126.000
60.48576 100.000
60.50571 101.000
60.52565 123.000
60.54560 79.000
60.56555 90.000
60.58550 104.000
60.60544 115.000
60.62539 104.000
60.64534 86.000
60.66528 115.000
60.68523 97.000
60.70518 100.000
60.72512 116.000
60.74507 114.000
60.76502 115.000
60.78496 114.000
60.80491 118.000
60.82486 124.000
60.84481 100.000
60.86475 104.000
60.88470 124.000
60.90465 122.000
60.92459 102.000
60.94454 117.000
60.96449 104.000
60.98443 127.000
61.00438 110.000
61.02433 126.000
61.04428 115.000
61.06422 132.000
61.08417 107.000
61.10412 145.000
61.12406 145.000
61.14401 121.000
61.16396 124.000
61.18390 144.000
61.20385 161.000
61.22380 169.000
61.24374 161.000
61.26369 160.000
61.28364 187.000
61.30359 171.000
61.32353 185.000
61.34348 225.000
61.36343 219.000
61.38337 246.000
61.40332 251.000
61.42327 266.000
61.44321 323.000
61.46316 360.000
61.48311 399.000
61.50306 484.000
61.52300 478.000
61.54295 520.000
61.56290 562.000
61.58284 567.000
61.60279 527.000
61.62274 493.000
61.64268 455.000
61.66263 485.000
61.68258 449.000
61.70252 453.000
61.72247 409.000
61.74242 428.000
61.76237 402.000
61.78231 364.000
61.80226 333.000
61.82221 309.000
61.84215 267.000
61.86210 229.000
61.88205 202.000
61.90199 237.000
61.92194 208.000
61.94189 189.000
61.96184 191.000
61.98178 174.000
62.00173 194.000
62.02168 196.000
62.04162 182.000
62.06157 168.000
62.08152 180.000
62.10146 187.000
62.12141 170.000
62.14136 150.000
62.16131 183.000
62.18125 185.000
62.20120 164.000
62.22115 198.000
62.24109 189.000
62.26104 181.000
62.28099 200.000
62.30093 240.000
62.32088 213.000
62.34083 227.000
62.36077 239.000
62.38072 232.000
62.40067 250.000
62.42062 246.000
62.44056 260.000
62.46051 263.000
62.48046 303.000
62.50040 252.000
62.52035 311.000
62.54030 274.000
62.56024 324.000
62.58019 308.000
62.60014 316.000
62.62009 298.000
62.64003 327.000
62.65998 322.000
62.67993 303.000
62.69987 332.000
62.71982 304.000
62.73977 265.000
62.75971 275.000
62.77966 301.000
62.79961 264.000
62.81955 255.000
62.83950 240.000
62.85945 218.000
62.87940 230.000
62.89934 202.000
62.91929 212.000
62.93924 195.000
62.95918 178.000
62.97913 161.000
62.99908 184.000
63.01902 150.000
63.03897 145.000
63.05892 150.000
63.07887 145.000
63.09881 134.000
63.11876 129.000
63.13871 135.000
63.15865 126.000
63.17860 125.000
63.19855 128.000
63.21849 126.000
63.23844 130.000
63.25839 126.000
63.27833 135.000
63.29828 120.000
63.31823 114.000
63.33818 124.000
63.35812 121.000
63.37807 105.000
63.39802 115.000
63.41796 125.000
63.43791 128.000
63.45786 121.000
63.47780 118.000
63.49775 122.000
63.51770 110.000
63.53765 126.000
63.55759 119.000
63.57754 120.000
63.59749 97.000
63.61743 112.000
63.63738 110.000
63.65733 129.000
63.67727 110.000
63.69722 118.000
63.71717 111.000
63.73712 115.000
63.75706 108.000
63.77701 114.000
63.79696 122.000
63.81690 105.000
63.83685 119.000
63.85680 102.000
63.87674 109.000
63.89669 92.000
63.91664 125.000
63.93658 118.000
63.95653 136.000
63.97648 99.000
63.99643 115.000
64.01637 107.000
64.03632 123.000
64.05627 116.000
64.07621 110.000
64.09616 125.000
64.11611 127.000
64.13605 142.000
64.15600 160.000
64.17595 134.000
64.19590 145.000
64.21584 146.000
64.23579 145.000
64.25574 151.000
64.27568 161.000
64.29563 195.000
64.31558 182.000
64.33552 238.000
64.35547 244.000
64.37542 260.000
64.39536 301.000
64.41531 385.000
64.43526 430.000
64.45521 477.000
64.47515 490.000
64.49510 472.000
64.51505 448.000
64.53499 419.000
64.55494 353.000
64.57489 335.000
64.59483 322.000
64.61478 323.000
64.63473 320.000
64.65468 333.000
64.67462 299.000
64.69457 310.000
64.71452 267.000
64.73446 203.000
64.75441 182.000
64.77436 174.000
64.79430 172.000
64.81425 145.000
64.83420 145.000
64.85414 145.000
64.87409 143.000
64.89404 144.000
64.91399 125.000
64.93393 119.000
64.95388 110.000
64.97383 106.000
64.99377 130.000
65.01372 114.000
65.03367 129.000
65.05361 116.000
65.07356 108.000
65.09351 112.000
65.11346 105.000
65.13340 114.000
65.15335 108.000
65.17330 117.000
65.19324 114.000
65.21319 109.000
65.23314 120.000
65.25308 87.000
65.27303 109.000
65.29298 112.000
65.31293 98.000
65.33287 117.000
65.35282 97.000
65.37277 115.000
65.39271 116.000
65.41266 124.000
65.43261 100.000
65.45255 119.000
65.47250 105.000
65.49245 108.000
65.51239 92.000
65.53234 114.000
65.55229 117.000
65.57224 109.000
65.59218 118.000
65.61213 115.000
65.63208 125.000
65.65202 126.000
65.67197 114.000
65.69192 117.000
65.71186 121.000
65.73181 121.000
65.75176 101.000
65.77171 119.000
65.79165 128.000
65.81160 124.000
65.83155 122.000
65.85149 140.000
65.87144 119.000
65.89139 140.000
65.91133 125.000
65.93128 143.000
65.95123 153.000
65.97117 141.000
65.99112 198.000
66.01107 184.000
66.03102 185.000
66.05096 179.000
66.07091 224.000
66.09086 193.000
66.11080 213.000
66.13075 170.000
66.15070 169.000
66.17064 145.000
66.19059 165.000
66.21054 181.000
66.23049 177.000
66.25043 167.000
66.27038 181.000
66.29033 157.000
66.31027 149.000
66.33022 131.000
66.35017 135.000
66.37011 135.000
66.39006 141.000
66.41001 130.000
66.42995 140.000
66.44990 134.000
66.46985 107.000
66.48980 131.000
66.50974 136.000
66.52969 149.000
66.54964 115.000
66.56958 179.000
66.58953 146.000
66.60948 142.000
66.62942 157.000
66.64937 209.000
66.66932 207.000
66.68927 206.000
66.70921 221.000
66.72916 263.000
66.74911 308.000
66.76905 330.000
66.78900 367.000
66.80895 378.000
66.82889 355.000
66.84884 373.000
66.86879 340.000
66.88874 274.000
66.90868 258.000
66.92863 263.000
66.94858 292.000
66.96852 261.000
66.98847 285.000
67.00842 268.000
67.02836 193.000
67.04831 207.000
67.06826 209.000
67.08820 181.000
67.10815 175.000
67.12810 169.000
67.14805 140.000
67.16799 137.000
67.18794 129.000
67.20789 130.000
67.22783 122.000
67.24778 132.000
67.26773 107.000
67.28767 125.000
67.30762 103.000
67.32757 121.000
67.34752 105.000
67.36746 115.000
67.38741 115.000
67.40736 101.000
67.42730 103.000
67.44725 101.000
67.46720 107.000
67.48714 102.000
67.50709 119.000
67.52704 112.000
67.54698 108.000
67.56693 94.000
67.58688 109.000
67.60683 97.000
67.62677 75.000
67.64672 84.000
67.66667 109.000
67.68661 101.000
67.70656 105.000
67.72651 101.000
67.74645 102.000
67.76640 99.000
67.78635 104.000
67.80630 99.000
67.82624 104.000
67.84619 89.000
67.86614 90.000
67.88608 100.000
67.90603 99.000
67.92598 78.000
67.94592 114.000
67.96587 114.000
67.98582 96.000
68.00576 111.000
68.02571 111.000
68.04566 81.000
68.06561 115.000
68.08555 91.000
68.10550 119.000
68.12545 101.000
68.14539 107.000
68.16534 85.000
68.18529 90.000
68.20523 107.000
68.22518 106.000
68.24513 98.000
68.26508 100.000
68.28502 92.000
68.30497 113.000
68.32492 90.000
68.34486 101.000
68.36481 100.000
68.38476 108.000
68.40470 81.000
68.42465 103.000
68.44460 94.000
68.46455 92.000
68.48449 111.000
68.50444 86.000
68.52439 83.000
68.54433 76.000
68.56428 81.000
68.58423 99.000
68.60417 98.000
68.62412 98.000
68.64407 94.000
68.66401 89.000
68.68396 78.000
68.70391 84.000
68.72386 108.000
68.74380 79.000
68.76375 81.000
68.78370 85.000
68.80364 72.000
68.82359 111.000
68.84354 100.000
68.86348 88.000
68.88343 93.000
68.90338 110.000
68.92333 109.000
68.94327 93.000
68.96322 85.000
68.98317 97.000
69.00311 94.000
69.02306 101.000
69.04301 100.000
69.06295 79.000
69.08290 92.000
69.10285 106.000
69.12279 85.000
69.14274 119.000
69.16269 119.000
69.18264 103.000
69.20258 99.000
69.22253 96.000
69.24248 98.000
69.26242 97.000
69.28237 92.000
69.30232 80.000
69.32226 112.000
69.34221 108.000
69.36216 109.000
69.38211 100.000
69.40205 100.000
69.42200 122.000
69.44195 91.000
69.46189 94.000
69.48184 100.000
69.50179 87.000
69.52173 101.000
69.54168 107.000
69.56163 108.000
69.58157 85.000
69.60152 92.000
69.62147 103.000
69.64142 86.000
69.66136 101.000
69.68131 94.000
69.70126 94.000
69.72120 103.000
69.74115 107.000
69.76110 101.000
69.78104 95.000
69.80099 100.000
69.82094 97.000
69.84089 89.000
69.86083 81.000
69.88078 125.000
69.90073 98.000
69.92067 95.000
69.94062 94.000
69.96057 108.000
69.98051 91.000
70.00046 81.000
70.02041 92.000
70.04035 92.000
70.06030 90.000
70.08025 111.000
70.10020 90.000
70.12014 82.000
70.14009 98.000
70.16004 93.000
70.17998 76.000
70.19993 105.000
70.21988 87.000
70.23982 93.000
70.25977 87.000
70.27972 90.000
70.29967 98.000
70.31961 82.000
70.33956 112.000
70.35951 93.000
70.37945 101.000
70.39940 75.000
70.41935 85.000
70.43929 91.000
70.45924 82.000
70.47919 102.000
70.49914 74.000
70.51908 111.000
70.53903 90.000
70.55898 106.000
70.57892 106.000
70.59887 92.000
70.61882 114.000
70.63876 96.000
70.65871 94.000
70.67866 112.000
70.69860 106.000
70.71855 88.000
70.73850 104.000
70.75845 77.000
70.77839 109.000
70.79834 109.000
70.81829 97.000
70.83823 93.000
70.85818 103.000
70.87813 89.000
70.89807 101.000
70.91802 100.000
70.93797 94.000
70.95792 95.000
70.97786 99.000
70.99781 118.000
71.01776 114.000
71.03770 117.000
71.05765 105.000
71.07760 101.000
71.09754 107.000
71.11749 97.000
71.13744 98.000
71.15738 90.000
71.17733 111.000
71.19728 96.000
71.21723 94.000
71.23717 109.000
71.25712 103.000
71.27707 94.000
71.29701 103.000
71.31696 101.000
71.33691 116.000
71.35685 98.000
71.37680 100.000
71.39675 85.000
71.41670 102.000
71.43664 77.000
71.45659 93.000
71.47654 91.000
71.49648 119.000
71.51643 85.000
71.53638 99.000
71.55632 106.000
71.57627 84.000
71.59622 116.000
71.61616 82.000
71.63611 91.000
71.65606 119.000
71.67601 91.000
71.69595 94.000
71.71590 109.000
71.73585 90.000
71.75579 101.000
71.77574 96.000
71.79569 90.000
71.81563 110.000
71.83558 93.000
71.85553 102.000
71.87548 89.000
71.89542 99.000
71.91537 116.000
71.93532 110.000
71.95526 82.000
71.97521 87.000
71.99516 104.000
72.01510 91.000
72.03505 88.000
72.05500 86.000
72.07495 82.000
72.09489 103.000
72.11484 98.000
72.13479 98.000
72.15473 97.000
72.17468 114.000
72.19463 81.000
72.21457 98.000
72.23452 85.000
72.25447 101.000
72.27441 93.000
72.29436 119.000
72.31431 104.000
72.33426 106.000
72.35420 95.000
72.37415 86.000
72.39410 91.000
72.41404 96.000
72.43399 107.000
72.45394 81.000
72.47388 87.000
72.49383 106.000
72.51378 97.000
72.53373 85.000
72.55367 103.000
72.57362 85.000
72.59357 101.000
72.61351 103.000
72.63346 104.000
72.65341 80.000
72.67335 91.000
72.69330 101.000
72.71325 95.000
72.73319 84.000
72.75314 93.000
72.77309 93.000
72.79304 81.000
72.81298 93.000
72.83293 86.000
72.85288 101.000
72.87282 99.000
72.89277 93.000
72.91272 113.000
72.93266 98.000
72.95261 92.000
72.97256 116.000
72.99251 100.000
73.01245 104.000
73.03240 108.000
73.05235 107.000
73.07229 116.000
73.09224 98.000
73.11219 110.000
73.13213 106.000
73.15208 111.000
73.17203 101.000
73.19197 102.000
73.21192 103.000
73.23187 86.000
73.25182 120.000
73.27176 118.000
73.29171 115.000
73.31166 110.000
73.33160 100.000
73.35155 113.000
73.37150 134.000
73.39144 126.000
73.41139 128.000
73.43134 132.000
73.45129 143.000
73.47123 145.000
73.49118 164.000
73.51113 165.000
73.53107 166.000
73.55102 178.000
73.57097 206.000
73.59091 184.000
73.61086 190.000
73.63081 242.000
73.65076 210.000
73.67070 185.000
73.69065 187.000
73.71060 172.000
73.73054 198.000
73.75049 171.000
73.77044 181.000
73.79038 185.000
73.81033 174.000
73.83028 168.000
73.85022 174.000
73.87017 187.000
73.89012 161.000
73.91007 165.000
73.93001 131.000
73.94996 137.000
73.96991 140.000
73.98985 138.000
74.00980 144.000
74.02975 143.000
74.04969 132.000
74.06964 171.000
74.08959 128.000
74.10954 150.000
74.12948 124.000
74.14943 119.000
74.16938 153.000
74.18932 98.000
74.20927 145.000
74.22922 124.000
74.24916 144.000
74.26911 127.000
74.28906 132.000
74.30900 129.000
74.32895 133.000
74.34890 114.000
74.36885 119.000
74.38879 141.000
74.40874 119.000
74.42869 121.000
74.44863 110.000
74.46858 127.000
74.48853 116.000
74.50847 116.000
74.52842 102.000
74.54837 117.000
74.56832 106.000
74.58826 97.000
74.60821 127.000
74.62816 107.000
74.64810 106.000
74.66805 94.000
74.68800 117.000
74.70794 108.000
74.72789 101.000
74.74784 111.000
74.76778 117.000
74.78773 108.000
74.80768 109.000
74.82763 99.000
74.84757 122.000
74.86752 107.000
74.88747 120.000
74.90741 89.000
74.92736 121.000
74.94731 112.000
74.96725 133.000
74.98720 124.000
75.00715 119.000
75.02710 119.000
75.04704 107.000
75.06699 125.000
75.08694 87.000
75.10688 109.000
75.12683 141.000
75.14678 129.000
75.16672 128.000
75.18667 121.000
75.20662 128.000
75.22657 119.000
75.24651 110.000
75.26646 101.000
75.28641 112.000
75.30635 106.000
75.32630 100.000
75.34625 100.000
75.36619 104.000
75.38614 119.000
75.40609 95.000
75.42603 125.000
75.44598 120.000
75.46593 111.000
75.48588 102.000
75.50582 99.000
75.52577 119.000
75.54572 104.000
75.56566 81.000
75.58561 88.000
75.60556 111.000
75.62550 117.000
75.64545 104.000
75.66540 94.000
75.68535 88.000
75.70529 104.000
75.72524 98.000
75.74519 100.000
75.76513 103.000
75.78508 90.000
75.80503 110.000
75.82497 116.000
75.84492 91.000
75.86487 104.000
75.88481 101.000
75.90476 95.000
75.92471 117.000
75.94466 115.000
75.96460 114.000
75.98455 124.000
76.00450 125.000
76.02444 145.000
76.04439 127.000
76.06434 140.000
76.08428 151.000
76.10423 134.000
76.12418 142.000
76.14413 133.000
76.16407 120.000
76.18402 107.000
76.20397 146.000
76.22391 108.000
76.24386 103.000
76.26381 118.000
76.28375 116.000
76.30370 117.000
76.32365 113.000
76.34359 113.000
76.36354 117.000
76.38349 107.000
76.40344 107.000
76.42338 87.000
76.44333 111.000
76.46328 97.000
76.48322 92.000
76.50317 112.000
76.52312 122.000
76.54306 100.000
76.56301 98.000
76.58296 127.000
76.60291 89.000
76.62285 103.000
76.64280 95.000
76.66275 75.000
76.68269 100.000
76.70264 102.000
76.72259 101.000
76.74253 101.000
76.76248 102.000
76.78243 99.000
76.80238 99.000
76.82232 98.000
76.84227 113.000
76.86222 98.000
76.88216 123.000
76.90211 107.000
76.92206 90.000
76.94200 98.000
76.96195 96.000
76.98190 86.000
77.00184 113.000
77.02179 99.000
77.04174 101.000
77.06169 109.000
77.08163 115.000
77.10158 86.000
77.12153 118.000
77.14147 106.000
77.16142 105.000
77.18137 105.000
77.20131 114.000
77.22126 112.000
77.24121 99.000
77.26116 122.000
77.28110 121.000
77.30105 128.000
77.32100 143.000
77.34094 127.000
77.36089 161.000
77.38084 142.000
77.40078 167.000
77.42073 177.000
77.44068 171.000
77.46062 189.000
77.48057 187.000
77.50052 231.000
77.52047 205.000
77.54041 213.000
77.56036 225.000
77.58031 202.000
77.60025 238.000
77.62020 203.000
77.64015 200.000
77.66009 202.000
77.68004 192.000
77.69999 184.000
77.71994 180.000
77.73988 180.000
77.75983 197.000
77.77978 174.000
77.79972 175.000
77.81967 170.000
77.83962 184.000
77.85956 170.000
77.87951 130.000
77.89946 164.000
77.91940 123.000
77.93935 131.000
77.95930 165.000
77.97925 139.000
77.99919 150.000
78.01914 140.000
78.03909 137.000
78.05903 144.000
78.07898 155.000
78.09893 143.000
78.11887 135.000
78.13882 148.000
78.15877 186.000
78.17872 165.000
78.19866 164.000
78.21861 184.000
78.23856 197.000
78.25850 218.000
78.27845 183.000
78.29840 172.000
78.31834 188.000
78.33829 180.000
78.35824 173.000
78.37819 157.000
78.39813 154.000
78.41808 163.000
78.43803 155.000
78.45797 157.000
78.47792 153.000
78.49787 165.000
78.51781 136.000
78.53776 159.000
78.55771 171.000
78.57765 142.000
78.59760 129.000
78.61755 110.000
78.63750 110.000
78.65744 120.000
78.67739 115.000
78.69734 121.000
78.71728 100.000
78.73723 124.000
78.75718 118.000
78.77712 105.000
78.79707 125.000
78.81702 108.000
78.83697 106.000
78.85691 123.000
78.87686 114.000
78.89681 124.000
78.91675 118.000
78.93670 122.000
78.95665 97.000
78.97659 124.000
78.99654 105.000
79.01649 95.000
79.03643 106.000
79.05638 114.000
79.07633 104.000
79.09628 99.000
79.11622 93.000
79.13617 105.000
79.15612 116.000
79.17606 100.000
79.19601 109.000
79.21596 113.000
79.23590 96.000
79.25585 99.000
79.27580 99.000
79.29575 97.000
79.31569 109.000
79.33564 99.000
79.35559 91.000
79.37553 92.000
79.39548 92.000
79.41543 89.000
79.43537 80.000
79.45532 106.000
79.47527 87.000
79.49521 90.000
79.51516 107.000
79.53511 110.000
79.55506 100.000
79.57500 103.000
79.59495 102.000
79.61490 95.000
79.63484 87.000
79.65479 95.000
79.67474 94.000
79.69468 100.000
79.71463 97.000
79.73458 77.000
79.75453 95.000
79.77447 99.000
79.79442 107.000
79.81437 111.000
79.83431 71.000
79.85426 93.000
79.87421 90.000
79.89415 87.000
79.91410 89.000
79.93405 98.000
79.95399 91.000
79.97394 106.000
79.99389 90.000
80.01384 80.000
80.03378 66.000
80.05373 101.000
80.07368 96.000
80.09362 91.000
80.11357 116.000
80.13352 83.000
80.15346 103.000
80.17341 86.000
80.19336 92.000
80.21331 83.000
80.23325 91.000
80.25320 97.000
80.27315 97.000
80.29309 93.000
80.31304 105.000
80.33299 98.000
80.35293 100.000
80.37288 98.000
80.39283 115.000
80.41278 88.000
80.43272 90.000
80.45267 84.000
80.47262 92.000
80.49256 98.000
80.51251 97.000
80.53246 101.000
80.55240 102.000
80.57235 97.000
80.59230 95.000
80.61224 83.000
80.63219 95.000
80.65214 95.000
80.67209 79.000
80.69203 94.000
80.71198 77.000
80.73193 98.000
80.75187 88.000
80.77182 113.000
80.79177 116.000
80.81171 97.000
80.83166 101.000
80.85161 100.000
80.87156 91.000
80.89150 91.000
80.91145 93.000
80.93140 102.000
80.95134 112.000
80.97129 117.000
80.99124 100.000
81.01118 111.000
81.03113 99.000
81.05108 102.000
81.07102 95.000
81.09097 100.000
81.11092 82.000
81.13087 106.000
81.15081 117.000
81.17076 109.000
81.19071 106.000
81.21065 103.000
81.23060 91.000
81.25055 85.000
81.27049 102.000
81.29044 98.000
81.31039 109.000
81.33034 108.000
81.35028 122.000
81.37023 101.000
81.39018 91.000
81.41012 99.000
81.43007 89.000
81.45002 78.000
81.46996 89.000
81.48991 85.000
81.50986 95.000
81.52980 94.000
81.54975 82.000
81.56970 92.000
81.58965 104.000
81.60959 93.000
81.62954 93.000
81.64949 98.000
81.66943 110.000
81.68938 92.000
81.70933 96.000
81.72927 94.000
81.74922 95.000
81.76917 74.000
81.78912 94.000
81.80906 94.000
81.82901 92.000
81.84896 99.000
81.86890 91.000
81.88885 89.000
81.90880 100.000
81.92874 120.000
81.94869 78.000
81.96864 99.000
81.98859 85.000
82.00853 85.000
82.02848 97.000
82.04843 111.000
82.06837 117.000
82.08832 101.000
82.10827 95.000
82.12821 97.000
82.14816 103.000
82.16811 80.000
82.18805 103.000
82.20800 87.000
82.22795 90.000
82.24790 87.000
82.26784 101.000
82.28779 99.000
82.30774 89.000
82.32768 102.000
82.34763 91.000
82.36758 83.000
82.38752 91.000
82.40747 86.000
82.42742 85.000
82.44737 91.000
82.46731 107.000
82.48726 80.000
82.50721 103.000
82.52715 82.000
82.54710 110.000
82.56705 102.000
82.58699 95.000
82.60694 116.000
82.62689 90.000
82.64683 95.000
82.66678 107.000
82.68673 107.000
82.70668 87.000
82.72662 101.000
82.74657 97.000
82.76652 93.000
82.78646 104.000
82.80641 82.000
82.82636 74.000
82.84630 76.000
82.86625 87.000
82.88620 100.000
82.90615 91.000
82.92609 76.000
82.94604 97.000
82.96599 106.000
82.98593 94.000
83.00588 82.000
83.02583 89.000
83.04577 80.000
83.06572 96.000
83.08567 95.000
83.10561 101.000
83.12556 82.000
83.14551 93.000
83.16546 90.000
83.18540 105.000
83.20535 86.000
83.22530 96.000
83.24524 80.000
83.26519 88.000
83.28514 93.000
83.30508 105.000
83.32503 91.000
83.34498 89.000
83.36493 107.000
83.38487 116.000
83.40482 118.000
83.42477 84.000
83.44471 80.000
83.46466 88.000
83.48461 79.000
83.50455 83.000
83.52450 97.000
83.54445 94.000
83.56440 92.000
83.58434 94.000
83.60429 87.000
83.62424 92.000
83.64418 90.000
83.66413 92.000
83.68408 95.000
83.70402 96.000
83.72397 102.000
83.74392 96.000
83.76386 89.000
83.78381 95.000
83.80376 94.000
83.82371 95.000
83.84365 89.000
83.86360 110.000
83.88355 97.000
83.90349 101.000
83.92344 101.000
83.94339 100.000
83.96333 79.000
83.98328 104.000
84.00323 87.000
84.02318 117.000
84.04312 96.000
84.06307 94.000
84.08302 98.000
84.10296 109.000
84.12291 92.000
84.14286 110.000
84.16280 85.000
84.18275 89.000
84.20270 102.000
84.22264 101.000
84.24259 113.000
84.26254 115.000
84.28249 132.000
84.30243 118.000
84.32238 125.000
84.34233 125.000
84.36227 104.000
84.38222 118.000
84.40217 101.000
84.42211 118.000
84.44206 119.000
84.46201 104.000
84.48196 152.000
84.50190 149.000
84.52185 134.000
84.54180 144.000
84.56174 134.000
84.58169 129.000
84.60164 174.000
84.62158 168.000
84.64153 176.000
84.66148 174.000
84.68142 192.000
84.70137 179.000
84.72132 167.000
84.74127 180.000
84.76121 182.000
84.78116 171.000
84.80111 172.000
84.82105 169.000
84.84100 182.000
84.86095 176.000
84.88089 183.000
84.90084 136.000
84.92079 142.000
84.94074 138.000
84.96068 144.000
84.98063 145.000
85.00058 141.000
85.02052 153.000
85.04047 124.000
85.06042 146.000
85.08036 114.000
85.10031 131.000
85.12026 127.000
85.14021 139.000
85.16015 112.000
85.18010 127.000
85.20005 95.000
85.21999 100.000
85.23994 122.000
85.25989 117.000
85.27983 91.000
85.29978 102.000
85.31973 91.000
85.33967 121.000
85.35962 95.000
85.37957 97.000
85.39952 93.000
85.41946 93.000
85.43941 97.000
85.45936 98.000
85.47930 112.000
85.49925 95.000
85.51920 93.000
85.53914 108.000
85.55909 103.000
85.57904 120.000
85.59899 95.000
85.61893 94.000
85.63888 99.000
85.65883 119.000
85.67877 79.000
85.69872 103.000
85.71867 92.000
85.73861 117.000
85.75856 108.000
85.77851 100.000
85.79845 116.000
85.81840 102.000
85.83835 110.000
85.85830 123.000
85.87824 102.000
85.89819 105.000
85.91814 141.000
85.93808 135.000
85.95803 119.000
85.97798 112.000
85.99792 126.000
86.01787 110.000
86.03782 100.000
86.05777 95.000
86.07771 116.000
86.09766 100.000
86.11761 104.000
86.13755 100.000
86.15750 127.000
86.17745 107.000
86.19739 110.000
86.21734 111.000
86.23729 117.000
86.25723 111.000
86.27718 92.000
86.29713 97.000
86.31708 114.000
86.33702 115.000
86.35697 98.000
86.37692 111.000
86.39686 112.000
86.41681 97.000
86.43676 107.000
86.45670 109.000
86.47665 96.000
86.49660 117.000
86.51655 94.000
86.53649 97.000
86.55644 124.000
86.57639 96.000
86.59633 95.000
86.61628 105.000
86.63623 98.000
86.65617 109.000
86.67612 106.000
86.69607 100.000
86.71602 123.000
86.73596 95.000
86.75591 114.000
86.77586 115.000
86.79580 133.000
86.81575 117.000
86.83570 108.000
86.85564 129.000
86.87559 127.000
86.89554 116.000
86.91548 111.000
86.93543 108.000
86.95538 113.000
86.97533 101.000
86.99527 108.000
87.01522 102.000
87.03517 122.000
87.05511 95.000
87.07506 97.000
87.09501 114.000
87.11495 108.000
87.13490 100.000
87.15485 97.000
87.17480 100.000
87.19474 102.000
87.21469 119.000
87.23464 93.000
87.25458 100.000
87.27453 105.000
87.29448 89.000
87.31442 108.000
87.33437 95.000
87.35432 87.000
87.37426 117.000
87.39421 99.000
87.41416 85.000
87.43411 133.000
87.45405 85.000
87.47400 94.000
87.49395 92.000
87.51389 104.000
87.53384 94.000
87.55379 93.000
87.57373 95.000
87.59368 96.000
87.61363 87.000
87.63358 106.000
87.65352 92.000
87.67347 98.000
87.69342 91.000
87.71336 99.000
87.73331 74.000
87.75326 96.000
87.77320 90.000
87.79315 114.000
87.81310 105.000
87.83304 90.000
87.85299 99.000
87.87294 94.000
87.89289 100.000
87.91283 106.000
87.93278 88.000
87.95273 91.000
87.97267 115.000
87.99262 94.000
88.01257 118.000
88.03251 94.000
88.05246 84.000
88.07241 93.000
88.09236 79.000
88.11230 86.000
88.13225 78.000
88.15220 79.000
88.17214 97.000
88.19209 83.000
88.21204 81.000
88.23198 93.000
88.25193 119.000
88.27188 99.000
88.29183 78.000
88.31177 85.000
88.33172 91.000
88.35167 103.000
88.37161 94.000
88.39156 94.000
88.41151 90.000
88.43145 100.000
88.45140 93.000
88.47135 101.000
88.49129 91.000
88.51124 91.000
88.53119 98.000
88.55114 95.000
88.57108 100.000
88.59103 92.000
88.61098 110.000
88.63092 92.000
88.65087 97.000
88.67082 94.000
88.69076 94.000
88.71071 101.000
88.73066 96.000
88.75061 103.000
88.77055 103.000
88.79050 95.000
88.81045 114.000
88.83039 105.000
88.85034 98.000
88.87029 84.000
88.89023 84.000
88.91018 103.000
88.93013 103.000
88.95007 91.000
88.97002 91.000
88.98997 102.000
89.00992 97.000
89.02986 72.000
89.04981 81.000
89.06976 91.000
89.08970 102.000
89.10965 103.000
89.12960 94.000
89.14954 107.000
89.16949 111.000
89.18944 92.000
89.20939 95.000
89.22933 111.000
89.24928 96.000
89.26923 99.000
89.28917 98.000
89.30912 104.000
89.32907 102.000
89.34901 104.000
89.36896 103.000
89.38891 104.000
89.40885 115.000
89.42880 106.000
89.44875 101.000
89.46870 129.000
89.48864 104.000
89.50859 117.000
89.52854 93.000
89.54848 116.000
89.56843 125.000
89.58838 141.000
89.60832 120.000
89.62827 125.000
89.64822 112.000
89.66817 100.000
89.68811 138.000
89.70806 142.000
89.72801 125.000
89.74795 124.000
89.76790 130.000
89.78785 126.000
89.80779 110.000
89.82774 135.000
89.84769 135.000
89.86764 131.000
89.88758 131.000
89.90753 119.000
89.92748 132.000
89.94742 121.000
89.96737 119.000
89.98732 128.000
90.00726 127.000
