10.00000 108.000
10.01995 112.000
10.03989 125.000
10.05984 110.000
10.07979 106.000
10.09973 111.000
10.11968 110.000
10.13963 101.000
10.15958 100.000
10.17952 111.000
10.19947 109.000
10.21942 98.000
10.23936 95.000
10.25931 103.000
10.27926 107.000
10.29920 94.000
10.31915 107.000
10.33910 120.000
10.35905 95.000
10.37899 96.000
10.39894 113.000
10.41889 128.000
10.43883 102.000
10.45878 117.000
10.47873 113.000
10.49867 98.000
10.51862 110.000
10.53857 134.000
10.55851 98.000
10.57846 107.000
10.59841 102.000
10.61836 98.000
10.63830 88.000
10.65825 105.000
10.67820 117.000
10.69814 80.000
10.71809 116.000
10.73804 107.000
10.75798 119.000
10.77793 112.000
10.79788 98.000
10.81783 100.000
10.83777 95.000
10.85772 108.000
10.87767 128.000
10.89761 97.000
10.91756 108.000
10.93751 100.000
10.95745 123.000
10.97740 102.000
10.99735 111.000
11.01730 115.000
11.03724 94.000
11.05719 104.000
11.07714 125.000
11.09708 89.000
11.11703 105.000
11.13698 94.000
11.15692 94.000
11.17687 106.000
11.19682 119.000
11.21676 106.000
11.23671 86.000
11.25666 110.000
11.27661 107.000
11.29655 83.000
11.31650 101.000
11.33645 106.000
11.35639 107.000
11.37634 106.000
11.39629 93.000
11.41623 93.000
11.43618 95.000
11.45613 104.000
11.47608 102.000
11.49602 111.000
11.51597 120.000
11.53592 126.000
11.55586 125.000
11.57581 101.000
11.59576 128.000
11.61570 103.000
11.63565 119.000
11.65560 114.000
11.67554 112.000
11.69549 90.000
11.71544 109.000
11.73539 105.000
11.75533 112.000
11.77528 101.000
11.79523 110.000
11.81517 107.000
11.83512 97.000
11.85507 110.000
11.87501 97.000
11.89496 118.000
11.91491 85.000
11.93486 94.000
11.95480 116.000
11.97475 108.000
11.99470 98.000
12.01464 113.000
12.03459 117.000
12.05454 94.000
12.07448 106.000
12.09443 124.000
12.11438 95.000
12.13432 122.000
12.15427 105.000
12.17422 110.000
12.19417 110.000
12.21411 114.000
12.23406 98.000
12.25401 109.000
12.27395 121.000
12.29390 102.000
12.31385 102.000
12.33379 94.000
12.35374 111.000
12.37369 101.000
12.39364 115.000
12.41358 121.000
12.43353 94.000
12.45348 99.000
12.47342 85.000
12.49337 93.000
12.51332 115.000
12.53326 107.000
12.55321 93.000
12.57316 105.000
12.59311 100.000
12.61305 104.000
12.63300 91.000
12.65295 111.000
12.67289 105.000
12.69284 91.000
12.71279 105.000
12.73273 100.000
12.75268 108.000
12.77263 102.000
12.79257 100.000
12.81252 100.000
12.83247 104.000
12.85242 126.000
12.87236 111.000
12.89231 107.000
12.91226 113.000
12.93220 87.000
12.95215 102.000
12.97210 98.000
12.99204 95.000
13.01199 96.000
13.03194 107.000
13.05189 108.000
13.07183 86.000
13.09178 97.000
13.11173 94.000
13.13167 97.000
13.15162 102.000
13.17157 107.000
13.19151 113.000
13.21146 104.000
13.23141 96.000
13.25135 111.000
13.27130 113.000
13.29125 125.000
13.31120 106.000
13.33114 111.000
13.35109 109.000
13.37104 104.000
13.39098 114.000
13.41093 99.000
13.43088 113.000
13.45082 96.000
13.47077 98.000
13.49072 129.000
13.51067 81.000
13.53061 106.000
13.55056 103.000
13.57051 109.000
13.59045 97.000
13.61040 121.000
13.63035 110.000
13.65029 115.000
13.67024 118.000
13.69019 84.000
13.71013 125.000
13.73008 106.000
13.75003 95.000
13.76998 92.000
13.78992 103.000
13.80987 97.000
13.82982 90.000
13.84976 114.000
13.86971 96.000
13.88966 92.000
13.90960 125.000
13.92955 112.000
13.94950 105.000
13.96945 103.000
13.98939 119.000
14.00934 98.000
14.02929 92.000
14.04923 94.000
14.06918 109.000
14.08913 113.000
14.10907 115.000
14.12902 99.000
14.14897 123.000
14.16892 104.000
14.18886 98.000
14.20881 85.000
14.22876 104.000
14.24870 100.000
14.26865 97.000
14.28860 90.000
14.30854 124.000
14.32849 85.000
14.34844 106.000
14.36838 100.000
14.38833 98.000
14.40828 94.000
14.42823 95.000
14.44817 90.000
14.46812 86.000
14.48807 85.000
14.50801 97.000
14.52796 87.000
14.54791 107.000
14.56785 114.000
14.58780 109.000
14.60775 100.000
14.62770 102.000
14.64764 96.000
14.66759 114.000
14.68754 109.000
14.70748 84.000
14.72743 105.000
14.74738 112.000
14.76732 117.000
14.78727 106.000
14.80722 98.000
14.82716 105.000
14.84711 100.000
14.86706 114.000
14.88701 122.000
14.90695 99.000
14.92690 103.000
14.94685 110.000
14.96679 90.000
14.98674 110.000
15.00669 93.000
15.02663 115.000
15.04658 111.000
15.06653 90.000
15.08648 96.000
15.10642 88.000
15.12637 108.000
15.14632 102.000
15.16626 101.000
15.18621 104.000
15.20616 109.000
15.22610 126.000
15.24605 96.000
15.26600 99.000
15.28594 107.000
15.30589 105.000
15.32584 102.000
15.34579 99.000
15.36573 112.000
15.38568 108.000
15.40563 102.000
15.42557 100.000
15.44552 94.000
15.46547 119.000
15.48541 83.000
15.50536 113.000
15.52531 92.000
15.54526 115.000
15.56520 99.000
15.58515 91.000
15.60510 102.000
15.62504 100.000
15.64499 107.000
15.66494 120.000
15.68488 129.000
15.70483 100.000
15.72478 139.000
15.74472 103.000
15.76467 110.000
15.78462 124.000
15.80457 110.000
15.82451 134.000
15.84446 109.000
15.86441 117.000
15.88435 111.000
15.90430 111.000
15.92425 101.000
15.94419 109.000
15.96414 117.000
15.98409 100.000
16.00404 96.000
16.02398 113.000
16.04393 107.000
16.06388 119.000
16.08382 121.000
16.10377 106.000
16.12372 112.000
16.14366 120.000
16.16361 117.000
16.18356 138.000
16.20351 136.000
16.22345 134.000
16.24340 121.000
16.26335 113.000
16.28329 111.000
16.30324 115.000
16.32319 128.000
16.34313 119.000
16.36308 121.000
16.38303 128.000
16.40297 112.000
16.42292 105.000
16.44287 108.000
16.46282 119.000
16.48276 131.000
16.50271 112.000
16.52266 137.000
16.54260 122.000
16.56255 110.000
16.58250 136.000
16.60244 125.000
16.62239 112.000
16.64234 111.000
16.66229 104.000
16.68223 110.000
16.70218 128.000
16.72213 123.000
16.74207 131.000
16.76202 150.000
16.78197 148.000
16.80191 156.000
16.82186 133.000
16.84181 135.000
16.86175 137.000
16.88170 151.000
16.90165 122.000
16.92160 138.000
16.94154 126.000
16.96149 127.000
16.98144 111.000
17.00138 123.000
17.02133 139.000
17.04128 135.000
17.06122 124.000
17.08117 112.000
17.10112 164.000
17.12107 158.000
17.14101 198.000
17.16096 242.000
17.18091 256.000
17.20085 286.000
17.22080 259.000
17.24075 240.000
17.26069 202.000
17.28064 159.000
17.30059 146.000
17.32053 126.000
17.34048 142.000
17.36043 115.000
17.38038 118.000
17.40032 125.000
17.42027 118.000
17.44022 117.000
17.46016 113.000
17.48011 121.000
17.50006 113.000
17.52000 110.000
17.53995 97.000
17.55990 111.000
17.57985 97.000
17.59979 121.000
17.61974 101.000
17.63969 107.000
17.65963 124.000
17.67958 105.000
17.69953 111.000
17.71947 104.000
17.73942 94.000
17.75937 98.000
17.77932 104.000
17.79926 110.000
17.81921 117.000
17.83916 119.000
17.85910 124.000
17.87905 115.000
17.89900 117.000
17.91894 99.000
17.93889 103.000
17.95884 108.000
17.97878 100.000
17.99873 106.000
18.01868 106.000
18.03863 103.000
18.05857 108.000
18.07852 101.000
18.09847 112.000
18.11841 92.000
18.13836 119.000
18.15831 124.000
18.17825 127.000
18.19820 117.000
18.21815 90.000
18.23810 117.000
18.25804 118.000
18.27799 135.000
18.29794 122.000
18.31788 160.000
18.33783 158.000
18.35778 200.000
18.37772 232.000
18.39767 221.000
18.41762 215.000
18.43756 192.000
18.45751 181.000
18.47746 141.000
18.49741 118.000
18.51735 116.000
18.53730 120.000
18.55725 129.000
18.57719 109.000
18.59714 129.000
18.61709 115.000
18.63703 118.000
18.65698 112.000
18.67693 119.000
18.69688 116.000
18.71682 114.000
18.73677 132.000
18.75672 89.000
18.77666 112.000
18.79661 133.000
18.81656 106.000
18.83650 127.000
18.85645 106.000
18.87640 109.000
18.89634 102.000
18.91629 117.000
18.93624 126.000
18.95619 104.000
18.97613 113.000
18.99608 109.000
19.01603 107.000
19.03597 101.000
19.05592 99.000
19.07587 127.000
19.09581 117.000
19.11576 127.000
19.13571 124.000
19.15566 94.000
19.17560 129.000
19.19555 122.000
19.21550 102.000
19.23544 92.000
19.25539 106.000
19.27534 96.000
19.29528 109.000
19.31523 117.000
19.33518 94.000
19.35513 122.000
19.37507 119.000
19.39502 125.000
19.41497 103.000
19.43491 110.000
19.45486 121.000
19.47481 116.000
19.49475 121.000
19.51470 105.000
19.53465 108.000
19.55459 132.000
19.57454 122.000
19.59449 130.000
19.61444 135.000
19.63438 119.000
19.65433 124.000
19.67428 124.000
19.69422 106.000
19.71417 114.000
19.73412 114.000
19.75406 147.000
19.77401 122.000
19.79396 124.000
19.81391 128.000
19.83385 123.000
19.85380 140.000
19.87375 153.000
19.89369 147.000
19.91364 150.000
19.93359 161.000
19.95353 198.000
19.97348 236.000
19.99343 293.000
20.01337 392.000
20.03332 503.000
20.05327 532.000
20.07322 500.000
20.09316 448.000
20.11311 374.000
20.13306 345.000
20.15300 355.000
20.17295 325.000
20.19290 301.000
20.21284 312.000
20.23279 329.000
20.25274 305.000
20.27269 279.000
20.29263 227.000
20.31258 236.000
20.33253 229.000
20.35247 212.000
20.37242 208.000
20.39237 246.000
20.41231 255.000
20.43226 317.000
20.45221 322.000
20.47215 341.000
20.49210 441.000
20.51205 472.000
20.53200 531.000
20.55194 568.000
20.57189 656.000
20.59184 703.000
20.61178 847.000
20.63173 1013.000
20.65168 1051.000
20.67162 1011.000
20.69157 808.000
20.71152 747.000
20.73147 585.000
20.75141 504.000
20.77136 384.000
20.79131 346.000
20.81125 323.000
20.83120 315.000
20.85115 268.000
20.87109 267.000
20.89104 231.000
20.91099 200.000
20.93094 188.000
20.95088 176.000
20.97083 180.000
20.99078 152.000
21.01072 163.000
21.03067 136.000
21.05062 142.000
21.07056 136.000
21.09051 145.000
21.11046 120.000
21.13040 127.000
21.15035 129.000
21.17030 122.000
21.19025 132.000
21.21019 146.000
21.23014 133.000
21.25009 126.000
21.27003 121.000
21.28998 135.000
21.30993 117.000
21.32987 118.000
21.34982 129.000
21.36977 108.000
21.38972 117.000
21.40966 113.000
21.42961 123.000
21.44956 122.000
21.46950 127.000
21.48945 136.000
21.50940 126.000
21.52934 126.000
21.54929 125.000
21.56924 103.000
21.58918 112.000
21.60913 107.000
21.62908 130.000
21.64903 129.000
21.66897 111.000
21.68892 124.000
21.70887 127.000
21.72881 125.000
21.74876 122.000
21.76871 118.000
21.78865 114.000
21.80860 117.000
21.82855 127.000
21.84850 118.000
21.86844 137.000
21.88839 117.000
21.90834 130.000
21.92828 124.000
21.94823 120.000
21.96818 110.000
21.98812 129.000
22.00807 117.000
22.02802 109.000
22.04796 116.000
22.06791 127.000
22.08786 123.000
22.10781 129.000
22.12775 131.000
22.14770 139.000
22.16765 123.000
22.18759 119.000
22.20754 130.000
22.22749 141.000
22.24743 146.000
22.26738 129.000
22.28733 114.000
22.30728 121.000
22.32722 138.000
22.34717 113.000
22.36712 119.000
22.38706 119.000
22.40701 140.000
22.42696 112.000
22.44690 120.000
22.46685 141.000
22.48680 128.000
22.50675 133.000
22.52669 140.000
22.54664 127.000
22.56659 123.000
22.58653 120.000
22.60648 129.000
22.62643 138.000
22.64637 141.000
22.66632 108.000
22.68627 129.000
22.70621 114.000
22.72616 120.000
22.74611 123.000
22.76606 122.000
22.78600 129.000
22.80595 130.000
22.82590 123.000
22.84584 121.000
22.86579 140.000
22.88574 145.000
22.90568 107.000
22.92563 124.000
22.94558 123.000
22.96553 143.000
22.98547 123.000
23.00542 120.000
23.02537 132.000
23.04531 138.000
23.06526 117.000
23.08521 114.000
23.10515 116.000
23.12510 126.000
23.14505 121.000
23.16499 136.000
23.18494 130.000
23.20489 140.000
23.22484 141.000
23.24478 130.000
23.26473 115.000
23.28468 147.000
23.30462 113.000
23.32457 132.000
23.34452 146.000
23.36446 119.000
23.38441 122.000
23.40436 132.000
23.42431 125.000
23.44425 119.000
23.46420 127.000
23.48415 126.000
23.50409 141.000
23.52404 127.000
23.54399 134.000
23.56393 118.000
23.58388 130.000
23.60383 139.000
23.62377 123.000
23.64372 119.000
23.66367 133.000
23.68362 130.000
23.70356 156.000
23.72351 150.000
23.74346 137.000
23.76340 128.000
23.78335 122.000
23.80330 128.000
23.82324 132.000
23.84319 129.000
23.86314 132.000
23.88309 138.000
23.90303 133.000
23.92298 142.000
23.94293 138.000
23.96287 139.000
23.98282 147.000
24.00277 134.000
24.02271 131.000
24.04266 118.000
24.06261 126.000
24.08256 138.000
24.10250 142.000
24.12245 143.000
24.14240 132.000
24.16234 153.000
24.18229 144.000
24.20224 121.000
24.22218 133.000
24.24213 116.000
24.26208 137.000
24.28202 126.000
24.30197 138.000
24.32192 109.000
24.34187 133.000
24.36181 139.000
24.38176 161.000
24.40171 126.000
24.42165 143.000
24.44160 139.000
24.46155 138.000
24.48149 146.000
24.50144 137.000
24.52139 145.000
24.54134 157.000
24.56128 155.000
24.58123 157.000
24.60118 137.000
24.62112 130.000
24.64107 171.000
24.66102 154.000
24.68096 132.000
24.70091 149.000
24.72086 159.000
24.74080 149.000
24.76075 135.000
24.78070 174.000
24.80065 145.000
24.82059 146.000
24.84054 134.000
24.86049 155.000
24.88043 157.000
24.90038 161.000
24.92033 137.000
24.94027 161.000
24.96022 141.000
24.98017 161.000
25.00012 147.000
25.02006 167.000
25.04001 163.000
25.05996 144.000
25.07990 159.000
25.09985 142.000
25.11980 153.000
25.13974 147.000
25.15969 147.000
25.17964 149.000
25.19958 139.000
25.21953 149.000
25.23948 128.000
25.25943 156.000
25.27937 158.000
25.29932 139.000
25.31927 158.000
25.33921 140.000
25.35916 127.000
25.37911 137.000
25.39905 150.000
25.41900 120.000
25.43895 151.000
25.45890 170.000
25.47884 156.000
25.49879 161.000
25.51874 131.000
25.53868 160.000
25.55863 161.000
25.57858 154.000
25.59852 137.000
25.61847 143.000
25.63842 183.000
25.65837 149.000
25.67831 158.000
25.69826 156.000
25.71821 156.000
25.73815 158.000
25.75810 166.000
25.77805 142.000
25.79799 159.000
25.81794 146.000
25.83789 176.000
25.85783 173.000
25.87778 155.000
25.89773 155.000
25.91768 168.000
25.93762 152.000
25.95757 179.000
25.97752 186.000
25.99746 194.000
26.01741 222.000
26.03736 221.000
26.05730 228.000
26.07725 240.000
26.09720 223.000
26.11715 201.000
26.13709 180.000
26.15704 228.000
26.17699 193.000
26.19693 205.000
26.21688 180.000
26.23683 183.000
26.25677 186.000
26.27672 174.000
26.29667 177.000
26.31661 192.000
26.33656 174.000
26.35651 170.000
26.37646 172.000
26.39640 158.000
26.41635 159.000
26.43630 175.000
26.45624 169.000
26.47619 162.000
26.49614 147.000
26.51608 157.000
26.53603 185.000
26.55598 178.000
26.57593 158.000
26.59587 151.000
26.61582 179.000
26.63577 183.000
26.65571 170.000
26.67566 163.000
26.69561 170.000
26.71555 171.000
26.73550 167.000
26.75545 179.000
26.77539 175.000
26.79534 183.000
26.81529 172.000
26.83524 184.000
26.85518 171.000
26.87513 187.000
26.89508 166.000
26.91502 159.000
26.93497 182.000
26.95492 183.000
26.97486 159.000
26.99481 196.000
27.01476 165.000
27.03471 150.000
27.05465 173.000
27.07460 152.000
27.09455 180.000
27.11449 173.000
27.13444 175.000
27.15439 137.000
27.17433 188.000
27.19428 166.000
27.21423 168.000
27.23417 162.000
27.25412 208.000
27.27407 183.000
27.29402 151.000
27.31396 177.000
27.33391 199.000
27.35386 184.000
27.37380 193.000
27.39375 181.000
27.41370 175.000
27.43364 179.000
27.45359 184.000
27.47354 175.000
27.49349 176.000
27.51343 181.000
27.53338 185.000
27.55333 188.000
27.57327 172.000
27.59322 167.000
27.61317 167.000
27.63311 186.000
27.65306 189.000
27.67301 198.000
27.69296 165.000
27.71290 164.000
27.73285 194.000
27.75280 176.000
27.77274 182.000
27.79269 182.000
27.81264 175.000
27.83258 171.000
27.85253 151.000
27.87248 186.000
27.89242 189.000
27.91237 195.000
27.93232 196.000
27.95227 191.000
27.97221 181.000
27.99216 185.000
28.01211 176.000
28.03205 172.000
28.05200 182.000
28.07195 187.000
28.09189 185.000
28.11184 193.000
28.13179 167.000
28.15174 191.000
28.17168 206.000
28.19163 205.000
28.21158 183.000
28.23152 200.000
28.25147 170.000
28.27142 191.000
28.29136 195.000
28.31131 183.000
28.33126 187.000
28.35120 200.000
28.37115 219.000
28.39110 186.000
28.41105 201.000
28.43099 211.000
28.45094 194.000
28.47089 203.000
28.49083 192.000
28.51078 195.000
28.53073 226.000
28.55067 187.000
28.57062 183.000
28.59057 201.000
28.61052 190.000
28.63046 202.000
28.65041 192.000
28.67036 181.000
28.69030 206.000
28.71025 217.000
28.73020 177.000
28.75014 201.000
28.77009 208.000
28.79004 184.000
28.80998 198.000
28.82993 187.000
28.84988 199.000
28.86983 215.000
28.88977 221.000
28.90972 221.000
28.92967 211.000
28.94961 231.000
28.96956 186.000
28.98951 196.000
29.00945 223.000
29.02940 193.000
29.04935 218.000
29.06930 189.000
29.08924 230.000
29.10919 200.000
29.12914 198.000
29.14908 221.000
29.16903 200.000
29.18898 218.000
29.20892 232.000
29.22887 250.000
29.24882 242.000
29.26877 249.000
29.28871 246.000
29.30866 260.000
29.32861 269.000
29.34855 288.000
29.36850 273.000
29.38845 269.000
29.40839 292.000
29.42834 366.000
29.44829 380.000
29.46823 433.000
29.48818 448.000
29.50813 527.000
29.52808 608.000
29.54802 667.000
29.56797 537.000
29.58792 541.000
29.60786 535.000
29.62781 469.000
29.64776 359.000
29.66770 339.000
29.68765 324.000
29.70760 290.000
29.72755 271.000
29.74749 259.000
29.76744 231.000
29.78739 229.000
29.80733 256.000
29.82728 241.000
29.84723 211.000
29.86717 276.000
29.88712 257.000
29.90707 238.000
29.92701 242.000
29.94696 188.000
29.96691 242.000
29.98686 224.000
30.00680 220.000
30.02675 203.000
30.04670 229.000
30.06664 204.000
30.08659 214.000
30.10654 243.000
30.12648 248.000
30.14643 273.000
30.16638 259.000
30.18633 287.000
30.20627 370.000
30.22622 472.000
30.24617 466.000
30.26611 463.000
30.28606 416.000
30.30601 417.000
30.32595 382.000
30.34590 330.000
30.36585 290.000
30.38579 259.000
30.40574 276.000
30.42569 251.000
30.44564 240.000
30.46558 249.000
30.48553 222.000
30.50548 215.000
30.52542 237.000
30.54537 220.000
30.56532 211.000
30.58526 213.000
30.60521 185.000
30.62516 214.000
30.64511 233.000
30.66505 231.000
30.68500 244.000
30.70495 212.000
30.72489 224.000
30.74484 228.000
30.76479 242.000
30.78473 193.000
30.80468 227.000
30.82463 207.000
30.84458 203.000
30.86452 198.000
30.88447 204.000
30.90442 221.000
30.92436 202.000
30.94431 185.000
30.96426 199.000
30.98420 202.000
31.00415 203.000
31.02410 210.000
31.04404 202.000
31.06399 220.000
31.08394 204.000
31.10389 209.000
31.12383 208.000
31.14378 211.000
31.16373 182.000
31.18367 176.000
31.20362 207.000
31.22357 210.000
31.24351 210.000
31.26346 207.000
31.28341 231.000
31.30336 215.000
31.32330 217.000
31.34325 206.000
31.36320 214.000
31.38314 190.000
31.40309 211.000
31.42304 204.000
31.44298 205.000
31.46293 203.000
31.48288 221.000
31.50282 223.000
31.52277 209.000
31.54272 197.000
31.56267 244.000
31.58261 240.000
31.60256 222.000
31.62251 223.000
31.64245 254.000
31.66240 252.000
31.68235 265.000
31.70229 301.000
31.72224 374.000
31.74219 382.000
31.76214 322.000
31.78208 376.000
31.80203 282.000
31.82198 398.000
31.84192 327.000
31.86187 347.000
31.88182 303.000
31.90176 281.000
31.92171 259.000
31.94166 242.000
31.96160 273.000
31.98155 263.000
32.00150 253.000
32.02145 229.000
32.04139 214.000
32.06134 254.000
32.08129 243.000
32.10123 276.000
32.12118 236.000
32.14113 266.000
32.16107 256.000
32.18102 251.000
32.20097 276.000
32.22092 273.000
32.24086 265.000
32.26081 229.000
32.28076 244.000
32.30070 273.000
32.32065 249.000
32.34060 255.000
32.36054 269.000
32.38049 274.000
32.40044 259.000
32.42039 257.000
32.44033 233.000
32.46028 243.000
32.48023 252.000
32.50017 245.000
32.52012 232.000
32.54007 241.000
32.56001 229.000
32.57996 232.000
32.59991 241.000
32.61985 234.000
32.63980 209.000
32.65975 227.000
32.67970 231.000
32.69964 225.000
32.71959 225.000
32.73954 224.000
32.75948 210.000
32.77943 202.000
32.79938 223.000
32.81932 229.000
32.83927 195.000
32.85922 198.000
32.87917 190.000
32.89911 232.000
32.91906 222.000
32.93901 212.000
32.95895 227.000
32.97890 202.000
32.99885 222.000
33.01879 203.000
33.03874 228.000
33.05869 253.000
33.07863 267.000
33.09858 243.000
33.11853 277.000
33.13848 232.000
33.15842 250.000
33.17837 270.000
33.19832 351.000
33.21826 339.000
33.23821 386.000
33.25816 398.000
33.27810 494.000
33.29805 596.000
33.31800 701.000
33.33795 693.000
33.35789 618.000
33.37784 591.000
33.39779 586.000
33.41773 607.000
33.43768 593.000
33.45763 524.000
33.47757 495.000
33.49752 457.000
33.51747 442.000
33.53741 451.000
33.55736 420.000
33.57731 371.000
33.59726 387.000
33.61720 377.000
33.63715 383.000
33.65710 349.000
33.67704 397.000
33.69699 372.000
33.71694 356.000
33.73688 370.000
33.75683 371.000
33.77678 376.000
33.79673 426.000
33.81667 403.000
33.83662 444.000
33.85657 516.000
33.87651 546.000
33.89646 545.000
33.91641 579.000
33.93635 702.000
33.95630 803.000
33.97625 901.000
33.99620 979.000
34.01614 1044.000
34.03609 1065.000
34.05604 1009.000
34.07598 948.000
34.09593 884.000
34.11588 849.000
34.13582 754.000
34.15577 707.000
34.17572 605.000
34.19566 595.000
34.21561 472.000
34.23556 447.000
34.25551 467.000
34.27545 422.000
34.29540 386.000
34.31535 423.000
34.33529 365.000
34.35524 359.000
34.37519 346.000
34.39513 344.000
34.41508 331.000
34.43503 313.000
34.45498 319.000
34.47492 340.000
34.49487 322.000
34.51482 274.000
34.53476 295.000
34.55471 310.000
34.57466 279.000
34.59460 308.000
34.61455 286.000
34.63450 284.000
34.65444 267.000
34.67439 246.000
34.69434 260.000
34.71429 263.000
34.73423 264.000
34.75418 314.000
34.77413 279.000
34.79407 304.000
34.81402 321.000
34.83397 343.000
34.85391 327.000
34.87386 344.000
34.89381 315.000
34.91376 297.000
34.93370 322.000
34.95365 302.000
34.97360 291.000
34.99354 299.000
35.01349 259.000
35.03344 248.000
35.05338 257.000
35.07333 230.000
35.09328 292.000
35.11322 263.000
35.13317 268.000
35.15312 253.000
35.17307 258.000
35.19301 240.000
35.21296 241.000
35.23291 276.000
35.25285 297.000
35.27280 254.000
35.29275 267.000
35.31269 303.000
35.33264 294.000
35.35259 289.000
35.37254 319.000
35.39248 320.000
35.41243 352.000
35.43238 401.000
35.45232 347.000
35.47227 417.000
35.49222 393.000
35.51216 515.000
35.53211 495.000
35.55206 616.000
35.57201 708.000
35.59195 856.000
35.61190 992.000
35.63185 1161.000
35.65179 1180.000
35.67174 982.000
35.69169 906.000
35.71163 880.000
35.73158 794.000
35.75153 661.000
35.77147 569.000
35.79142 563.000
35.81137 436.000
35.83132 375.000
35.85126 340.000
35.87121 337.000
35.89116 311.000
35.91110 341.000
35.93105 331.000
35.95100 329.000
35.97094 359.000
35.99089 314.000
36.01084 310.000
36.03079 338.000
36.05073 305.000
36.07068 329.000
36.09063 302.000
36.11057 296.000
36.13052 293.000
36.15047 282.000
36.17041 292.000
36.19036 281.000
36.21031 265.000
36.23025 291.000
36.25020 304.000
36.27015 310.000
36.29010 357.000
36.31004 383.000
36.32999 431.000
36.34994 469.000
36.36988 422.000
36.38983 417.000
36.40978 380.000
36.42972 407.000
36.44967 362.000
36.46962 322.000
36.48957 308.000
36.50951 279.000
36.52946 296.000
36.54941 266.000
36.56935 276.000
36.58930 261.000
36.60925 238.000
36.62919 211.000
36.64914 251.000
36.66909 215.000
36.68903 209.000
36.70898 221.000
36.72893 234.000
36.74888 201.000
36.76882 241.000
36.78877 250.000
36.80872 228.000
36.82866 248.000
36.84861 232.000
36.86856 226.000
36.88850 225.000
36.90845 227.000
36.92840 260.000
36.94835 240.000
36.96829 264.000
36.98824 267.000
37.00819 263.000
37.02813 258.000
37.04808 257.000
37.06803 272.000
37.08797 268.000
37.10792 257.000
37.12787 287.000
37.14781 256.000
37.16776 237.000
37.18771 254.000
37.20766 286.000
37.22760 269.000
37.24755 242.000
37.26750 276.000
37.28744 270.000
37.30739 257.000
37.32734 243.000
37.34728 239.000
37.36723 219.000
37.38718 238.000
37.40713 229.000
37.42707 187.000
37.44702 191.000
37.46697 182.000
37.48691 184.000
37.50686 171.000
37.52681 178.000
37.54675 190.000
37.56670 183.000
37.58665 163.000
37.60660 171.000
37.62654 180.000
37.64649 176.000
37.66644 183.000
37.68638 166.000
37.70633 165.000
37.72628 169.000
37.74622 181.000
37.76617 188.000
37.78612 174.000
37.80606 195.000
37.82601 164.000
37.84596 176.000
37.86591 177.000
37.88585 159.000
37.90580 186.000
37.92575 176.000
37.94569 176.000
37.96564 179.000
37.98559 167.000
38.00553 191.000
38.02548 205.000
38.04543 193.000
38.06538 202.000
38.08532 154.000
38.10527 192.000
38.12522 198.000
38.14516 198.000
38.16511 212.000
38.18506 214.000
38.20500 207.000
38.22495 216.000
38.24490 203.000
38.26484 199.000
38.28479 211.000
38.30474 186.000
38.32469 153.000
38.34463 197.000
38.36458 202.000
38.38453 211.000
38.40447 192.000
38.42442 196.000
38.44437 185.000
38.46431 203.000
38.48426 172.000
38.50421 211.000
38.52416 197.000
38.54410 227.000
38.56405 197.000
38.58400 219.000
38.60394 230.000
38.62389 238.000
38.64384 256.000
38.66378 257.000
38.68373 271.000
38.70368 282.000
38.72362 250.000
38.74357 296.000
38.76352 294.000
38.78347 246.000
38.80341 283.000
38.82336 255.000
38.84331 234.000
38.86325 257.000
38.88320 263.000
38.90315 251.000
38.92309 289.000
38.94304 228.000
38.96299 264.000
38.98294 240.000
39.00288 235.000
39.02283 214.000
39.04278 221.000
39.06272 220.000
39.08267 228.000
39.10262 219.000
39.12256 211.000
39.14251 213.000
39.16246 213.000
39.18241 197.000
39.20235 190.000
39.22230 200.000
39.24225 197.000
39.26219 176.000
39.28214 201.000
39.30209 214.000
39.32203 210.000
39.34198 187.000
39.36193 202.000
39.38187 185.000
39.40182 199.000
39.42177 167.000
39.44172 185.000
39.46166 182.000
39.48161 215.000
39.50156 197.000
39.52150 175.000
39.54145 186.000
39.56140 189.000
39.58134 176.000
39.60129 183.000
39.62124 200.000
39.64119 194.000
39.66113 189.000
39.68108 176.000
39.70103 173.000
39.72097 185.000
39.74092 175.000
39.76087 155.000
39.78081 181.000
39.80076 161.000
39.82071 178.000
39.84065 184.000
39.86060 186.000
39.88055 194.000
39.90050 159.000
39.92044 181.000
39.94039 177.000
39.96034 171.000
39.98028 185.000
40.00023 178.000
40.02018 183.000
40.04012 186.000
40.06007 167.000
40.08002 188.000
40.09997 188.000
40.11991 173.000
40.13986 190.000
40.15981 183.000
40.17975 188.000
40.19970 189.000
40.21965 158.000
40.23959 183.000
40.25954 187.000
40.27949 181.000
40.29943 178.000
40.31938 160.000
40.33933 187.000
40.35928 198.000
40.37922 165.000
40.39917 190.000
40.41912 176.000
40.43906 201.000
40.45901 175.000
40.47896 160.000
40.49890 208.000
40.51885 162.000
40.53880 173.000
40.55875 183.000
40.57869 191.000
40.59864 183.000
40.61859 163.000
40.63853 174.000
40.65848 156.000
40.67843 178.000
40.69837 208.000
40.71832 182.000
40.73827 181.000
40.75822 200.000
40.77816 188.000
40.79811 202.000
40.81806 193.000
40.83800 184.000
40.85795 197.000
40.87790 198.000
40.89784 202.000
40.91779 223.000
40.93774 196.000
40.95768 206.000
40.97763 208.000
40.99758 208.000
41.01753 200.000
41.03747 221.000
41.05742 218.000
41.07737 232.000
41.09731 227.000
41.11726 232.000
41.13721 192.000
41.15715 245.000
41.17710 217.000
41.19705 243.000
41.21700 232.000
41.23694 214.000
41.25689 225.000
41.27684 220.000
41.29678 257.000
41.31673 250.000
41.33668 231.000
41.35662 254.000
41.37657 246.000
41.39652 256.000
41.41646 250.000
41.43641 255.000
41.45636 243.000
41.47631 267.000
41.49625 242.000
41.51620 228.000
41.53615 290.000
41.55609 284.000
41.57604 262.000
41.59599 286.000
41.61593 294.000
41.63588 312.000
41.65583 357.000
41.67578 401.000
41.69572 458.000
41.71567 513.000
41.73562 600.000
41.75556 615.000
41.77551 626.000
41.79546 662.000
41.81540 562.000
41.83535 555.000
41.85530 503.000
41.87524 511.000
41.89519 447.000
41.91514 436.000
41.93509 371.000
41.95503 330.000
41.97498 313.000
41.99493 289.000
42.01487 286.000
42.03482 263.000
42.05477 270.000
42.07471 244.000
42.09466 228.000
42.11461 217.000
42.13456 201.000
42.15450 238.000
42.17445 222.000
42.19440 224.000
42.21434 220.000
42.23429 235.000
42.25424 208.000
42.27418 208.000
42.29413 196.000
42.31408 217.000
42.33403 217.000
42.35397 191.000
42.37392 193.000
42.39387 196.000
42.41381 195.000
42.43376 194.000
42.45371 193.000
42.47365 219.000
42.49360 211.000
42.51355 221.000
42.53349 212.000
42.55344 216.000
42.57339 207.000
42.59334 214.000
42.61328 191.000
42.63323 233.000
42.65318 211.000
42.67312 211.000
42.69307 220.000
42.71302 226.000
42.73296 206.000
42.75291 211.000
42.77286 241.000
42.79281 225.000
42.81275 210.000
42.83270 210.000
42.85265 222.000
42.87259 217.000
42.89254 222.000
42.91249 222.000
42.93243 229.000
42.95238 244.000
42.97233 243.000
42.99227 237.000
43.01222 218.000
43.03217 247.000
43.05212 275.000
43.07206 247.000
43.09201 255.000
43.11196 259.000
43.13190 260.000
43.15185 287.000
43.17180 244.000
43.19174 282.000
43.21169 268.000
43.23164 266.000
43.25159 303.000
43.27153 353.000
43.29148 352.000
43.31143 322.000
43.33137 374.000
43.35132 372.000
43.37127 331.000
43.39121 301.000
43.41116 301.000
43.43111 276.000
43.45105 252.000
43.47100 277.000
43.49095 241.000
43.51090 219.000
43.53084 229.000
43.55079 182.000
43.57074 203.000
43.59068 189.000
43.61063 182.000
43.63058 172.000
43.65052 155.000
43.67047 187.000
43.69042 207.000
43.71037 166.000
43.73031 186.000
43.75026 185.000
43.77021 173.000
43.79015 170.000
43.81010 183.000
43.83005 169.000
43.84999 182.000
43.86994 172.000
43.88989 161.000
43.90984 173.000
43.92978 160.000
43.94973 148.000
43.96968 160.000
43.98962 156.000
44.00957 143.000
44.02952 174.000
44.04946 158.000
44.06941 153.000
44.08936 162.000
44.10930 151.000
44.12925 161.000
44.14920 153.000
44.16915 164.000
44.18909 150.000
44.20904 168.000
44.22899 160.000
44.24893 167.000
44.26888 162.000
44.28883 166.000
44.30877 167.000
44.32872 169.000
44.34867 204.000
44.36862 169.000
44.38856 153.000
44.40851 190.000
44.42846 183.000
44.44840 177.000
44.46835 178.000
44.48830 178.000
44.50824 182.000
44.52819 236.000
44.54814 176.000
44.56808 154.000
44.58803 163.000
44.60798 168.000
44.62793 154.000
44.64787 184.000
44.66782 166.000
44.68777 161.000
44.70771 149.000
44.72766 165.000
44.74761 171.000
44.76755 152.000
44.78750 142.000
44.80745 151.000
44.82740 136.000
44.84734 154.000
44.86729 176.000
44.88724 166.000
44.90718 149.000
44.92713 190.000
44.94708 185.000
44.96702 183.000
44.98697 162.000
45.00692 198.000
45.02686 182.000
45.04681 199.000
45.06676 207.000
45.08671 239.000
45.10665 232.000
45.12660 226.000
45.14655 264.000
45.16649 249.000
45.18644 199.000
45.20639 203.000
45.22633 199.000
45.24628 210.000
45.26623 203.000
45.28618 192.000
45.30612 198.000
45.32607 159.000
45.34602 179.000
45.36596 147.000
45.38591 159.000
45.40586 175.000
45.42580 152.000
45.44575 160.000
45.46570 155.000
45.48565 172.000
45.50559 155.000
45.52554 172.000
45.54549 155.000
45.56543 171.000
45.58538 150.000
45.60533 158.000
45.62527 181.000
45.64522 140.000
45.66517 177.000
45.68511 166.000
45.70506 143.000
45.72501 163.000
45.74496 151.000
45.76490 145.000
45.78485 149.000
45.80480 138.000
45.82474 168.000
45.84469 180.000
45.86464 153.000
45.88458 158.000
45.90453 140.000
45.92448 168.000
45.94443 166.000
45.96437 153.000
45.98432 154.000
46.00427 154.000
46.02421 169.000
46.04416 152.000
46.06411 142.000
46.08405 142.000
46.10400 151.000
46.12395 141.000
46.14389 147.000
46.16384 139.000
46.18379 142.000
46.20374 145.000
46.22368 150.000
46.24363 144.000
46.26358 155.000
46.28352 174.000
46.30347 141.000
46.32342 156.000
46.34336 136.000
46.36331 158.000
46.38326 139.000
46.40321 136.000
46.42315 154.000
46.44310 163.000
46.46305 164.000
46.48299 148.000
46.50294 175.000
46.52289 142.000
46.54283 149.000
46.56278 200.000
46.58273 147.000
46.60267 175.000
46.62262 160.000
46.64257 156.000
46.66252 201.000
46.68246 201.000
46.70241 188.000
46.72236 180.000
46.74230 189.000
46.76225 168.000
46.78220 199.000
46.80214 209.000
46.82209 203.000
46.84204 185.000
46.86199 195.000
46.88193 161.000
46.90188 169.000
46.92183 144.000
46.94177 155.000
46.96172 167.000
46.98167 152.000
47.00161 168.000
47.02156 158.000
47.04151 157.000
47.06146 167.000
47.08140 163.000
47.10135 154.000
47.12130 141.000
47.14124 168.000
47.16119 162.000
47.18114 146.000
47.20108 149.000
47.22103 157.000
47.24098 134.000
47.26092 150.000
47.28087 169.000
47.30082 165.000
47.32077 154.000
47.34071 165.000
47.36066 165.000
47.38061 147.000
47.40055 152.000
47.42050 176.000
47.44045 147.000
47.46039 182.000
47.48034 151.000
47.50029 129.000
47.52024 138.000
47.54018 134.000
47.56013 137.000
47.58008 176.000
47.60002 166.000
47.61997 167.000
47.63992 159.000
47.65986 156.000
47.67981 167.000
47.69976 141.000
47.71970 172.000
47.73965 152.000
47.75960 159.000
47.77955 152.000
47.79949 181.000
47.81944 143.000
47.83939 164.000
47.85933 170.000
47.87928 149.000
47.89923 152.000
47.91917 143.000
47.93912 161.000
47.95907 162.000
47.97902 155.000
47.99896 180.000
48.01891 167.000
48.03886 158.000
48.05880 172.000
48.07875 156.000
48.09870 153.000
48.11864 181.000
48.13859 144.000
48.15854 149.000
48.17848 160.000
48.19843 140.000
48.21838 166.000
48.23833 170.000
48.25827 161.000
48.27822 172.000
48.29817 143.000
48.31811 161.000
48.33806 160.000
48.35801 161.000
48.37795 173.000
48.39790 161.000
48.41785 165.000
48.43780 183.000
48.45774 158.000
48.47769 160.000
48.49764 176.000
48.51758 147.000
48.53753 182.000
48.55748 163.000
48.57742 137.000
48.59737 171.000
48.61732 163.000
48.63726 183.000
48.65721 178.000
48.67716 154.000
48.69711 183.000
48.71705 169.000
48.73700 186.000
48.75695 170.000
48.77689 164.000
48.79684 173.000
48.81679 188.000
48.83673 177.000
48.85668 179.000
48.87663 154.000
48.89658 190.000
48.91652 168.000
48.93647 186.000
48.95642 183.000
48.97636 162.000
48.99631 164.000
49.01626 169.000
49.03620 165.000
49.05615 170.000
49.07610 171.000
49.09605 162.000
49.11599 164.000
49.13594 160.000
49.15589 168.000
49.17583 162.000
49.19578 176.000
49.21573 142.000
49.23567 173.000
49.25562 154.000
49.27557 173.000
49.29551 177.000
49.31546 149.000
49.33541 185.000
49.35536 149.000
49.37530 153.000
49.39525 163.000
49.41520 145.000
49.43514 167.000
49.45509 138.000
49.47504 149.000
49.49498 161.000
49.51493 149.000
49.53488 164.000
49.55483 126.000
49.57477 142.000
49.59472 158.000
49.61467 146.000
49.63461 141.000
49.65456 136.000
49.67451 166.000
49.69445 177.000
49.71440 142.000
49.73435 139.000
49.75429 161.000
49.77424 148.000
49.79419 167.000
49.81414 166.000
49.83408 122.000
49.85403 151.000
49.87398 159.000
49.89392 150.000
49.91387 152.000
49.93382 138.000
49.95376 144.000
49.97371 144.000
49.99366 167.000
50.01361 127.000
50.03355 148.000
50.05350 158.000
50.07345 152.000
50.09339 167.000
50.11334 160.000
50.13329 157.000
50.15323 148.000
50.17318 148.000
50.19313 124.000
50.21307 161.000
50.23302 158.000
50.25297 169.000
50.27292 144.000
50.29286 130.000
50.31281 154.000
50.33276 170.000
50.35270 141.000
50.37265 164.000
50.39260 156.000
50.41254 151.000
50.43249 135.000
50.45244 162.000
50.47239 165.000
50.49233 158.000
50.51228 135.000
50.53223 146.000
50.55217 147.000
50.57212 144.000
50.59207 131.000
50.61201 160.000
50.63196 154.000
50.65191 151.000
50.67186 155.000
50.69180 178.000
50.71175 177.000
50.73170 188.000
50.75164 169.000
50.77159 184.000
50.79154 201.000
50.81148 175.000
50.83143 171.000
50.85138 198.000
50.87132 191.000
50.89127 187.000
50.91122 189.000
50.93117 164.000
50.95111 193.000
50.97106 191.000
50.99101 194.000
51.01095 190.000
51.03090 191.000
51.05085 187.000
51.07079 166.000
51.09074 166.000
51.11069 153.000
51.13064 173.000
51.15058 158.000
51.17053 128.000
51.19048 134.000
51.21042 141.000
51.23037 142.000
51.25032 140.000
51.27026 121.000
51.29021 165.000
51.31016 130.000
51.33010 140.000
51.35005 144.000
51.37000 131.000
51.38995 131.000
51.40989 151.000
51.42984 167.000
51.44979 158.000
51.46973 136.000
51.48968 118.000
51.50963 162.000
51.52957 126.000
51.54952 136.000
51.56947 119.000
51.58942 128.000
51.60936 132.000
51.62931 140.000
51.64926 121.000
51.66920 133.000
51.68915 134.000
51.70910 138.000
51.72904 138.000
51.74899 143.000
51.76894 130.000
51.78888 139.000
51.80883 139.000
51.82878 129.000
51.84873 154.000
51.86867 140.000
51.88862 150.000
51.90857 122.000
51.92851 121.000
51.94846 143.000
51.96841 152.000
51.98835 139.000
52.00830 146.000
52.02825 134.000
52.04820 141.000
52.06814 154.000
52.08809 132.000
52.10804 159.000
52.12798 133.000
52.14793 134.000
52.16788 143.000
52.18782 143.000
52.20777 174.000
52.22772 162.000
52.24767 138.000
52.26761 160.000
52.28756 147.000
52.30751 147.000
52.32745 139.000
52.34740 153.000
52.36735 150.000
52.38729 130.000
52.40724 141.000
52.42719 132.000
52.44713 129.000
52.46708 160.000
52.48703 122.000
52.50698 148.000
52.52692 148.000
52.54687 146.000
52.56682 137.000
52.58676 152.000
52.60671 160.000
52.62666 165.000
52.64660 161.000
52.66655 149.000
52.68650 151.000
52.70645 156.000
52.72639 162.000
52.74634 173.000
52.76629 158.000
52.78623 130.000
52.80618 145.000
52.82613 151.000
52.84607 132.000
52.86602 158.000
52.88597 155.000
52.90591 133.000
52.92586 170.000
52.94581 138.000
52.96576 177.000
52.98570 152.000
53.00565 157.000
53.02560 154.000
53.04554 158.000
53.06549 138.000
53.08544 165.000
53.10538 179.000
53.12533 152.000
53.14528 136.000
53.16523 145.000
53.18517 165.000
53.20512 147.000
53.22507 156.000
53.24501 146.000
53.26496 168.000
53.28491 165.000
53.30485 165.000
53.32480 161.000
53.34475 145.000
53.36469 174.000
53.38464 149.000
53.40459 162.000
53.42454 157.000
53.44448 170.000
53.46443 163.000
53.48438 163.000
53.50432 133.000
53.52427 126.000
53.54422 159.000
53.56416 178.000
53.58411 173.000
53.60406 155.000
53.62401 166.000
53.64395 183.000
53.66390 201.000
53.68385 201.000
53.70379 199.000
53.72374 212.000
53.74369 185.000
53.76363 222.000
53.78358 188.000
53.80353 176.000
53.82348 193.000
53.84342 191.000
53.86337 201.000
53.88332 195.000
53.90326 169.000
53.92321 163.000
53.94316 167.000
53.96310 193.000
53.98305 162.000
54.00300 173.000
54.02294 152.000
54.04289 176.000
54.06284 163.000
54.08279 132.000
54.10273 155.000
54.12268 145.000
54.14263 131.000
54.16257 154.000
54.18252 154.000
54.20247 161.000
54.22241 149.000
54.24236 136.000
54.26231 155.000
54.28226 129.000
54.30220 129.000
54.32215 141.000
54.34210 150.000
54.36204 132.000
54.38199 150.000
54.40194 148.000
54.42188 141.000
54.44183 130.000
54.46178 118.000
54.48172 137.000
54.50167 154.000
54.52162 143.000
54.54157 129.000
54.56151 118.000
54.58146 140.000
54.60141 125.000
54.62135 141.000
54.64130 145.000
54.66125 149.000
54.68119 155.000
54.70114 150.000
54.72109 147.000
54.74104 142.000
54.76098 129.000
54.78093 143.000
54.80088 136.000
54.82082 152.000
54.84077 149.000
54.86072 139.000
54.88066 150.000
54.90061 143.000
54.92056 138.000
54.94050 159.000
54.96045 158.000
54.98040 187.000
55.00035 139.000
55.02029 171.000
55.04024 162.000
55.06019 155.000
55.08013 174.000
55.10008 184.000
55.12003 151.000
55.13997 170.000
55.15992 179.000
55.17987 215.000
55.19982 214.000
55.21976 229.000
55.23971 203.000
55.25966 187.000
55.27960 190.000
55.29955 206.000
55.31950 205.000
55.33944 218.000
55.35939 212.000
55.37934 177.000
55.39929 194.000
55.41923 208.000
55.43918 171.000
55.45913 177.000
55.47907 180.000
55.49902 147.000
55.51897 154.000
55.53891 172.000
55.55886 165.000
55.57881 162.000
55.59875 134.000
55.61870 145.000
55.63865 159.000
55.65860 158.000
55.67854 154.000
55.69849 165.000
55.71844 185.000
55.73838 152.000
55.75833 166.000
55.77828 165.000
55.79822 144.000
55.81817 172.000
55.83812 160.000
55.85807 127.000
55.87801 162.000
55.89796 150.000
55.91791 159.000
55.93785 157.000
55.95780 163.000
55.97775 147.000
55.99769 162.000
56.01764 147.000
56.03759 170.000
56.05753 158.000
56.07748 152.000
56.09743 150.000
56.11738 142.000
56.13732 171.000
56.15727 158.000
56.17722 145.000
56.19716 154.000
56.21711 153.000
56.23706 153.000
56.25700 142.000
56.27695 143.000
56.29690 150.000
56.31685 149.000
56.33679 133.000
56.35674 148.000
56.37669 141.000
56.39663 143.000
56.41658 140.000
56.43653 161.000
56.45647 147.000
56.47642 113.000
56.49637 143.000
56.51631 137.000
56.53626 136.000
56.55621 124.000
56.57616 139.000
56.59610 135.000
56.61605 143.000
56.63600 144.000
56.65594 134.000
56.67589 141.000
56.69584 152.000
56.71578 164.000
56.73573 156.000
56.75568 108.000
56.77563 172.000
56.79557 106.000
56.81552 140.000
56.83547 151.000
56.85541 151.000
56.87536 173.000
56.89531 167.000
56.91525 142.000
56.93520 128.000
56.95515 133.000
56.97510 153.000
56.99504 160.000
57.01499 144.000
57.03494 167.000
57.05488 151.000
57.07483 149.000
57.09478 145.000
57.11472 187.000
57.13467 184.000
57.15462 204.000
57.17456 225.000
57.19451 206.000
57.21446 227.000
57.23441 249.000
57.25435 273.000
57.27430 307.000
57.29425 297.000
57.31419 317.000
57.33414 279.000
57.35409 287.000
57.37403 281.000
57.39398 270.000
57.41393 235.000
57.43388 267.000
57.45382 267.000
57.47377 247.000
57.49372 205.000
57.51366 212.000
57.53361 232.000
57.55356 201.000
57.57350 187.000
57.59345 166.000
57.61340 161.000
57.63334 176.000
57.65329 165.000
57.67324 163.000
57.69319 131.000
57.71313 134.000
57.73308 135.000
57.75303 141.000
57.77297 140.000
57.79292 147.000
57.81287 146.000
57.83281 160.000
57.85276 131.000
57.87271 160.000
57.89266 154.000
57.91260 132.000
57.93255 148.000
57.95250 145.000
57.97244 150.000
57.99239 152.000
58.01234 156.000
58.03228 139.000
58.05223 142.000
58.07218 129.000
58.09212 157.000
58.11207 149.000
58.13202 156.000
58.15197 164.000
58.17191 162.000
58.19186 147.000
58.21181 161.000
58.23175 161.000
58.25170 140.000
58.27165 148.000
58.29159 163.000
58.31154 161.000
58.33149 145.000
58.35144 168.000
58.37138 139.000
58.39133 143.000
58.41128 158.000
58.43122 156.000
58.45117 148.000
58.47112 166.000
58.49106 144.000
58.51101 134.000
58.53096 147.000
58.55090 150.000
58.57085 139.000
58.59080 151.000
58.61075 124.000
58.63069 132.000
58.65064 151.000
58.67059 140.000
58.69053 159.000
58.71048 148.000
58.73043 134.000
58.75037 150.000
58.77032 156.000
58.79027 137.000
58.81022 153.000
58.83016 137.000
58.85011 142.000
58.87006 135.000
58.89000 145.000
58.90995 128.000
58.92990 160.000
58.94984 130.000
58.96979 142.000
58.98974 153.000
59.00969 138.000
59.02963 151.000
59.04958 154.000
59.06953 142.000
59.08947 168.000
59.10942 157.000
59.12937 153.000
59.14931 141.000
59.16926 145.000
59.18921 150.000
59.20915 130.000
59.22910 152.000
59.24905 141.000
59.26900 155.000
59.28894 175.000
59.30889 155.000
59.32884 167.000
59.34878 168.000
59.36873 172.000
59.38868 168.000
59.40862 162.000
59.42857 168.000
59.44852 198.000
59.46847 196.000
59.48841 182.000
59.50836 208.000
59.52831 211.000
59.54825 184.000
59.56820 183.000
59.58815 198.000
59.60809 193.000
59.62804 185.000
59.64799 226.000
59.66793 197.000
59.68788 210.000
59.70783 218.000
59.72778 242.000
59.74772 191.000
59.76767 176.000
59.78762 186.000
59.80756 167.000
59.82751 177.000
59.84746 175.000
59.86740 207.000
59.88735 212.000
59.90730 220.000
59.92725 258.000
59.94719 247.000
59.96714 241.000
59.98709 285.000
60.00703 255.000
60.02698 287.000
60.04693 253.000
60.06687 268.000
60.08682 259.000
60.10677 241.000
60.12671 269.000
60.14666 248.000
60.16661 246.000
60.18656 219.000
60.20650 232.000
60.22645 260.000
60.24640 238.000
60.26634 252.000
60.28629 235.000
60.30624 217.000
60.32618 199.000
60.34613 224.000
60.36608 224.000
60.38603 201.000
60.40597 192.000
60.42592 185.000
60.44587 198.000
60.46581 160.000
60.48576 202.000
60.50571 160.000
60.52565 176.000
60.54560 203.000
60.56555 172.000
60.58550 174.000
60.60544 205.000
60.62539 177.000
60.64534 174.000
60.66528 190.000
60.68523 189.000
60.70518 159.000
60.72512 177.000
60.74507 194.000
60.76502 178.000
60.78496 188.000
60.80491 209.000
60.82486 174.000
60.84481 203.000
60.86475 186.000
60.88470 202.000
60.90465 181.000
60.92459 185.000
60.94454 217.000
60.96449 170.000
60.98443 196.000
61.00438 222.000
61.02433 199.000
61.04428 214.000
61.06422 187.000
61.08417 192.000
61.10412 194.000
61.12406 216.000
61.14401 225.000
61.16396 199.000
61.18390 235.000
61.20385 248.000
61.22380 238.000
61.24374 238.000
61.26369 248.000
61.28364 234.000
61.30359 255.000
61.32353 249.000
61.34348 250.000
61.36343 250.000
61.38337 283.000
61.40332 285.000
61.42327 293.000
61.44321 270.000
61.46316 264.000
61.48311 301.000
61.50306 328.000
61.52300 338.000
61.54295 283.000
61.56290 315.000
61.58284 329.000
61.60279 310.000
61.62274 286.000
61.64268 278.000
61.66263 286.000
61.68258 269.000
61.70252 291.000
61.72247 237.000
61.74242 270.000
61.76237 248.000
61.78231 217.000
61.80226 223.000
61.82221 191.000
61.84215 224.000
61.86210 214.000
61.88205 189.000
61.90199 181.000
61.92194 213.000
61.94189 198.000
61.96184 185.000
61.98178 222.000
62.00173 180.000
62.02168 221.000
62.04162 200.000
62.06157 198.000
62.08152 196.000
62.10146 192.000
62.12141 206.000
62.14136 223.000
62.16131 204.000
62.18125 212.000
62.20120 205.000
62.22115 208.000
62.24109 218.000
62.26104 253.000
62.28099 218.000
62.30093 225.000
62.32088 244.000
62.34083 235.000
62.36077 211.000
62.38072 207.000
62.40067 186.000
62.42062 216.000
62.44056 212.000
62.46051 210.000
62.48046 222.000
62.50040 189.000
62.52035 213.000
62.54030 212.000
62.56024 177.000
62.58019 180.000
62.60014 214.000
62.62009 208.000
62.64003 175.000
62.65998 224.000
62.67993 222.000
62.69987 253.000
62.71982 205.000
62.73977 219.000
62.75971 209.000
62.77966 228.000
62.79961 229.000
62.81955 286.000
62.83950 269.000
62.85945 285.000
62.87940 348.000
62.89934 345.000
62.91929 399.000
62.93924 381.000
62.95918 366.000
62.97913 333.000
62.99908 328.000
63.01902 296.000
63.03897 286.000
63.05892 308.000
63.07887 274.000
63.09881 290.000
63.11876 274.000
63.13871 270.000
63.15865 222.000
63.17860 204.000
63.19855 215.000
63.21849 210.000
63.23844 204.000
63.25839 176.000
63.27833 177.000
63.29828 172.000
63.31823 155.000
63.33818 166.000
63.35812 158.000
63.37807 139.000
63.39802 138.000
63.41796 158.000
63.43791 159.000
63.45786 124.000
63.47780 167.000
63.49775 134.000
63.51770 157.000
63.53765 142.000
63.55759 138.000
63.57754 153.000
63.59749 175.000
63.61743 151.000
63.63738 150.000
63.65733 150.000
63.67727 170.000
63.69722 152.000
63.71717 145.000
63.73712 132.000
63.75706 173.000
63.77701 139.000
63.79696 149.000
63.81690 165.000
63.83685 144.000
63.85680 152.000
63.87674 154.000
63.89669 152.000
63.91664 167.000
63.93658 156.000
63.95653 162.000
63.97648 169.000
63.99643 167.000
64.01637 189.000
64.03632 167.000
64.05627 165.000
64.07621 172.000
64.09616 156.000
64.11611 157.000
64.13605 154.000
64.15600 156.000
64.17595 178.000
64.19590 144.000
64.21584 143.000
64.23579 150.000
64.25574 155.000
64.27568 149.000
64.29563 144.000
64.31558 149.000
64.33552 146.000
64.35547 135.000
64.37542 152.000
64.39536 170.000
64.41531 141.000
64.43526 161.000
64.45521 151.000
64.47515 140.000
64.49510 143.000
64.51505 149.000
64.53499 137.000
64.55494 132.000
64.57489 169.000
64.59483 158.000
64.61478 150.000
64.63473 114.000
64.65468 156.000
64.67462 147.000
64.69457 128.000
64.71452 149.000
64.73446 146.000
64.75441 146.000
64.77436 151.000
64.79430 141.000
64.81425 146.000
64.83420 124.000
64.85414 146.000
64.87409 144.000
64.89404 142.000
64.91399 151.000
64.93393 126.000
64.95388 142.000
64.97383 135.000
64.99377 143.000
65.01372 136.000
65.03367 166.000
65.05361 155.000
65.07356 133.000
65.09351 147.000
65.11346 136.000
65.13340 142.000
65.15335 137.000
65.17330 129.000
65.19324 127.000
65.21319 149.000
65.23314 153.000
65.25308 140.000
65.27303 133.000
65.29298 155.000
65.31293 140.000
65.33287 134.000
65.35282 138.000
65.37277 151.000
65.39271 159.000
65.41266 140.000
65.43261 141.000
65.45255 177.000
65.47250 159.000
65.49245 149.000
65.51239 185.000
65.53234 154.000
65.55229 142.000
65.57224 178.000
65.59218 161.000
65.61213 166.000
65.63208 150.000
65.65202 155.000
65.67197 179.000
65.69192 159.000
65.71186 171.000
65.73181 188.000
65.75176 165.000
65.77171 174.000
65.79165 186.000
65.81160 160.000
65.83155 153.000
65.85149 164.000
65.87144 167.000
65.89139 156.000
65.91133 181.000
65.93128 160.000
65.95123 153.000
65.97117 172.000
65.99112 173.000
66.01107 185.000
66.03102 194.000
66.05096 211.000
66.07091 183.000
66.09086 216.000
66.11080 196.000
66.13075 180.000
66.15070 180.000
66.17064 197.000
66.19059 193.000
66.21054 204.000
66.23049 186.000
66.25043 168.000
66.27038 179.000
66.29033 193.000
66.31027 187.000
66.33022 183.000
66.35017 151.000
66.37011 177.000
66.39006 173.000
66.41001 170.000
66.42995 149.000
66.44990 159.000
66.46985 165.000
66.48980 155.000
66.50974 172.000
66.52969 137.000
66.54964 145.000
66.56958 121.000
66.58953 141.000
66.60948 141.000
66.62942 147.000
66.64937 135.000
66.66932 142.000
66.68927 168.000
66.70921 146.000
66.72916 136.000
66.74911 127.000
66.76905 123.000
66.78900 125.000
66.80895 145.000
66.82889 174.000
66.84884 122.000
66.86879 160.000
66.88874 123.000
66.90868 123.000
66.92863 126.000
66.94858 132.000
66.96852 139.000
66.98847 150.000
67.00842 144.000
67.02836 157.000
67.04831 136.000
67.06826 124.000
67.08820 140.000
67.10815 141.000
67.12810 138.000
67.14805 132.000
67.16799 151.000
67.18794 143.000
67.20789 133.000
67.22783 139.000
67.24778 122.000
67.26773 161.000
67.28767 120.000
67.30762 137.000
67.32757 136.000
67.34752 156.000
67.36746 116.000
67.38741 154.000
67.40736 128.000
67.42730 134.000
67.44725 139.000
67.46720 132.000
67.48714 153.000
67.50709 128.000
67.52704 118.000
67.54698 152.000
67.56693 120.000
67.58688 141.000
67.60683 148.000
67.62677 128.000
67.64672 138.000
67.66667 148.000
67.68661 157.000
67.70656 133.000
67.72651 134.000
67.74645 133.000
67.76640 147.000
67.78635 159.000
67.80630 138.000
67.82624 130.000
67.84619 141.000
67.86614 146.000
67.88608 123.000
67.90603 142.000
67.92598 137.000
67.94592 139.000
67.96587 136.000
67.98582 142.000
68.00576 164.000
68.02571 137.000
68.04566 122.000
68.06561 151.000
68.08555 140.000
68.10550 139.000
68.12545 147.000
68.14539 130.000
68.16534 141.000
68.18529 143.000
68.20523 141.000
68.22518 118.000
68.24513 137.000
68.26508 130.000
68.28502 134.000
68.30497 125.000
68.32492 125.000
68.34486 142.000
68.36481 121.000
68.38476 132.000
68.40470 139.000
68.42465 138.000
68.44460 130.000
68.46455 135.000
68.48449 149.000
68.50444 118.000
68.52439 138.000
68.54433 140.000
68.56428 131.000
68.58423 127.000
68.60417 123.000
68.62412 136.000
68.64407 120.000
68.66401 130.000
68.68396 128.000
68.70391 130.000
68.72386 133.000
68.74380 139.000
68.76375 121.000
68.78370 111.000
68.80364 115.000
68.82359 129.000
68.84354 140.000
68.86348 143.000
68.88343 132.000
68.90338 138.000
68.92333 153.000
68.94327 136.000
68.96322 148.000
68.98317 133.000
69.00311 122.000
69.02306 128.000
69.04301 143.000
69.06295 141.000
69.08290 136.000
69.10285 118.000
69.12279 135.000
69.14274 117.000
69.16269 130.000
69.18264 117.000
69.20258 135.000
69.22253 129.000
69.24248 158.000
69.26242 125.000
69.28237 137.000
69.30232 116.000
69.32226 140.000
69.34221 133.000
69.36216 125.000
69.38211 113.000
69.40205 99.000
69.42200 132.000
69.44195 138.000
69.46189 129.000
69.48184 151.000
69.50179 123.000
69.52173 126.000
69.54168 117.000
69.56163 126.000
69.58157 132.000
69.60152 110.000
69.62147 114.000
69.64142 120.000
69.66136 120.000
69.68131 120.000
69.70126 120.000
69.72120 120.000
69.74115 128.000
69.76110 150.000
69.78104 107.000
69.80099 129.000
69.82094 117.000
69.84089 123.000
69.86083 130.000
69.88078 113.000
69.90073 141.000
69.92067 126.000
69.94062 120.000
69.96057 164.000
69.98051 148.000
70.00046 141.000
70.02041 146.000
70.04035 112.000
70.06030 133.000
70.08025 136.000
70.10020 152.000
70.12014 126.000
70.14009 135.000
70.16004 116.000
70.17998 143.000
70.19993 141.000
70.21988 108.000
70.23982 149.000
70.25977 144.000
70.27972 130.000
70.29967 127.000
70.31961 133.000
70.33956 131.000
70.35951 138.000
70.37945 130.000
70.39940 105.000
70.41935 130.000
70.43929 127.000
70.45924 134.000
70.47919 122.000
70.49914 144.000
70.51908 116.000
70.53903 122.000
70.55898 123.000
70.57892 122.000
70.59887 129.000
70.61882 129.000
70.63876 150.000
70.65871 140.000
70.67866 135.000
70.69860 133.000
70.71855 125.000
70.73850 158.000
70.75845 105.000
70.77839 142.000
70.79834 137.000
70.81829 135.000
70.83823 129.000
70.85818 147.000
70.87813 120.000
70.89807 115.000
70.91802 151.000
70.93797 140.000
70.95792 151.000
70.97786 133.000
70.99781 128.000
71.01776 130.000
71.03770 146.000
71.05765 128.000
71.07760 138.000
71.09754 149.000
71.11749 123.000
71.13744 137.000
71.15738 145.000
71.17733 147.000
71.19728 156.000
71.21723 148.000
71.23717 163.000
71.25712 161.000
71.27707 133.000
71.29701 148.000
71.31696 156.000
71.33691 155.000
71.35685 142.000
71.37680 129.000
71.39675 141.000
71.41670 161.000
71.43664 133.000
71.45659 170.000
71.47654 149.000
71.49648 149.000
71.51643 151.000
71.53638 179.000
71.55632 165.000
71.57627 166.000
71.59622 138.000
71.61616 142.000
71.63611 162.000
71.65606 153.000
71.67601 159.000
71.69595 131.000
71.71590 152.000
71.73585 176.000
71.75579 151.000
71.77574 171.000
71.79569 168.000
71.81563 143.000
71.83558 155.000
71.85553 126.000
71.87548 163.000
71.89542 167.000
71.91537 129.000
71.93532 135.000
71.95526 127.000
71.97521 155.000
71.99516 139.000
72.01510 144.000
72.03505 137.000
72.05500 158.000
72.07495 133.000
72.09489 133.000
72.11484 147.000
72.13479 122.000
72.15473 120.000
72.17468 129.000
72.19463 121.000
72.21457 141.000
72.23452 132.000
72.25447 141.000
72.27441 126.000
72.29436 122.000
72.31431 135.000
72.33426 139.000
72.35420 116.000
72.37415 131.000
72.39410 163.000
72.41404 164.000
72.43399 144.000
72.45394 139.000
72.47388 133.000
72.49383 136.000
72.51378 146.000
72.53373 142.000
72.55367 118.000
72.57362 139.000
72.59357 154.000
72.61351 161.000
72.63346 157.000
72.65341 149.000
72.67335 144.000
72.69330 158.000
72.71325 148.000
72.73319 130.000
72.75314 143.000
72.77309 158.000
72.79304 152.000
72.81298 144.000
72.83293 146.000
72.85288 149.000
72.87282 158.000
72.89277 146.000
72.91272 162.000
72.93266 141.000
72.95261 161.000
72.97256 144.000
72.99251 122.000
73.01245 135.000
73.03240 129.000
73.05235 136.000
73.07229 144.000
73.09224 121.000
73.11219 146.000
73.13213 130.000
73.15208 126.000
73.17203 146.000
73.19197 140.000
73.21192 135.000
73.23187 139.000
73.25182 103.000
73.27176 151.000
73.29171 126.000
73.31166 138.000
73.33160 138.000
73.35155 134.000
73.37150 132.000
73.39144 148.000
73.41139 125.000
73.43134 149.000
73.45129 139.000
73.47123 145.000
73.49118 120.000
73.51113 148.000
73.53107 151.000
73.55102 161.000
73.57097 139.000
73.59091 147.000
73.61086 153.000
73.63081 142.000
73.65076 121.000
73.67070 147.000
73.69065 156.000
73.71060 152.000
73.73054 134.000
73.75049 160.000
73.77044 140.000
73.79038 139.000
73.81033 145.000
73.83028 143.000
73.85022 158.000
73.87017 152.000
73.89012 135.000
73.91007 152.000
73.93001 126.000
73.94996 134.000
73.96991 120.000
73.98985 142.000
74.00980 131.000
74.02975 136.000
74.04969 119.000
74.06964 135.000
74.08959 136.000
74.10954 132.000
74.12948 137.000
74.14943 130.000
74.16938 136.000
74.18932 145.000
74.20927 123.000
74.22922 147.000
74.24916 127.000
74.26911 117.000
74.28906 147.000
74.30900 149.000
74.32895 160.000
74.34890 145.000
74.36885 149.000
74.38879 151.000
74.40874 140.000
74.42869 156.000
74.44863 169.000
74.46858 167.000
74.48853 183.000
74.50847 150.000
74.52842 174.000
74.54837 156.000
74.56832 147.000
74.58826 152.000
74.60821 177.000
74.62816 190.000
74.64810 149.000
74.66805 149.000
74.68800 158.000
74.70794 135.000
74.72789 159.000
74.74784 147.000
74.76778 161.000
74.78773 139.000
74.80768 141.000
74.82763 133.000
74.84757 157.000
74.86752 147.000
74.88747 143.000
74.90741 144.000
74.92736 154.000
74.94731 118.000
74.96725 140.000
74.98720 137.000
75.00715 135.000
75.02710 133.000
75.04704 111.000
75.06699 154.000
75.08694 149.000
75.10688 125.000
75.12683 142.000
75.14678 129.000
75.16672 150.000
75.18667 146.000
75.20662 151.000
75.22657 140.000
75.24651 146.000
75.26646 152.000
75.28641 123.000
75.30635 121.000
75.32630 139.000
75.34625 131.000
75.36619 158.000
75.38614 126.000
75.40609 159.000
75.42603 156.000
75.44598 137.000
75.46593 154.000
75.48588 125.000
75.50582 132.000
75.52577 135.000
75.54572 131.000
75.56566 127.000
75.58561 138.000
75.60556 153.000
75.62550 154.000
75.64545 129.000
75.66540 124.000
75.68535 144.000
75.70529 147.000
75.72524 156.000
75.74519 131.000
75.76513 119.000
75.78508 118.000
75.80503 134.000
75.82497 120.000
75.84492 137.000
75.86487 132.000
75.88481 116.000
75.90476 134.000
75.92471 123.000
75.94466 131.000
75.96460 109.000
75.98455 133.000
76.00450 121.000
76.02444 124.000
76.04439 141.000
76.06434 130.000
76.08428 125.000
76.10423 93.000
76.12418 124.000
76.14413 119.000
76.16407 118.000
76.18402 118.000
76.20397 121.000
76.22391 113.000
76.24386 118.000
76.26381 112.000
76.28375 119.000
76.30370 113.000
76.32365 124.000
76.34359 124.000
76.36354 124.000
76.38349 110.000
76.40344 134.000
76.42338 112.000
76.44333 120.000
76.46328 107.000
76.48322 136.000
76.50317 144.000
76.52312 137.000
76.54306 140.000
76.56301 128.000
76.58296 107.000
76.60291 143.000
76.62285 141.000
76.64280 137.000
76.66275 118.000
76.68269 122.000
76.70264 150.000
76.72259 136.000
76.74253 117.000
76.76248 150.000
76.78243 105.000
76.80238 119.000
76.82232 108.000
76.84227 116.000
76.86222 131.000
76.88216 116.000
76.90211 101.000
76.92206 127.000
76.94200 132.000
76.96195 122.000
76.98190 150.000
77.00184 132.000
77.02179 155.000
77.04174 126.000
77.06169 145.000
77.08163 135.000
77.10158 157.000
77.12153 150.000
77.14147 151.000
77.16142 139.000
77.18137 147.000
77.20131 162.000
77.22126 145.000
77.24121 137.000
77.26116 157.000
77.28110 131.000
77.30105 142.000
77.32100 161.000
77.34094 157.000
77.36089 109.000
77.38084 170.000
77.40078 146.000
77.42073 134.000
77.44068 147.000
77.46062 134.000
77.48057 142.000
77.50052 162.000
77.52047 134.000
77.54041 113.000
77.56036 146.000
77.58031 134.000
77.60025 140.000
77.62020 122.000
77.64015 107.000
77.66009 130.000
77.68004 119.000
77.69999 116.000
77.71994 122.000
77.73988 131.000
77.75983 123.000
77.77978 121.000
77.79972 121.000
77.81967 127.000
77.83962 117.000
77.85956 111.000
77.87951 128.000
77.89946 121.000
77.91940 133.000
77.93935 114.000
77.95930 106.000
77.97925 132.000
77.99919 113.000
78.01914 118.000
78.03909 112.000
78.05903 119.000
78.07898 109.000
78.09893 104.000
78.11887 115.000
78.13882 99.000
78.15877 111.000
78.17872 109.000
78.19866 114.000
78.21861 139.000
78.23856 127.000
78.25850 121.000
78.27845 108.000
78.29840 115.000
78.31834 123.000
78.33829 118.000
78.35824 116.000
78.37819 125.000
78.39813 128.000
78.41808 108.000
78.43803 101.000
78.45797 140.000
78.47792 113.000
78.49787 102.000
78.51781 131.000
78.53776 154.000
78.55771 125.000
78.57765 122.000
78.59760 138.000
78.61755 133.000
78.63750 103.000
78.65744 119.000
78.67739 142.000
78.69734 118.000
78.71728 114.000
78.73723 144.000
78.75718 128.000
78.77712 123.000
78.79707 129.000
78.81702 123.000
78.83697 132.000
78.85691 135.000
78.87686 137.000
78.89681 124.000
78.91675 135.000
78.93670 102.000
78.95665 127.000
78.97659 137.000
78.99654 129.000
79.01649 129.000
79.03643 126.000
79.05638 127.000
79.07633 116.000
79.09628 128.000
79.11622 129.000
79.13617 136.000
79.15612 126.000
79.17606 118.000
79.19601 129.000
79.21596 120.000
79.23590 117.000
79.25585 129.000
79.27580 118.000
79.29575 115.000
79.31569 136.000
79.33564 136.000
79.35559 107.000
79.37553 133.000
79.39548 147.000
79.41543 144.000
79.43537 135.000
79.45532 131.000
79.47527 122.000
79.49521 129.000
79.51516 110.000
79.53511 136.000
79.55506 124.000
79.57500 120.000
79.59495 131.000
79.61490 106.000
79.63484 140.000
79.65479 134.000
79.67474 136.000
79.69468 129.000
79.71463 133.000
79.73458 126.000
79.75453 118.000
79.77447 118.000
79.79442 111.000
79.81437 113.000
79.83431 110.000
79.85426 116.000
79.87421 130.000
79.89415 117.000
79.91410 150.000
79.93405 116.000
79.95399 117.000
79.97394 125.000
79.99389 111.000
80.01384 105.000
80.03378 105.000
80.05373 121.000
80.07368 113.000
80.09362 131.000
80.11357 98.000
80.13352 138.000
80.15346 112.000
80.17341 105.000
80.19336 119.000
80.21331 126.000
80.23325 107.000
80.25320 101.000
80.27315 130.000
80.29309 107.000
80.31304 119.000
80.33299 108.000
80.35293 122.000
80.37288 121.000
80.39283 112.000
80.41278 102.000
80.43272 112.000
80.45267 101.000
80.47262 122.000
80.49256 128.000
80.51251 122.000
80.53246 123.000
80.55240 105.000
80.57235 125.000
80.59230 122.000
80.61224 116.000
80.63219 106.000
80.65214 101.000
80.67209 108.000
80.69203 131.000
80.71198 125.000
80.73193 115.000
80.75187 112.000
80.77182 126.000
80.79177 133.000
80.81171 124.000
80.83166 110.000
80.85161 115.000
80.87156 120.000
80.89150 129.000
80.91145 117.000
80.93140 128.000
80.95134 112.000
80.97129 127.000
80.99124 113.000
81.01118 119.000
81.03113 97.000
81.05108 133.000
81.07102 121.000
81.09097 123.000
81.11092 109.000
81.13087 126.000
81.15081 128.000
81.17076 129.000
81.19071 126.000
81.21065 126.000
81.23060 130.000
81.25055 97.000
81.27049 118.000
81.29044 108.000
81.31039 138.000
81.33034 109.000
81.35028 129.000
81.37023 115.000
81.39018 137.000
81.41012 119.000
81.43007 120.000
81.45002 136.000
81.46996 102.000
81.48991 114.000
81.50986 108.000
81.52980 113.000
81.54975 126.000
81.56970 118.000
81.58965 137.000
81.60959 118.000
81.62954 104.000
81.64949 109.000
81.66943 140.000
81.68938 124.000
81.70933 105.000
81.72927 125.000
81.74922 124.000
81.76917 111.000
81.78912 132.000
81.80906 118.000
81.82901 119.000
81.84896 123.000
81.86890 115.000
81.88885 124.000
81.90880 97.000
81.92874 114.000
81.94869 118.000
81.96864 117.000
81.98859 112.000
82.00853 109.000
82.02848 92.000
82.04843 104.000
82.06837 108.000
82.08832 119.000
82.10827 106.000
82.12821 118.000
82.14816 104.000
82.16811 111.000
82.18805 121.000
82.20800 120.000
82.22795 114.000
82.24790 116.000
82.26784 122.000
82.28779 111.000
82.30774 121.000
82.32768 140.000
82.34763 139.000
82.36758 149.000
82.38752 122.000
82.40747 124.000
82.42742 122.000
82.44737 120.000
82.46731 132.000
82.48726 111.000
82.50721 111.000
82.52715 126.000
82.54710 134.000
82.56705 159.000
82.58699 131.000
82.60694 111.000
82.62689 117.000
82.64683 111.000
82.66678 127.000
82.68673 137.000
82.70668 116.000
82.72662 111.000
82.74657 130.000
82.76652 144.000
82.78646 133.000
82.80641 120.000
82.82636 101.000
82.84630 138.000
82.86625 119.000
82.88620 132.000
82.90615 116.000
82.92609 98.000
82.94604 120.000
82.96599 128.000
82.98593 108.000
83.00588 129.000
83.02583 101.000
83.04577 142.000
83.06572 104.000
83.08567 114.000
83.10561 120.000
83.12556 135.000
83.14551 125.000
83.16546 120.000
83.18540 126.000
83.20535 109.000
83.22530 105.000
83.24524 120.000
83.26519 113.000
83.28514 109.000
83.30508 116.000
83.32503 129.000
83.34498 111.000
83.36493 113.000
83.38487 102.000
83.40482 119.000
83.42477 110.000
83.44471 128.000
83.46466 120.000
83.48461 139.000
83.50455 104.000
83.52450 135.000
83.54445 119.000
83.56440 143.000
83.58434 121.000
83.60429 118.000
83.62424 115.000
83.64418 130.000
83.66413 125.000
83.68408 117.000
83.70402 123.000
83.72397 130.000
83.74392 144.000
83.76386 122.000
83.78381 119.000
83.80376 131.000
83.82371 128.000
83.84365 127.000
83.86360 135.000
83.88355 139.000
83.90349 114.000
83.92344 128.000
83.94339 144.000
83.96333 125.000
83.98328 146.000
84.00323 132.000
84.02318 133.000
84.04312 135.000
84.06307 132.000
84.08302 130.000
84.10296 123.000
84.12291 128.000
84.14286 116.000
84.16280 119.000
84.18275 130.000
84.20270 118.000
84.22264 132.000
84.24259 112.000
84.26254 125.000
84.28249 108.000
84.30243 123.000
84.32238 98.000
84.34233 136.000
84.36227 116.000
84.38222 119.000
84.40217 152.000
84.42211 114.000
84.44206 138.000
84.46201 142.000
84.48196 126.000
84.50190 105.000
84.52185 133.000
84.54180 121.000
84.56174 119.000
84.58169 128.000
84.60164 128.000
84.62158 101.000
84.64153 132.000
84.66148 147.000
84.68142 117.000
84.70137 130.000
84.72132 138.000
84.74127 148.000
84.76121 129.000
84.78116 145.000
84.80111 125.000
84.82105 137.000
84.84100 112.000
84.86095 127.000
84.88089 109.000
84.90084 125.000
84.92079 142.000
84.94074 129.000
84.96068 130.000
84.98063 118.000
85.00058 114.000
85.02052 133.000
85.04047 121.000
85.06042 135.000
85.08036 122.000
85.10031 121.000
85.12026 126.000
85.14021 138.000
85.16015 138.000
85.18010 114.000
85.20005 127.000
85.21999 139.000
85.23994 143.000
85.25989 125.000
85.27983 112.000
85.29978 118.000
85.31973 127.000
85.33967 110.000
85.35962 123.000
85.37957 126.000
85.39952 122.000
85.41946 104.000
85.43941 104.000
85.45936 122.000
85.47930 113.000
85.49925 115.000
85.51920 106.000
85.53914 112.000
85.55909 108.000
85.57904 114.000
85.59899 86.000
85.61893 103.000
85.63888 130.000
85.65883 118.000
85.67877 101.000
85.69872 124.000
85.71867 108.000
85.73861 97.000
85.75856 105.000
85.77851 131.000
85.79845 114.000
85.81840 116.000
85.83835 104.000
85.85830 119.000
85.87824 104.000
85.89819 127.000
85.91814 142.000
85.93808 113.000
85.95803 99.000
85.97798 106.000
85.99792 133.000
86.01787 126.000
86.03782 107.000
86.05777 117.000
86.07771 113.000
86.09766 111.000
86.11761 104.000
86.13755 111.000
86.15750 132.000
86.17745 109.000
86.19739 110.000
86.21734 121.000
86.23729 111.000
86.25723 112.000
86.27718 124.000
86.29713 138.000
86.31708 116.000
86.33702 122.000
86.35697 116.000
86.37692 112.000
86.39686 95.000
86.41681 110.000
86.43676 112.000
86.45670 112.000
86.47665 123.000
86.49660 134.000
86.51655 107.000
86.53649 115.000
86.55644 91.000
86.57639 129.000
86.59633 123.000
86.61628 108.000
86.63623 127.000
86.65617 112.000
86.67612 111.000
86.69607 111.000
86.71602 109.000
86.73596 116.000
86.75591 111.000
86.77586 102.000
86.79580 115.000
86.81575 129.000
86.83570 123.000
86.85564 115.000
86.87559 119.000
86.89554 107.000
86.91548 98.000
86.93543 118.000
86.95538 102.000
86.97533 127.000
86.99527 129.000
87.01522 113.000
87.03517 117.000
87.05511 118.000
87.07506 116.000
87.09501 124.000
87.11495 113.000
87.13490 134.000
87.15485 131.000
87.17480 134.000
87.19474 128.000
87.21469 113.000
87.23464 121.000
87.25458 132.000
87.27453 108.000
87.29448 132.000
87.31442 141.000
87.33437 139.000
87.35432 141.000
87.37426 130.000
87.39421 124.000
87.41416 140.000
87.43411 119.000
87.45405 137.000
87.47400 126.000
87.49395 112.000
87.51389 117.000
87.53384 120.000
87.55379 126.000
87.57373 142.000
87.59368 103.000
87.61363 124.000
87.63358 106.000
87.65352 125.000
87.67347 133.000
87.69342 126.000
87.71336 134.000
87.73331 127.000
87.75326 122.000
87.77320 109.000
87.79315 127.000
87.81310 117.000
87.83304 126.000
87.85299 120.000
87.87294 111.000
87.89289 132.000
87.91283 96.000
87.93278 112.000
87.95273 117.000
87.97267 100.000
87.99262 128.000
88.01257 116.000
88.03251 94.000
88.05246 120.000
88.07241 118.000
88.09236 126.000
88.11230 129.000
88.13225 121.000
88.15220 116.000
88.17214 136.000
88.19209 115.000
88.21204 112.000
88.23198 125.000
88.25193 131.000
88.27188 104.000
88.29183 116.000
88.31177 124.000
88.33172 112.000
88.35167 118.000
88.37161 114.000
88.39156 117.000
88.41151 129.000
88.43145 127.000
88.45140 130.000
88.47135 112.000
88.49129 110.000
88.51124 104.000
88.53119 113.000
88.55114 99.000
88.57108 106.000
88.59103 108.000
88.61098 129.000
88.63092 116.000
88.65087 102.000
88.67082 121.000
88.69076 135.000
88.71071 123.000
88.73066 119.000
88.75061 98.000
88.77055 116.000
88.79050 111.000
88.81045 113.000
88.83039 101.000
88.85034 109.000
88.87029 116.000
88.89023 125.000
88.91018 120.000
88.93013 121.000
88.95007 121.000
88.97002 104.000
88.98997 125.000
89.00992 105.000
89.02986 126.000
89.04981 119.000
89.06976 132.000
89.08970 112.000
89.10965 117.000
89.12960 111.000
89.14954 110.000
89.16949 124.000
89.18944 120.000
89.20939 123.000
89.22933 92.000
89.24928 99.000
89.26923 102.000
89.28917 136.000
89.30912 103.000
89.32907 105.000
89.34901 110.000
89.36896 116.000
89.38891 116.000
89.40885 121.000
89.42880 104.000
89.44875 128.000
89.46870 115.000
89.48864 111.000
89.50859 114.000
89.52854 126.000
89.54848 115.000
89.56843 120.000
89.58838 117.000
89.60832 104.000
89.62827 112.000
89.64822 114.000
89.66817 110.000
89.68811 114.000
89.70806 120.000
89.72801 124.000
89.74795 166.000
89.76790 141.000
89.78785 109.000
89.80779 122.000
89.82774 126.000
89.84769 120.000
89.86764 128.000
89.88758 127.000
89.90753 132.000
89.92748 130.000
89.94742 107.000
89.96737 131.000
89.98732 126.000
90.00726 113.000
