10.00000 208.000
10.01995 250.000
10.03989 222.000
10.05984 245.000
10.07979 227.000
10.09973 248.000
10.11968 215.000
10.13963 230.000
10.15958 261.000
10.17952 223.000
10.19947 238.000
10.21942 221.000
10.23936 236.000
10.25931 255.000
10.27926 220.000
10.29920 213.000
10.31915 228.000
10.33910 244.000
10.35905 237.000
10.37899 243.000
10.39894 198.000
10.41889 253.000
10.43883 243.000
10.45878 232.000
10.47873 260.000
10.49867 232.000
10.51862 229.000
10.53857 238.000
10.55851 251.000
10.57846 222.000
10.59841 236.000
10.61836 246.000
10.63830 210.000
10.65825 231.000
10.67820 238.000
10.69814 247.000
10.71809 207.000
10.73804 243.000
10.75798 218.000
10.77793 246.000
10.79788 241.000
10.81783 240.000
10.83777 227.000
10.85772 251.000
10.87767 213.000
10.89761 248.000
10.91756 276.000
10.93751 227.000
10.95745 255.000
10.97740 263.000
10.99735 254.000
11.01730 236.000
11.03724 237.000
11.05719 251.000
11.07714 218.000
11.09708 227.000
11.11703 246.000
11.13698 225.000
11.15692 256.000
11.17687 242.000
11.19682 207.000
11.21676 253.000
11.23671 244.000
11.25666 240.000
11.27661 242.000
11.29655 244.000
11.31650 223.000
11.33645 226.000
11.35639 248.000
11.37634 234.000
11.39629 250.000
11.41623 243.000
11.43618 217.000
11.45613 232.000
11.47608 238.000
11.49602 238.000
11.51597 247.000
11.53592 228.000
11.55586 254.000
11.57581 224.000
11.59576 250.000
11.61570 247.000
11.63565 258.000
11.65560 249.000
11.67554 251.000
11.69549 246.000
11.71544 223.000
11.73539 218.000
11.75533 219.000
11.77528 208.000
11.79523 266.000
11.81517 231.000
11.83512 232.000
11.85507 247.000
11.87501 204.000
11.89496 254.000
11.91491 231.000
11.93486 226.000
11.95480 225.000
11.97475 257.000
11.99470 223.000
12.01464 247.000
12.03459 248.000
12.05454 256.000
12.07448 249.000
12.09443 215.000
12.11438 233.000
12.13432 229.000
12.15427 249.000
12.17422 236.000
12.19417 213.000
12.21411 248.000
12.23406 230.000
12.25401 253.000
12.27395 241.000
12.29390 266.000
12.31385 260.000
12.33379 240.000
12.35374 233.000
12.37369 230.000
12.39364 236.000
12.41358 215.000
12.43353 242.000
12.45348 281.000
12.47342 245.000
12.49337 228.000
12.51332 245.000
12.53326 223.000
12.55321 222.000
12.57316 217.000
12.59311 220.000
12.61305 206.000
12.63300 272.000
12.65295 243.000
12.67289 241.000
12.69284 258.000
12.71279 226.000
12.73273 245.000
12.75268 254.000
12.77263 240.000
12.79257 245.000
12.81252 207.000
12.83247 238.000
12.85242 247.000
12.87236 225.000
12.89231 231.000
12.91226 269.000
12.93220 250.000
12.95215 248.000
12.97210 235.000
12.99204 227.000
13.01199 228.000
13.03194 232.000
13.05189 242.000
13.07183 231.000
13.09178 257.000
13.11173 246.000
13.13167 257.000
13.15162 254.000
13.17157 242.000
13.19151 269.000
13.21146 278.000
13.23141 240.000
13.25135 235.000
13.27130 244.000
13.29125 258.000
13.31120 252.000
13.33114 272.000
13.35109 245.000
13.37104 240.000
13.39098 255.000
13.41093 231.000
13.43088 248.000
13.45082 271.000
13.47077 267.000
13.49072 265.000
13.51067 256.000
13.53061 262.000
13.55056 247.000
13.57051 238.000
13.59045 232.000
13.61040 257.000
13.63035 270.000
13.65029 249.000
13.67024 248.000
13.69019 212.000
13.71013 227.000
13.73008 226.000
13.75003 271.000
13.76998 250.000
13.78992 237.000
13.80987 240.000
13.82982 261.000
13.84976 231.000
13.86971 257.000
13.88966 228.000
13.90960 255.000
13.92955 283.000
13.94950 231.000
13.96945 260.000
13.98939 290.000
14.00934 275.000
14.02929 255.000
14.04923 273.000
14.06918 227.000
14.08913 258.000
14.10907 246.000
14.12902 254.000
14.14897 251.000
14.16892 233.000
14.18886 245.000
14.20881 257.000
14.22876 259.000
14.24870 258.000
14.26865 269.000
14.28860 260.000
14.30854 259.000
14.32849 280.000
14.34844 249.000
14.36838 246.000
14.38833 284.000
14.40828 278.000
14.42823 286.000
14.44817 295.000
14.46812 293.000
14.48807 287.000
14.50801 282.000
14.52796 243.000
14.54791 253.000
14.56785 270.000
14.58780 253.000
14.60775 257.000
14.62770 235.000
14.64764 257.000
14.66759 219.000
14.68754 201.000
14.70748 257.000
14.72743 269.000
14.74738 279.000
14.76732 290.000
14.78727 289.000
14.80722 267.000
14.82716 284.000
14.84711 286.000
14.86706 265.000
14.88701 252.000
14.90695 245.000
14.92690 276.000
14.94685 276.000
14.96679 317.000
14.98674 262.000
15.00669 314.000
15.02663 296.000
15.04658 310.000
15.06653 322.000
15.08648 287.000
15.10642 295.000
15.12637 319.000
15.14632 301.000
15.16626 309.000
15.18621 326.000
15.20616 330.000
15.22610 305.000
15.24605 327.000
15.26600 374.000
15.28594 333.000
15.30589 353.000
15.32584 383.000
15.34579 388.000
15.36573 352.000
15.38568 359.000
15.40563 371.000
15.42557 401.000
15.44552 404.000
15.46547 422.000
15.48541 420.000
15.50536 476.000
15.52531 459.000
15.54526 491.000
15.56520 524.000
15.58515 540.000
15.60510 541.000
15.62504 604.000
15.64499 665.000
15.66494 723.000
15.68488 849.000
15.70483 958.000
15.72478 1247.000
15.74472 1689.000
15.76467 2339.000
15.78462 3468.000
15.80457 5123.000
15.82451 6950.000
15.84446 7486.000
15.86441 6385.000
15.88435 4711.000
15.90430 2824.000
15.92425 1700.000
15.94419 1174.000
15.96414 860.000
15.98409 717.000
16.00404 602.000
16.02398 575.000
16.04393 549.000
16.06388 497.000
16.08382 464.000
16.10377 468.000
16.12372 399.000
16.14366 396.000
16.16361 408.000
16.18356 370.000
16.20351 406.000
16.22345 385.000
16.24340 354.000
16.26335 321.000
16.28329 358.000
16.30324 346.000
16.32319 336.000
16.34313 334.000
16.36308 310.000
16.38303 320.000
16.40297 334.000
16.42292 329.000
16.44287 303.000
16.46282 310.000
16.48276 335.000
16.50271 312.000
16.52266 297.000
16.54260 284.000
16.56255 275.000
16.58250 272.000
16.60244 301.000
16.62239 289.000
16.64234 325.000
16.66229 292.000
16.68223 282.000
16.70218 325.000
16.72213 266.000
16.74207 264.000
16.76202 295.000
16.78197 269.000
16.80191 264.000
16.82186 250.000
16.84181 274.000
16.86175 253.000
16.88170 264.000
16.90165 255.000
16.92160 260.000
16.94154 245.000
16.96149 271.000
16.98144 271.000
17.00138 265.000
17.02133 260.000
17.04128 275.000
17.06122 254.000
17.08117 251.000
17.10112 259.000
17.12107 274.000
17.14101 254.000
17.16096 236.000
17.18091 241.000
17.20085 255.000
17.22080 215.000
17.24075 236.000
17.26069 279.000
17.28064 260.000
17.30059 230.000
17.32053 249.000
17.34048 239.000
17.36043 252.000
17.38038 268.000
17.40032 248.000
17.42027 262.000
17.44022 253.000
17.46016 264.000
17.48011 269.000
17.50006 248.000
17.52000 242.000
17.53995 240.000
17.55990 241.000
17.57985 251.000
17.59979 218.000
17.61974 264.000
17.63969 251.000
17.65963 273.000
17.67958 248.000
17.69953 227.000
17.71947 227.000
17.73942 216.000
17.75937 267.000
17.77932 252.000
17.79926 267.000
17.81921 235.000
17.83916 239.000
17.85910 248.000
17.87905 258.000
17.89900 194.000
17.91894 222.000
17.93889 250.000
17.95884 258.000
17.97878 254.000
17.99873 233.000
18.01868 264.000
18.03863 282.000
18.05857 263.000
18.07852 229.000
18.09847 240.000
18.11841 254.000
18.13836 251.000
18.15831 279.000
18.17825 251.000
18.19820 253.000
18.21815 266.000
18.23810 248.000
18.25804 252.000
18.27799 266.000
18.29794 285.000
18.31788 262.000
18.33783 284.000
18.35778 330.000
18.37772 349.000
18.39767 464.000
18.41762 545.000
18.43756 491.000
18.45751 560.000
18.47746 511.000
18.49741 452.000
18.51735 356.000
18.53730 298.000
18.55725 289.000
18.57719 265.000
18.59714 295.000
18.61709 270.000
18.63703 265.000
18.65698 246.000
18.67693 257.000
18.69688 257.000
18.71682 247.000
18.73677 222.000
18.75672 227.000
18.77666 260.000
18.79661 240.000
18.81656 234.000
18.83650 228.000
18.85645 244.000
18.87640 228.000
18.89634 244.000
18.91629 241.000
18.93624 266.000
18.95619 257.000
18.97613 233.000
18.99608 255.000
19.01603 232.000
19.03597 246.000
19.05592 261.000
19.07587 246.000
19.09581 227.000
19.11576 257.000
19.13571 226.000
19.15566 221.000
19.17560 235.000
19.19555 263.000
19.21550 226.000
19.23544 258.000
19.25539 261.000
19.27534 206.000
19.29528 239.000
19.31523 242.000
19.33518 259.000
19.35513 219.000
19.37507 180.000
19.39502 247.000
19.41497 251.000
19.43491 236.000
19.45486 253.000
19.47481 230.000
19.49475 220.000
19.51470 259.000
19.53465 246.000
19.55459 229.000
19.57454 245.000
19.59449 245.000
19.61444 245.000
19.63438 242.000
19.65433 213.000
19.67428 225.000
19.69422 233.000
19.71417 246.000
19.73412 240.000
19.75406 233.000
19.77401 230.000
19.79396 230.000
19.81391 252.000
19.83385 241.000
19.85380 265.000
19.87375 234.000
19.89369 231.000
19.91364 263.000
19.93359 235.000
19.95353 239.000
19.97348 252.000
19.99343 227.000
20.01337 197.000
20.03332 222.000
20.05327 250.000
20.07322 235.000
20.09316 225.000
20.11311 256.000
20.13306 249.000
20.15300 247.000
20.17295 247.000
20.19290 232.000
20.21284 191.000
20.23279 225.000
20.25274 235.000
20.27269 269.000
20.29263 222.000
20.31258 226.000
20.33253 223.000
20.35247 256.000
20.37242 266.000
20.39237 233.000
20.41231 214.000
20.43226 235.000
20.45221 262.000
20.47215 230.000
20.49210 237.000
20.51205 236.000
20.53200 237.000
20.55194 225.000
20.57189 240.000
20.59184 247.000
20.61178 260.000
20.63173 228.000
20.65168 228.000
20.67162 219.000
20.69157 237.000
20.71152 251.000
20.73147 247.000
20.75141 238.000
20.77136 244.000
20.79131 255.000
20.81125 221.000
20.83120 255.000
20.85115 233.000
20.87109 223.000
20.89104 248.000
20.91099 265.000
20.93094 226.000
20.95088 259.000
20.97083 267.000
20.99078 250.000
21.01072 246.000
21.03067 246.000
21.05062 248.000
21.07056 246.000
21.09051 226.000
21.11046 284.000
21.13040 310.000
21.15035 276.000
21.17030 298.000
21.19025 246.000
21.21019 279.000
21.23014 260.000
21.25009 227.000
21.27003 240.000
21.28998 240.000
21.30993 229.000
21.32987 230.000
21.34982 221.000
21.36977 243.000
21.38972 260.000
21.40966 222.000
21.42961 205.000
21.44956 206.000
21.46950 257.000
21.48945 257.000
21.50940 235.000
21.52934 270.000
21.54929 269.000
21.56924 226.000
21.58918 237.000
21.60913 235.000
21.62908 247.000
21.64903 261.000
21.66897 273.000
21.68892 238.000
21.70887 224.000
21.72881 240.000
21.74876 235.000
21.76871 276.000
21.78865 265.000
21.80860 251.000
21.82855 277.000
21.84850 236.000
21.86844 216.000
21.88839 242.000
21.90834 243.000
21.92828 239.000
21.94823 245.000
21.96818 235.000
21.98812 240.000
22.00807 248.000
22.02802 238.000
22.04796 240.000
22.06791 273.000
22.08786 256.000
22.10781 224.000
22.12775 249.000
22.14770 251.000
22.16765 222.000
22.18759 235.000
22.20754 246.000
22.22749 229.000
22.24743 271.000
22.26738 225.000
22.28733 252.000
22.30728 222.000
22.32722 246.000
22.34717 246.000
22.36712 235.000
22.38706 258.000
22.40701 243.000
22.42696 235.000
22.44690 209.000
22.46685 237.000
22.48680 233.000
22.50675 234.000
22.52669 278.000
22.54664 229.000
22.56659 250.000
22.58653 236.000
22.60648 244.000
22.62643 263.000
22.64637 255.000
22.66632 251.000
22.68627 226.000
22.70621 237.000
22.72616 255.000
22.74611 252.000
22.76606 233.000
22.78600 257.000
22.80595 248.000
22.82590 232.000
22.84584 222.000
22.86579 260.000
22.88574 240.000
22.90568 242.000
22.92563 258.000
22.94558 278.000
22.96553 248.000
22.98547 232.000
23.00542 234.000
23.02537 264.000
23.04531 239.000
23.06526 231.000
23.08521 230.000
23.10515 258.000
23.12510 242.000
23.14505 248.000
23.16499 239.000
23.18494 247.000
23.20489 227.000
23.22484 263.000
23.24478 246.000
23.26473 246.000
23.28468 227.000
23.30462 246.000
23.32457 236.000
23.34452 262.000
23.36446 220.000
23.38441 253.000
23.40436 247.000
23.42431 223.000
23.44425 242.000
23.46420 241.000
23.48415 254.000
23.50409 252.000
23.52404 244.000
23.54399 225.000
23.56393 260.000
23.58388 277.000
23.60383 228.000
23.62377 247.000
23.64372 241.000
23.66367 256.000
23.68362 212.000
23.70356 257.000
23.72351 236.000
23.74346 233.000
23.76340 246.000
23.78335 248.000
23.80330 224.000
23.82324 237.000
23.84319 239.000
23.86314 251.000
23.88309 218.000
23.90303 249.000
23.92298 242.000
23.94293 260.000
23.96287 246.000
23.98282 240.000
24.00277 234.000
24.02271 246.000
24.04266 247.000
24.06261 247.000
24.08256 219.000
24.10250 236.000
24.12245 225.000
24.14240 268.000
24.16234 229.000
24.18229 220.000
24.20224 224.000
24.22218 228.000
24.24213 254.000
24.26208 259.000
24.28202 233.000
24.30197 256.000
24.32192 265.000
24.34187 254.000
24.36181 210.000
24.38176 223.000
24.40171 261.000
24.42165 261.000
24.44160 236.000
24.46155 233.000
24.48149 248.000
24.50144 230.000
24.52139 259.000
24.54134 239.000
24.56128 263.000
24.58123 262.000
24.60118 254.000
24.62112 232.000
24.64107 240.000
24.66102 238.000
24.68096 235.000
24.70091 259.000
24.72086 276.000
24.74080 250.000
24.76075 225.000
24.78070 232.000
24.80065 245.000
24.82059 246.000
24.84054 249.000
24.86049 249.000
24.88043 241.000
24.90038 215.000
24.92033 244.000
24.94027 238.000
24.96022 198.000
24.98017 233.000
25.00012 266.000
25.02006 272.000
25.04001 286.000
25.05996 278.000
25.07990 226.000
25.09985 265.000
25.11980 260.000
25.13974 255.000
25.15969 236.000
25.17964 244.000
25.19958 268.000
25.21953 266.000
25.23948 230.000
25.25943 251.000
25.27937 245.000
25.29932 249.000
25.31927 210.000
25.33921 248.000
25.35916 265.000
25.37911 256.000
25.39905 259.000
25.41900 228.000
25.43895 255.000
25.45890 268.000
25.47884 259.000
25.49879 244.000
25.51874 231.000
25.53868 259.000
25.55863 243.000
25.57858 222.000
25.59852 250.000
25.61847 242.000
25.63842 237.000
25.65837 231.000
25.67831 275.000
25.69826 223.000
25.71821 262.000
25.73815 259.000
25.75810 248.000
25.77805 238.000
25.79799 267.000
25.81794 238.000
25.83789 272.000
25.85783 269.000
25.87778 236.000
25.89773 251.000
25.91768 292.000
25.93762 287.000
25.95757 242.000
25.97752 251.000
25.99746 216.000
26.01741 258.000
26.03736 265.000
26.05730 220.000
26.07725 236.000
26.09720 273.000
26.11715 244.000
26.13709 257.000
26.15704 256.000
26.17699 257.000
26.19693 254.000
26.21688 264.000
26.23683 224.000
26.25677 263.000
26.27672 233.000
26.29667 271.000
26.31661 242.000
26.33656 266.000
26.35651 256.000
26.37646 258.000
26.39640 253.000
26.41635 231.000
26.43630 272.000
26.45624 247.000
26.47619 261.000
26.49614 260.000
26.51608 265.000
26.53603 272.000
26.55598 254.000
26.57593 249.000
26.59587 256.000
26.61582 256.000
26.63577 271.000
26.65571 244.000
26.67566 256.000
26.69561 274.000
26.71555 250.000
26.73550 273.000
26.75545 262.000
26.77539 256.000
26.79534 252.000
26.81529 268.000
26.83524 258.000
26.85518 280.000
26.87513 219.000
26.89508 267.000
26.91502 265.000
26.93497 244.000
26.95492 236.000
26.97486 240.000
26.99481 268.000
27.01476 250.000
27.03471 261.000
27.05465 228.000
27.07460 266.000
27.09455 268.000
27.11449 244.000
27.13444 261.000
27.15439 272.000
27.17433 230.000
27.19428 261.000
27.21423 228.000
27.23417 252.000
27.25412 257.000
27.27407 260.000
27.29402 261.000
27.31396 236.000
27.33391 248.000
27.35386 252.000
27.37380 233.000
27.39375 271.000
27.41370 260.000
27.43364 272.000
27.45359 260.000
27.47354 263.000
27.49349 237.000
27.51343 269.000
27.53338 268.000
27.55333 279.000
27.57327 260.000
27.59322 249.000
27.61317 264.000
27.63311 235.000
27.65306 270.000
27.67301 270.000
27.69296 275.000
27.71290 278.000
27.73285 222.000
27.75280 270.000
27.77274 265.000
27.79269 266.000
27.81264 298.000
27.83258 256.000
27.85253 284.000
27.87248 258.000
27.89242 246.000
27.91237 259.000
27.93232 260.000
27.95227 230.000
27.97221 260.000
27.99216 251.000
28.01211 264.000
28.03205 257.000
28.05200 256.000
28.07195 306.000
28.09189 266.000
28.11184 255.000
28.13179 285.000
28.15174 235.000
28.17168 261.000
28.19163 234.000
28.21158 261.000
28.23152 244.000
28.25147 267.000
28.27142 221.000
28.29136 259.000
28.31131 269.000
28.33126 285.000
28.35120 270.000
28.37115 272.000
28.39110 276.000
28.41105 244.000
28.43099 281.000
28.45094 252.000
28.47089 293.000
28.49083 248.000
28.51078 265.000
28.53073 259.000
28.55067 245.000
28.57062 250.000
28.59057 267.000
28.61052 272.000
28.63046 283.000
28.65041 268.000
28.67036 255.000
28.69030 261.000
28.71025 244.000
28.73020 273.000
28.75014 260.000
28.77009 254.000
28.79004 252.000
28.80998 286.000
28.82993 273.000
28.84988 253.000
28.86983 274.000
28.88977 245.000
28.90972 246.000
28.92967 262.000
28.94961 238.000
28.96956 245.000
28.98951 269.000
29.00945 242.000
29.02940 245.000
29.04935 272.000
29.06930 244.000
29.08924 267.000
29.10919 262.000
29.12914 262.000
29.14908 247.000
29.16903 235.000
29.18898 238.000
29.20892 258.000
29.22887 271.000
29.24882 237.000
29.26877 277.000
29.28871 242.000
29.30866 263.000
29.32861 284.000
29.34855 276.000
29.36850 240.000
29.38845 270.000
29.40839 255.000
29.42834 266.000
29.44829 260.000
29.46823 277.000
29.48818 272.000
29.50813 253.000
29.52808 254.000
29.54802 256.000
29.56797 269.000
29.58792 242.000
29.60786 254.000
29.62781 257.000
29.64776 246.000
29.66770 232.000
29.68765 273.000
29.70760 269.000
29.72755 244.000
29.74749 264.000
29.76744 275.000
29.78739 266.000
29.80733 286.000
29.82728 273.000
29.84723 286.000
29.86717 236.000
29.88712 274.000
29.90707 295.000
29.92701 264.000
29.94696 270.000
29.96691 292.000
29.98686 292.000
30.00680 275.000
30.02675 276.000
30.04670 283.000
30.06664 280.000
30.08659 276.000
30.10654 256.000
30.12648 304.000
30.14643 279.000
30.16638 284.000
30.18633 345.000
30.20627 394.000
30.22622 378.000
30.24617 524.000
30.26611 644.000
30.28606 672.000
30.30601 742.000
30.32595 828.000
30.34590 754.000
30.36585 770.000
30.38579 694.000
30.40574 648.000
30.42569 560.000
30.44564 522.000
30.46558 408.000
30.48553 435.000
30.50548 367.000
30.52542 308.000
30.54537 325.000
30.56532 278.000
30.58526 320.000
30.60521 301.000
30.62516 288.000
30.64511 257.000
30.66505 281.000
30.68500 248.000
30.70495 263.000
30.72489 262.000
30.74484 260.000
30.76479 288.000
30.78473 259.000
30.80468 271.000
30.82463 278.000
30.84458 261.000
30.86452 270.000
30.88447 304.000
30.90442 250.000
30.92436 246.000
30.94431 257.000
30.96426 267.000
30.98420 298.000
31.00415 292.000
31.02410 294.000
31.04404 271.000
31.06399 254.000
31.08394 245.000
31.10389 253.000
31.12383 244.000
31.14378 285.000
31.16373 260.000
31.18367 266.000
31.20362 267.000
31.22357 250.000
31.24351 255.000
31.26346 260.000
31.28341 296.000
31.30336 292.000
31.32330 278.000
31.34325 295.000
31.36320 268.000
31.38314 262.000
31.40309 273.000
31.42304 273.000
31.44298 274.000
31.46293 297.000
31.48288 306.000
31.50282 282.000
31.52277 296.000
31.54272 272.000
31.56267 294.000
31.58261 283.000
31.60256 283.000
31.62251 287.000
31.64245 334.000
31.66240 288.000
31.68235 272.000
31.70229 294.000
31.72224 309.000
31.74219 294.000
31.76214 294.000
31.78208 336.000
31.80203 347.000
31.82198 363.000
31.84192 318.000
31.86187 371.000
31.88182 442.000
31.90176 455.000
31.92171 512.000
31.94166 609.000
31.96160 775.000
31.98155 813.000
32.00150 697.000
32.02145 731.000
32.04139 674.000
32.06134 613.000
32.08129 547.000
32.10123 487.000
32.12118 419.000
32.14113 373.000
32.16107 339.000
32.18102 300.000
32.20097 303.000
32.22092 300.000
32.24086 315.000
32.26081 297.000
32.28076 311.000
32.30070 279.000
32.32065 279.000
32.34060 333.000
32.36054 294.000
32.38049 269.000
32.40044 333.000
32.42039 276.000
32.44033 295.000
32.46028 314.000
32.48023 334.000
32.50017 323.000
32.52012 288.000
32.54007 341.000
32.56001 358.000
32.57996 354.000
32.59991 317.000
32.61985 316.000
32.63980 307.000
32.65975 311.000
32.67970 270.000
32.69964 283.000
32.71959 274.000
32.73954 266.000
32.75948 283.000
32.77943 282.000
32.79938 303.000
32.81932 303.000
32.83927 236.000
32.85922 259.000
32.87917 262.000
32.89911 273.000
32.91906 279.000
32.93901 259.000
32.95895 269.000
32.97890 257.000
32.99885 250.000
33.01879 262.000
33.03874 263.000
33.05869 251.000
33.07863 259.000
33.09858 272.000
33.11853 284.000
33.13848 297.000
33.15842 267.000
33.17837 242.000
33.19832 230.000
33.21826 281.000
33.23821 265.000
33.25816 262.000
33.27810 279.000
33.29805 255.000
33.31800 262.000
33.33795 242.000
33.35789 275.000
33.37784 275.000
33.39779 291.000
33.41773 282.000
33.43768 273.000
33.45763 238.000
33.47757 255.000
33.49752 265.000
33.51747 279.000
33.53741 267.000
33.55736 257.000
33.57731 278.000
33.59726 271.000
33.61720 261.000
33.63715 266.000
33.65710 282.000
33.67704 277.000
33.69699 275.000
33.71694 269.000
33.73688 240.000
33.75683 276.000
33.77678 260.000
33.79673 264.000
33.81667 262.000
33.83662 260.000
33.85657 255.000
33.87651 269.000
33.89646 245.000
33.91641 293.000
33.93635 241.000
33.95630 265.000
33.97625 259.000
33.99620 285.000
34.01614 248.000
34.03609 265.000
34.05604 268.000
34.07598 257.000
34.09593 285.000
34.11588 271.000
34.13582 274.000
34.15577 278.000
34.17572 263.000
34.19566 252.000
34.21561 248.000
34.23556 262.000
34.25551 308.000
34.27545 270.000
34.29540 264.000
34.31535 262.000
34.33529 253.000
34.35524 268.000
34.37519 279.000
34.39513 291.000
34.41508 286.000
34.43503 290.000
34.45498 278.000
34.47492 284.000
34.49487 277.000
34.51482 306.000
34.53476 319.000
34.55471 279.000
34.57466 285.000
34.59460 288.000
34.61455 275.000
34.63450 263.000
34.65444 294.000
34.67439 302.000
34.69434 288.000
34.71429 294.000
34.73423 321.000
34.75418 293.000
34.77413 310.000
34.79407 305.000
34.81402 296.000
34.83397 314.000
34.85391 296.000
34.87386 339.000
34.89381 341.000
34.91376 325.000
34.93370 298.000
34.95365 337.000
34.97360 313.000
34.99354 320.000
35.01349 323.000
35.03344 331.000
35.05338 335.000
35.07333 332.000
35.09328 368.000
35.11322 385.000
35.13317 346.000
35.15312 339.000
35.17307 369.000
35.19301 361.000
35.21296 386.000
35.23291 419.000
35.25285 441.000
35.27280 461.000
35.29275 482.000
35.31269 557.000
35.33264 572.000
35.35259 549.000
35.37254 698.000
35.39248 780.000
35.41243 777.000
35.43238 960.000
35.45232 978.000
35.47227 1011.000
35.49222 1084.000
35.51216 1124.000
35.53211 1223.000
35.55206 1266.000
35.57201 1316.000
35.59195 1375.000
35.61190 1590.000
35.63185 1766.000
35.65179 1994.000
35.67174 2043.000
35.69169 2036.000
35.71163 2130.000
35.73158 2276.000
35.75153 2199.000
35.77147 2156.000
35.79142 2029.000
35.81137 1924.000
35.83132 1714.000
35.85126 1625.000
35.87121 1432.000
35.89116 1214.000
35.91110 1080.000
35.93105 1006.000
35.95100 886.000
35.97094 762.000
35.99089 646.000
36.01084 561.000
36.03079 461.000
36.05073 484.000
36.07068 450.000
36.09063 424.000
36.11057 381.000
36.13052 358.000
36.15047 379.000
36.17041 376.000
36.19036 350.000
36.21031 392.000
36.23025 334.000
36.25020 340.000
36.27015 375.000
36.29010 313.000
36.31004 333.000
36.32999 362.000
36.34994 330.000
36.36988 297.000
36.38983 299.000
36.40978 303.000
36.42972 285.000
36.44967 310.000
36.46962 324.000
36.48957 330.000
36.50951 314.000
36.52946 331.000
36.54941 333.000
36.56935 331.000
36.58930 335.000
36.60925 308.000
36.62919 350.000
36.64914 316.000
36.66909 336.000
36.68903 343.000
36.70898 344.000
36.72893 355.000
36.74888 343.000
36.76882 346.000
36.78877 369.000
36.80872 388.000
36.82866 357.000
36.84861 366.000
36.86856 384.000
36.88850 397.000
36.90845 408.000
36.92840 343.000
36.94835 384.000
36.96829 422.000
36.98824 411.000
37.00819 453.000
37.02813 480.000
37.04808 606.000
37.06803 771.000
37.08797 876.000
37.10792 1151.000
37.12787 1218.000
37.14781 1309.000
37.16776 1270.000
37.18771 1188.000
37.20766 1098.000
37.22760 1010.000
37.24755 975.000
37.26750 865.000
37.28744 812.000
37.30739 672.000
37.32734 588.000
37.34728 593.000
37.36723 537.000
37.38718 515.000
37.40713 474.000
37.42707 497.000
37.44702 416.000
37.46697 452.000
37.48691 426.000
37.50686 424.000
37.52681 348.000
37.54675 352.000
37.56670 359.000
37.58665 326.000
37.60660 329.000
37.62654 333.000
37.64649 311.000
37.66644 292.000
37.68638 335.000
37.70633 346.000
37.72628 325.000
37.74622 320.000
37.76617 321.000
37.78612 293.000
37.80606 299.000
37.82601 293.000
37.84596 338.000
37.86591 321.000
37.88585 309.000
37.90580 312.000
37.92575 337.000
37.94569 315.000
37.96564 326.000
37.98559 291.000
38.00553 308.000
38.02548 319.000
38.04543 316.000
38.06538 294.000
38.08532 298.000
38.10527 311.000
38.12522 303.000
38.14516 326.000
38.16511 358.000
38.18506 321.000
38.20500 359.000
38.22495 347.000
38.24490 304.000
38.26484 368.000
38.28479 356.000
38.30474 350.000
38.32469 367.000
38.34463 389.000
38.36458 434.000
38.38453 394.000
38.40447 402.000
38.42442 427.000
38.44437 440.000
38.46431 418.000
38.48426 438.000
38.50421 466.000
38.52416 529.000
38.54410 577.000
38.56405 592.000
38.58400 663.000
38.60394 750.000
38.62389 816.000
38.64384 864.000
38.66378 866.000
38.68373 918.000
38.70368 875.000
38.72362 950.000
38.74357 869.000
38.76352 936.000
38.78347 835.000
38.80341 768.000
38.82336 777.000
38.84331 693.000
38.86325 691.000
38.88320 702.000
38.90315 655.000
38.92309 644.000
38.94304 628.000
38.96299 615.000
38.98294 600.000
39.00288 577.000
39.02283 576.000
39.04278 541.000
39.06272 562.000
39.08267 551.000
39.10262 519.000
39.12256 511.000
39.14251 482.000
39.16246 495.000
39.18241 459.000
39.20235 504.000
39.22230 485.000
39.24225 511.000
39.26219 556.000
39.28214 617.000
39.30209 649.000
39.32203 725.000
39.34198 916.000
39.36193 999.000
39.38187 1147.000
39.40182 1097.000
39.42177 1148.000
39.44172 1144.000
39.46166 1014.000
39.48161 965.000
39.50156 863.000
39.52150 850.000
39.54145 742.000
39.56140 687.000
39.58134 585.000
39.60129 536.000
39.62124 500.000
39.64119 414.000
39.66113 404.000
39.68108 370.000
39.70103 379.000
39.72097 379.000
39.74092 363.000
39.76087 334.000
39.78081 337.000
39.80076 359.000
39.82071 314.000
39.84065 348.000
39.86060 334.000
39.88055 346.000
39.90050 325.000
39.92044 324.000
39.94039 331.000
39.96034 314.000
39.98028 332.000
40.00023 304.000
40.02018 341.000
40.04012 328.000
40.06007 299.000
40.08002 311.000
40.09997 304.000
40.11991 300.000
40.13986 291.000
40.15981 304.000
40.17975 323.000
40.19970 297.000
40.21965 263.000
40.23959 283.000
40.25954 305.000
40.27949 286.000
40.29943 271.000
40.31938 279.000
40.33933 270.000
40.35928 296.000
40.37922 277.000
40.39917 265.000
40.41912 279.000
40.43906 287.000
40.45901 281.000
40.47896 287.000
40.49890 290.000
40.51885 290.000
40.53880 254.000
40.55875 273.000
40.57869 237.000
40.59864 255.000
40.61859 288.000
40.63853 288.000
40.65848 277.000
40.67843 278.000
40.69837 277.000
40.71832 276.000
40.73827 272.000
40.75822 277.000
40.77816 265.000
40.79811 278.000
40.81806 264.000
40.83800 267.000
40.85795 266.000
40.87790 264.000
40.89784 274.000
40.91779 287.000
40.93774 251.000
40.95768 262.000
40.97763 260.000
40.99758 262.000
41.01753 274.000
41.03747 240.000
41.05742 274.000
41.07737 273.000
41.09731 290.000
41.11726 253.000
41.13721 268.000
41.15715 257.000
41.17710 284.000
41.19705 263.000
41.21700 258.000
41.23694 246.000
41.25689 257.000
41.27684 267.000
41.29678 271.000
41.31673 248.000
41.33668 261.000
41.35662 284.000
41.37657 241.000
41.39652 279.000
41.41646 261.000
41.43641 263.000
41.45636 280.000
41.47631 248.000
41.49625 294.000
41.51620 281.000
41.53615 266.000
41.55609 280.000
41.57604 268.000
41.59599 282.000
41.61593 278.000
41.63588 246.000
41.65583 310.000
41.67578 262.000
41.69572 288.000
41.71567 288.000
41.73562 268.000
41.75556 251.000
41.77551 283.000
41.79546 273.000
41.81540 296.000
41.83535 288.000
41.85530 273.000
41.87524 260.000
41.89519 250.000
41.91514 237.000
41.93509 271.000
41.95503 312.000
41.97498 272.000
41.99493 262.000
42.01487 281.000
42.03482 279.000
42.05477 248.000
42.07471 287.000
42.09466 285.000
42.11461 274.000
42.13456 249.000
42.15450 271.000
42.17445 264.000
42.19440 284.000
42.21434 311.000
42.23429 290.000
42.25424 246.000
42.27418 275.000
42.29413 271.000
42.31408 263.000
42.33403 299.000
42.35397 292.000
42.37392 286.000
42.39387 298.000
42.41381 273.000
42.43376 301.000
42.45371 294.000
42.47365 318.000
42.49360 288.000
42.51355 307.000
42.53349 313.000
42.55344 293.000
42.57339 286.000
42.59334 265.000
42.61328 323.000
42.63323 314.000
42.65318 302.000
42.67312 299.000
42.69307 306.000
42.71302 344.000
42.73296 361.000
42.75291 322.000
42.77286 322.000
42.79281 360.000
42.81275 371.000
42.83270 384.000
42.85265 369.000
42.87259 439.000
42.89254 444.000
42.91249 508.000
42.93243 488.000
42.95238 552.000
42.97233 574.000
42.99227 596.000
43.01222 676.000
43.03217 700.000
43.05212 797.000
43.07206 894.000
43.09201 1008.000
43.11196 1084.000
43.13190 1198.000
43.15185 1265.000
43.17180 1325.000
43.19174 1340.000
43.21169 1300.000
43.23164 1363.000
43.25159 1220.000
43.27153 1253.000
43.29148 1188.000
43.31143 1145.000
43.33137 1155.000
43.35132 1091.000
43.37127 1037.000
43.39121 1004.000
43.41116 1019.000
43.43111 915.000
43.45105 939.000
43.47100 1020.000
43.49095 940.000
43.51090 861.000
43.53084 818.000
43.55079 825.000
43.57074 753.000
43.59068 738.000
43.61063 632.000
43.63058 597.000
43.65052 553.000
43.67047 538.000
43.69042 489.000
43.71037 429.000
43.73031 387.000
43.75026 394.000
43.77021 383.000
43.79015 373.000
43.81010 356.000
43.83005 353.000
43.84999 325.000
43.86994 279.000
43.88989 311.000
43.90984 306.000
43.92978 329.000
43.94973 294.000
43.96968 346.000
43.98962 297.000
44.00957 275.000
44.02952 294.000
44.04946 308.000
44.06941 285.000
44.08936 301.000
44.10930 298.000
44.12925 258.000
44.14920 313.000
44.16915 287.000
44.18909 284.000
44.20904 279.000
44.22899 278.000
44.24893 308.000
44.26888 295.000
44.28883 277.000
44.30877 280.000
44.32872 266.000
44.34867 265.000
44.36862 281.000
44.38856 256.000
44.40851 247.000
44.42846 309.000
44.44840 260.000
44.46835 269.000
44.48830 280.000
44.50824 277.000
44.52819 233.000
44.54814 264.000
44.56808 280.000
44.58803 272.000
44.60798 272.000
44.62793 289.000
44.64787 274.000
44.66782 272.000
44.68777 291.000
44.70771 304.000
44.72766 280.000
44.74761 281.000
44.76755 289.000
44.78750 233.000
44.80745 284.000
44.82740 274.000
44.84734 250.000
44.86729 257.000
44.88724 313.000
44.90718 275.000
44.92713 272.000
44.94708 264.000
44.96702 270.000
44.98697 272.000
45.00692 261.000
45.02686 257.000
45.04681 294.000
45.06676 280.000
45.08671 278.000
45.10665 252.000
45.12660 268.000
45.14655 248.000
45.16649 257.000
45.18644 264.000
45.20639 255.000
45.22633 240.000
45.24628 280.000
45.26623 274.000
45.28618 275.000
45.30612 268.000
45.32607 253.000
45.34602 262.000
45.36596 267.000
45.38591 243.000
45.40586 271.000
45.42580 292.000
45.44575 263.000
45.46570 250.000
45.48565 249.000
45.50559 285.000
45.52554 250.000
45.54549 274.000
45.56543 258.000
45.58538 269.000
45.60533 267.000
45.62527 262.000
45.64522 255.000
45.66517 257.000
45.68511 258.000
45.70506 261.000
45.72501 259.000
45.74496 240.000
45.76490 272.000
45.78485 245.000
45.80480 239.000
45.82474 236.000
45.84469 233.000
45.86464 257.000
45.88458 266.000
45.90453 299.000
45.92448 265.000
45.94443 273.000
45.96437 273.000
45.98432 278.000
46.00427 269.000
46.02421 271.000
46.04416 274.000
46.06411 256.000
46.08405 287.000
46.10400 262.000
46.12395 271.000
46.14389 251.000
46.16384 262.000
46.18379 262.000
46.20374 257.000
46.22368 243.000
46.24363 263.000
46.26358 260.000
46.28352 253.000
46.30347 297.000
46.32342 274.000
46.34336 260.000
46.36331 278.000
46.38326 268.000
46.40321 284.000
46.42315 237.000
46.44310 267.000
46.46305 277.000
46.48299 267.000
46.50294 246.000
46.52289 286.000
46.54283 291.000
46.56278 252.000
46.58273 267.000
46.60267 253.000
46.62262 263.000
46.64257 254.000
46.66252 235.000
46.68246 267.000
46.70241 264.000
46.72236 275.000
46.74230 278.000
46.76225 275.000
46.78220 274.000
46.80214 240.000
46.82209 260.000
46.84204 250.000
46.86199 262.000
46.88193 265.000
46.90188 271.000
46.92183 268.000
46.94177 240.000
46.96172 259.000
46.98167 270.000
47.00161 277.000
47.02156 263.000
47.04151 252.000
47.06146 254.000
47.08140 298.000
47.10135 245.000
47.12130 250.000
47.14124 271.000
47.16119 291.000
47.18114 255.000
47.20108 261.000
47.22103 262.000
47.24098 260.000
47.26092 237.000
47.28087 296.000
47.30082 265.000
47.32077 279.000
47.34071 272.000
47.36066 264.000
47.38061 236.000
47.40055 278.000
47.42050 271.000
47.44045 299.000
47.46039 280.000
47.48034 255.000
47.50029 273.000
47.52024 296.000
47.54018 245.000
47.56013 281.000
47.58008 287.000
47.60002 297.000
47.61997 293.000
47.63992 286.000
47.65986 267.000
47.67981 308.000
47.69976 257.000
47.71970 290.000
47.73965 255.000
47.75960 257.000
47.77955 291.000
47.79949 285.000
47.81944 287.000
47.83939 248.000
47.85933 309.000
47.87928 294.000
47.89923 278.000
47.91917 278.000
47.93912 268.000
47.95907 299.000
47.97902 278.000
47.99896 273.000
48.01891 300.000
48.03886 269.000
48.05880 327.000
48.07875 271.000
48.09870 289.000
48.11864 321.000
48.13859 270.000
48.15854 318.000
48.17848 303.000
48.19843 306.000
48.21838 310.000
48.23833 276.000
48.25827 338.000
48.27822 305.000
48.29817 317.000
48.31811 344.000
48.33806 324.000
48.35801 335.000
48.37795 309.000
48.39790 323.000
48.41785 340.000
48.43780 376.000
48.45774 351.000
48.47769 384.000
48.49764 386.000
48.51758 424.000
48.53753 433.000
48.55748 443.000
48.57742 450.000
48.59737 461.000
48.61732 536.000
48.63726 560.000
48.65721 590.000
48.67716 698.000
48.69711 720.000
48.71705 882.000
48.73700 918.000
48.75695 1040.000
48.77689 1043.000
48.79684 1093.000
48.81679 1112.000
48.83673 1092.000
48.85668 1043.000
48.87663 978.000
48.89658 948.000
48.91652 843.000
48.93647 873.000
48.95642 707.000
48.97636 742.000
48.99631 613.000
49.01626 594.000
49.03620 534.000
49.05615 491.000
49.07610 484.000
49.09605 463.000
49.11599 428.000
49.13594 418.000
49.15589 406.000
49.17583 393.000
49.19578 350.000
49.21573 336.000
49.23567 351.000
49.25562 345.000
49.27557 290.000
49.29551 337.000
49.31546 299.000
49.33541 314.000
49.35536 332.000
49.37530 307.000
49.39525 293.000
49.41520 340.000
49.43514 254.000
49.45509 298.000
49.47504 284.000
49.49498 296.000
49.51493 312.000
49.53488 319.000
49.55483 308.000
49.57477 287.000
49.59472 261.000
49.61467 291.000
49.63461 271.000
49.65456 293.000
49.67451 284.000
49.69445 299.000
49.71440 289.000
49.73435 293.000
49.75429 277.000
49.77424 264.000
49.79419 274.000
49.81414 270.000
49.83408 252.000
49.85403 265.000
49.87398 283.000
49.89392 271.000
49.91387 272.000
49.93382 252.000
49.95376 261.000
49.97371 296.000
49.99366 271.000
50.01361 264.000
50.03355 271.000
50.05350 282.000
50.07345 252.000
50.09339 279.000
50.11334 248.000
50.13329 284.000
50.15323 272.000
50.17318 263.000
50.19313 248.000
50.21307 285.000
50.23302 272.000
50.25297 286.000
50.27292 258.000
50.29286 272.000
50.31281 266.000
50.33276 253.000
50.35270 264.000
50.37265 247.000
50.39260 270.000
50.41254 256.000
50.43249 255.000
50.45244 262.000
50.47239 260.000
50.49233 284.000
50.51228 270.000
50.53223 250.000
50.55217 268.000
50.57212 273.000
50.59207 268.000
50.61201 231.000
50.63196 219.000
50.65191 255.000
50.67186 260.000
50.69180 271.000
50.71175 253.000
50.73170 279.000
50.75164 256.000
50.77159 270.000
50.79154 291.000
50.81148 270.000
50.83143 268.000
50.85138 254.000
50.87132 238.000
50.89127 230.000
50.91122 269.000
50.93117 247.000
50.95111 238.000
50.97106 239.000
50.99101 254.000
51.01095 259.000
51.03090 273.000
51.05085 289.000
51.07079 269.000
51.09074 264.000
51.11069 260.000
51.13064 250.000
51.15058 259.000
51.17053 271.000
51.19048 246.000
51.21042 254.000
51.23037 237.000
51.25032 271.000
51.27026 270.000
51.29021 260.000
51.31016 267.000
51.33010 271.000
51.35005 254.000
51.37000 277.000
51.38995 290.000
51.40989 254.000
51.42984 242.000
51.44979 263.000
51.46973 265.000
51.48968 232.000
51.50963 274.000
51.52957 222.000
51.54952 270.000
51.56947 218.000
51.58942 271.000
51.60936 269.000
51.62931 274.000
51.64926 245.000
51.66920 247.000
51.68915 244.000
51.70910 259.000
51.72904 233.000
51.74899 269.000
51.76894 273.000
51.78888 286.000
51.80883 253.000
51.82878 242.000
51.84873 242.000
51.86867 260.000
51.88862 239.000
51.90857 261.000
51.92851 269.000
51.94846 253.000
51.96841 259.000
51.98835 259.000
52.00830 252.000
52.02825 273.000
52.04820 242.000
52.06814 231.000
52.08809 236.000
52.10804 270.000
52.12798 243.000
52.14793 240.000
52.16788 272.000
52.18782 234.000
52.20777 227.000
52.22772 253.000
52.24767 273.000
52.26761 245.000
52.28756 244.000
52.30751 250.000
52.32745 267.000
52.34740 231.000
52.36735 253.000
52.38729 272.000
52.40724 250.000
52.42719 236.000
52.44713 237.000
52.46708 260.000
52.48703 252.000
52.50698 256.000
52.52692 258.000
52.54687 245.000
52.56682 251.000
52.58676 291.000
52.60671 255.000
52.62666 242.000
52.64660 278.000
52.66655 250.000
52.68650 262.000
52.70645 251.000
52.72639 247.000
52.74634 267.000
52.76629 281.000
52.78623 258.000
52.80618 270.000
52.82613 239.000
52.84607 282.000
52.86602 257.000
52.88597 248.000
52.90591 303.000
52.92586 257.000
52.94581 248.000
52.96576 261.000
52.98570 260.000
53.00565 286.000
53.02560 274.000
53.04554 265.000
53.06549 262.000
53.08544 273.000
53.10538 249.000
53.12533 270.000
53.14528 251.000
53.16523 256.000
53.18517 304.000
53.20512 255.000
53.22507 270.000
53.24501 298.000
53.26496 261.000
53.28491 292.000
53.30485 262.000
53.32480 292.000
53.34475 267.000
53.36469 278.000
53.38464 282.000
53.40459 300.000
53.42454 309.000
53.44448 303.000
53.46443 300.000
53.48438 293.000
53.50432 278.000
53.52427 292.000
53.54422 311.000
53.56416 278.000
53.58411 310.000
53.60406 298.000
53.62401 276.000
53.64395 260.000
53.66390 339.000
53.68385 292.000
53.70379 328.000
53.72374 314.000
53.74369 383.000
53.76363 368.000
53.78358 346.000
53.80353 376.000
53.82348 353.000
53.84342 388.000
53.86337 341.000
53.88332 357.000
53.90326 381.000
53.92321 323.000
53.94316 360.000
53.96310 356.000
53.98305 346.000
54.00300 296.000
54.02294 314.000
54.04289 328.000
54.06284 331.000
54.08279 340.000
54.10273 296.000
54.12268 296.000
54.14263 272.000
54.16257 257.000
54.18252 295.000
54.20247 285.000
54.22241 280.000
54.24236 285.000
54.26231 276.000
54.28226 282.000
54.30220 270.000
54.32215 268.000
54.34210 272.000
54.36204 266.000
54.38199 260.000
54.40194 247.000
54.42188 246.000
54.44183 272.000
54.46178 243.000
54.48172 248.000
54.50167 270.000
54.52162 241.000
54.54157 233.000
54.56151 252.000
54.58146 244.000
54.60141 262.000
54.62135 266.000
54.64130 264.000
54.66125 246.000
54.68119 281.000
54.70114 245.000
54.72109 267.000
54.74104 275.000
54.76098 257.000
54.78093 268.000
54.80088 237.000
54.82082 252.000
54.84077 262.000
54.86072 259.000
54.88066 275.000
54.90061 231.000
54.92056 250.000
54.94050 261.000
54.96045 257.000
54.98040 237.000
55.00035 271.000
55.02029 245.000
55.04024 261.000
55.06019 274.000
55.08013 264.000
55.10008 238.000
55.12003 272.000
55.13997 248.000
55.15992 271.000
55.17987 238.000
55.19982 243.000
55.21976 242.000
55.23971 259.000
55.25966 235.000
55.27960 259.000
55.29955 233.000
55.31950 269.000
55.33944 262.000
55.35939 260.000
55.37934 268.000
55.39929 240.000
55.41923 275.000
55.43918 257.000
55.45913 217.000
55.47907 268.000
55.49902 233.000
55.51897 273.000
55.53891 275.000
55.55886 216.000
55.57881 258.000
55.59875 261.000
55.61870 218.000
55.63865 270.000
55.65860 245.000
55.67854 242.000
55.69849 252.000
55.71844 249.000
55.73838 263.000
55.75833 259.000
55.77828 256.000
55.79822 268.000
55.81817 276.000
55.83812 247.000
55.85807 241.000
55.87801 265.000
55.89796 278.000
55.91791 263.000
55.93785 276.000
55.95780 261.000
55.97775 237.000
55.99769 250.000
56.01764 245.000
56.03759 258.000
56.05753 227.000
56.07748 269.000
56.09743 250.000
56.11738 267.000
56.13732 252.000
56.15727 253.000
56.17722 290.000
56.19716 256.000
56.21711 290.000
56.23706 258.000
56.25700 225.000
56.27695 277.000
56.29690 259.000
56.31685 278.000
56.33679 259.000
56.35674 260.000
56.37669 236.000
56.39663 265.000
56.41658 236.000
56.43653 236.000
56.45647 244.000
56.47642 285.000
56.49637 306.000
56.51631 253.000
56.53626 274.000
56.55621 233.000
56.57616 219.000
56.59610 255.000
56.61605 267.000
56.63600 250.000
56.65594 248.000
56.67589 256.000
56.69584 274.000
56.71578 255.000
56.73573 271.000
56.75568 286.000
56.77563 229.000
56.79557 250.000
56.81552 260.000
56.83547 266.000
56.85541 292.000
56.87536 262.000
56.89531 285.000
56.91525 274.000
56.93520 274.000
56.95515 279.000
56.97510 277.000
56.99504 275.000
57.01499 281.000
57.03494 274.000
57.05488 314.000
57.07483 316.000
57.09478 276.000
57.11472 297.000
57.13467 274.000
57.15462 302.000
57.17456 305.000
57.19451 322.000
57.21446 321.000
57.23441 362.000
57.25435 380.000
57.27430 412.000
57.29425 473.000
57.31419 507.000
57.33414 493.000
57.35409 496.000
57.37403 553.000
57.39398 565.000
57.41393 526.000
57.43388 539.000
57.45382 540.000
57.47377 575.000
57.49372 535.000
57.51366 510.000
57.53361 523.000
57.55356 504.000
57.57350 493.000
57.59345 474.000
57.61340 455.000
57.63334 460.000
57.65329 427.000
57.67324 385.000
57.69319 377.000
57.71313 379.000
57.73308 354.000
57.75303 357.000
57.77297 332.000
57.79292 318.000
57.81287 320.000
57.83281 285.000
57.85276 320.000
57.87271 326.000
57.89266 303.000
57.91260 300.000
57.93255 284.000
57.95250 285.000
57.97244 311.000
57.99239 288.000
58.01234 278.000
58.03228 298.000
58.05223 276.000
58.07218 327.000
58.09212 318.000
58.11207 292.000
58.13202 299.000
58.15197 325.000
58.17191 319.000
58.19186 300.000
58.21181 353.000
58.23175 333.000
58.25170 319.000
58.27165 360.000
58.29159 325.000
58.31154 319.000
58.33149 337.000
58.35144 355.000
58.37138 356.000
58.39133 312.000
58.41128 299.000
58.43122 303.000
58.45117 306.000
58.47112 313.000
58.49106 271.000
58.51101 315.000
58.53096 274.000
58.55090 303.000
58.57085 286.000
58.59080 258.000
58.61075 271.000
58.63069 223.000
58.65064 233.000
58.67059 275.000
58.69053 265.000
58.71048 260.000
58.73043 265.000
58.75037 242.000
58.77032 257.000
58.79027 258.000
58.81022 237.000
58.83016 257.000
58.85011 262.000
58.87006 248.000
58.89000 286.000
58.90995 301.000
58.92990 256.000
58.94984 291.000
58.96979 294.000
58.98974 248.000
59.00969 250.000
59.02963 270.000
59.04958 268.000
59.06953 279.000
59.08947 258.000
59.10942 264.000
59.12937 260.000
59.14931 263.000
59.16926 280.000
59.18921 282.000
59.20915 265.000
59.22910 237.000
59.24905 258.000
59.26900 244.000
59.28894 258.000
59.30889 294.000
59.32884 271.000
59.34878 259.000
59.36873 255.000
59.38868 263.000
59.40862 249.000
59.42857 262.000
59.44852 254.000
59.46847 235.000
59.48841 244.000
59.50836 272.000
59.52831 296.000
59.54825 275.000
59.56820 276.000
59.58815 288.000
59.60809 271.000
59.62804 264.000
59.64799 265.000
59.66793 269.000
59.68788 236.000
59.70783 237.000
59.72778 274.000
59.74772 248.000
59.76767 263.000
59.78762 253.000
59.80756 288.000
59.82751 279.000
59.84746 250.000
59.86740 283.000
59.88735 252.000
59.90730 263.000
59.92725 260.000
59.94719 286.000
59.96714 267.000
59.98709 278.000
60.00703 246.000
60.02698 264.000
60.04693 272.000
60.06687 281.000
60.08682 264.000
60.10677 238.000
60.12671 269.000
60.14666 281.000
60.16661 234.000
60.18656 274.000
60.20650 239.000
60.22645 277.000
60.24640 250.000
60.26634 263.000
60.28629 266.000
60.30624 279.000
60.32618 239.000
60.34613 260.000
60.36608 249.000
60.38603 288.000
60.40597 262.000
60.42592 267.000
60.44587 271.000
60.46581 245.000
60.48576 251.000
60.50571 227.000
60.52565 270.000
60.54560 240.000
60.56555 267.000
60.58550 265.000
60.60544 267.000
60.62539 279.000
60.64534 263.000
60.66528 276.000
60.68523 248.000
60.70518 265.000
60.72512 268.000
60.74507 269.000
60.76502 304.000
60.78496 229.000
60.80491 280.000
60.82486 280.000
60.84481 248.000
60.86475 252.000
60.88470 277.000
60.90465 254.000
60.92459 253.000
60.94454 265.000
60.96449 270.000
60.98443 278.000
61.00438 283.000
61.02433 279.000
61.04428 245.000
61.06422 279.000
61.08417 294.000
61.10412 239.000
61.12406 299.000
61.14401 295.000
61.16396 294.000
61.18390 306.000
61.20385 292.000
61.22380 304.000
61.24374 303.000
61.26369 297.000
61.28364 279.000
61.30359 296.000
61.32353 328.000
61.34348 316.000
61.36343 309.000
61.38337 337.000
61.40332 314.000
61.42327 339.000
61.44321 331.000
61.46316 329.000
61.48311 361.000
61.50306 359.000
61.52300 370.000
61.54295 405.000
61.56290 414.000
61.58284 408.000
61.60279 405.000
61.62274 411.000
61.64268 395.000
61.66263 379.000
61.68258 397.000
61.70252 376.000
61.72247 415.000
61.74242 373.000
61.76237 410.000
61.78231 402.000
61.80226 419.000
61.82221 383.000
61.84215 437.000
61.86210 422.000
61.88205 442.000
61.90199 472.000
61.92194 444.000
61.94189 486.000
61.96184 511.000
61.98178 520.000
62.00173 526.000
62.02168 554.000
62.04162 521.000
62.06157 554.000
62.08152 512.000
62.10146 478.000
62.12141 477.000
62.14136 479.000
62.16131 481.000
62.18125 509.000
62.20120 437.000
62.22115 461.000
62.24109 435.000
62.26104 461.000
62.28099 383.000
62.30093 356.000
62.32088 410.000
62.34083 379.000
62.36077 396.000
62.38072 349.000
62.40067 375.000
62.42062 380.000
62.44056 402.000
62.46051 414.000
62.48046 492.000
62.50040 451.000
62.52035 502.000
62.54030 509.000
62.56024 546.000
62.58019 598.000
62.60014 620.000
62.62009 636.000
62.64003 731.000
62.65998 767.000
62.67993 714.000
62.69987 782.000
62.71982 730.000
62.73977 784.000
62.75971 717.000
62.77966 714.000
62.79961 731.000
62.81955 686.000
62.83950 697.000
62.85945 686.000
62.87940 662.000
62.89934 687.000
62.91929 737.000
62.93924 690.000
62.95918 665.000
62.97913 686.000
62.99908 707.000
63.01902 671.000
63.03897 715.000
63.05892 719.000
63.07887 704.000
63.09881 647.000
63.11876 683.000
63.13871 687.000
63.15865 645.000
63.17860 662.000
63.19855 575.000
63.21849 610.000
63.23844 599.000
63.25839 604.000
63.27833 516.000
63.29828 499.000
63.31823 493.000
63.33818 428.000
63.35812 443.000
63.37807 443.000
63.39802 415.000
63.41796 394.000
63.43791 390.000
63.45786 340.000
63.47780 347.000
63.49775 355.000
63.51770 322.000
63.53765 340.000
63.55759 325.000
63.57754 304.000
63.59749 273.000
63.61743 311.000
63.63738 276.000
63.65733 292.000
63.67727 319.000
63.69722 287.000
63.71717 300.000
63.73712 298.000
63.75706 293.000
63.77701 267.000
63.79696 276.000
63.81690 299.000
63.83685 295.000
63.85680 286.000
63.87674 307.000
63.89669 303.000
63.91664 283.000
63.93658 284.000
63.95653 298.000
63.97648 282.000
63.99643 290.000
64.01637 310.000
64.03632 309.000
64.05627 293.000
64.07621 322.000
64.09616 296.000
64.11611 351.000
64.13605 290.000
64.15600 324.000
64.17595 339.000
64.19590 339.000
64.21584 377.000
64.23579 332.000
64.25574 357.000
64.27568 383.000
64.29563 409.000
64.31558 393.000
64.33552 429.000
64.35547 452.000
64.37542 469.000
64.39536 454.000
64.41531 502.000
64.43526 477.000
64.45521 518.000
64.47515 494.000
64.49510 464.000
64.51505 456.000
64.53499 458.000
64.55494 458.000
64.57489 450.000
64.59483 388.000
64.61478 396.000
64.63473 368.000
64.65468 429.000
64.67462 351.000
64.69457 353.000
64.71452 322.000
64.73446 351.000
64.75441 298.000
64.77436 307.000
64.79430 318.000
64.81425 288.000
64.83420 325.000
64.85414 308.000
64.87409 260.000
64.89404 323.000
64.91399 330.000
64.93393 281.000
64.95388 275.000
64.97383 290.000
64.99377 299.000
65.01372 301.000
65.03367 256.000
65.05361 287.000
65.07356 297.000
65.09351 271.000
65.11346 282.000
65.13340 273.000
65.15335 280.000
65.17330 265.000
65.19324 281.000
65.21319 319.000
65.23314 280.000
65.25308 288.000
65.27303 317.000
65.29298 313.000
65.31293 321.000
65.33287 307.000
65.35282 290.000
65.37277 297.000
65.39271 297.000
65.41266 272.000
65.43261 291.000
65.45255 278.000
65.47250 329.000
65.49245 328.000
65.51239 266.000
65.53234 306.000
65.55229 305.000
65.57224 326.000
65.59218 281.000
65.61213 293.000
65.63208 325.000
65.65202 304.000
65.67197 353.000
65.69192 355.000
65.71186 293.000
65.73181 356.000
65.75176 313.000
65.77171 331.000
65.79165 311.000
65.81160 308.000
65.83155 330.000
65.85149 319.000
65.87144 301.000
65.89139 302.000
65.91133 319.000
65.93128 336.000
65.95123 349.000
65.97117 328.000
65.99112 300.000
66.01107 310.000
66.03102 313.000
66.05096 328.000
66.07091 306.000
66.09086 332.000
66.11080 331.000
66.13075 333.000
66.15070 355.000
66.17064 334.000
66.19059 355.000
66.21054 370.000
66.23049 355.000
66.25043 355.000
66.27038 355.000
66.29033 408.000
66.31027 387.000
66.33022 411.000
66.35017 410.000
66.37011 354.000
66.39006 399.000
66.41001 381.000
66.42995 370.000
66.44990 378.000
66.46985 334.000
66.48980 361.000
66.50974 362.000
66.52969 359.000
66.54964 410.000
66.56958 352.000
66.58953 370.000
66.60948 368.000
66.62942 378.000
66.64937 404.000
66.66932 374.000
66.68927 400.000
66.70921 421.000
66.72916 411.000
66.74911 458.000
66.76905 452.000
66.78900 430.000
66.80895 469.000
66.82889 451.000
66.84884 428.000
66.86879 421.000
66.88874 428.000
66.90868 425.000
66.92863 415.000
66.94858 395.000
66.96852 439.000
66.98847 410.000
67.00842 395.000
67.02836 345.000
67.04831 330.000
67.06826 399.000
67.08820 306.000
67.10815 326.000
67.12810 342.000
67.14805 318.000
67.16799 340.000
67.18794 281.000
67.20789 294.000
67.22783 285.000
67.24778 284.000
67.26773 271.000
67.28767 305.000
67.30762 266.000
67.32757 330.000
67.34752 299.000
67.36746 272.000
67.38741 301.000
67.40736 263.000
67.42730 284.000
67.44725 289.000
67.46720 265.000
67.48714 291.000
67.50709 291.000
67.52704 302.000
67.54698 299.000
67.56693 304.000
67.58688 268.000
67.60683 303.000
67.62677 288.000
67.64672 307.000
67.66667 317.000
67.68661 300.000
67.70656 278.000
67.72651 327.000
67.74645 300.000
67.76640 314.000
67.78635 347.000
67.80630 315.000
67.82624 331.000
67.84619 334.000
67.86614 303.000
67.88608 324.000
67.90603 326.000
67.92598 324.000
67.94592 366.000
67.96587 337.000
67.98582 358.000
68.00576 338.000
68.02571 368.000
68.04566 333.000
68.06561 353.000
68.08555 342.000
68.10550 339.000
68.12545 311.000
68.14539 323.000
68.16534 337.000
68.18529 353.000
68.20523 346.000
68.22518 372.000
68.24513 315.000
68.26508 305.000
68.28502 343.000
68.30497 286.000
68.32492 282.000
68.34486 283.000
68.36481 260.000
68.38476 303.000
68.40470 315.000
68.42465 291.000
68.44460 279.000
68.46455 268.000
68.48449 286.000
68.50444 271.000
68.52439 257.000
68.54433 274.000
68.56428 268.000
68.58423 298.000
68.60417 277.000
68.62412 249.000
68.64407 272.000
68.66401 255.000
68.68396 256.000
68.70391 288.000
68.72386 279.000
68.74380 295.000
68.76375 268.000
68.78370 274.000
68.80364 255.000
68.82359 272.000
68.84354 284.000
68.86348 270.000
68.88343 255.000
68.90338 245.000
68.92333 271.000
68.94327 256.000
68.96322 272.000
68.98317 260.000
69.00311 260.000
69.02306 278.000
69.04301 264.000
69.06295 290.000
69.08290 238.000
69.10285 267.000
69.12279 219.000
69.14274 273.000
69.16269 258.000
69.18264 238.000
69.20258 266.000
69.22253 268.000
69.24248 287.000
69.26242 268.000
69.28237 249.000
69.30232 251.000
69.32226 254.000
69.34221 237.000
69.36216 266.000
69.38211 251.000
69.40205 247.000
69.42200 245.000
69.44195 239.000
69.46189 255.000
69.48184 224.000
69.50179 246.000
69.52173 278.000
69.54168 261.000
69.56163 264.000
69.58157 253.000
69.60152 239.000
69.62147 264.000
69.64142 249.000
69.66136 248.000
69.68131 259.000
69.70126 260.000
69.72120 270.000
69.74115 270.000
69.76110 265.000
69.78104 263.000
69.80099 254.000
69.82094 255.000
69.84089 285.000
69.86083 236.000
69.88078 228.000
69.90073 285.000
69.92067 252.000
69.94062 271.000
69.96057 232.000
69.98051 257.000
70.00046 252.000
70.02041 243.000
70.04035 242.000
70.06030 272.000
70.08025 260.000
70.10020 253.000
70.12014 250.000
70.14009 273.000
70.16004 278.000
70.17998 291.000
70.19993 254.000
70.21988 253.000
70.23982 238.000
70.25977 257.000
70.27972 269.000
70.29967 254.000
70.31961 249.000
70.33956 256.000
70.35951 233.000
70.37945 220.000
70.39940 243.000
70.41935 265.000
70.43929 242.000
70.45924 224.000
70.47919 236.000
70.49914 243.000
70.51908 265.000
70.53903 245.000
70.55898 258.000
70.57892 261.000
70.59887 278.000
70.61882 253.000
70.63876 259.000
70.65871 217.000
70.67866 245.000
70.69860 254.000
70.71855 249.000
70.73850 237.000
70.75845 264.000
70.77839 228.000
70.79834 269.000
70.81829 267.000
70.83823 259.000
70.85818 271.000
70.87813 274.000
70.89807 248.000
70.91802 236.000
70.93797 255.000
70.95792 229.000
70.97786 245.000
70.99781 246.000
71.01776 244.000
71.03770 288.000
71.05765 231.000
71.07760 237.000
71.09754 258.000
71.11749 263.000
71.13744 262.000
71.15738 247.000
71.17733 247.000
71.19728 241.000
71.21723 273.000
71.23717 227.000
71.25712 278.000
71.27707 263.000
71.29701 271.000
71.31696 259.000
71.33691 243.000
71.35685 252.000
71.37680 283.000
71.39675 240.000
71.41670 283.000
71.43664 266.000
71.45659 279.000
71.47654 276.000
71.49648 282.000
71.51643 280.000
71.53638 276.000
71.55632 272.000
71.57627 295.000
71.59622 312.000
71.61616 267.000
71.63611 279.000
71.65606 305.000
71.67601 276.000
71.69595 278.000
71.71590 301.000
71.73585 280.000
71.75579 277.000
71.77574 288.000
71.79569 286.000
71.81563 267.000
71.83558 273.000
71.85553 236.000
71.87548 263.000
71.89542 289.000
71.91537 271.000
71.93532 288.000
71.95526 262.000
71.97521 275.000
71.99516 285.000
72.01510 268.000
72.03505 265.000
72.05500 273.000
72.07495 239.000
72.09489 260.000
72.11484 274.000
72.13479 290.000
72.15473 244.000
72.17468 279.000
72.19463 277.000
72.21457 268.000
72.23452 291.000
72.25447 284.000
72.27441 259.000
72.29436 310.000
72.31431 277.000
72.33426 313.000
72.35420 281.000
72.37415 274.000
72.39410 304.000
72.41404 303.000
72.43399 271.000
72.45394 295.000
72.47388 270.000
72.49383 296.000
72.51378 315.000
72.53373 262.000
72.55367 274.000
72.57362 267.000
72.59357 261.000
72.61351 265.000
72.63346 281.000
72.65341 297.000
72.67335 272.000
72.69330 245.000
72.71325 263.000
72.73319 294.000
72.75314 260.000
72.77309 246.000
72.79304 260.000
72.81298 244.000
72.83293 305.000
72.85288 297.000
72.87282 243.000
72.89277 249.000
72.91272 266.000
72.93266 273.000
72.95261 256.000
72.97256 264.000
72.99251 247.000
73.01245 273.000
73.03240 269.000
73.05235 271.000
73.07229 268.000
73.09224 270.000
73.11219 247.000
73.13213 278.000
73.15208 221.000
73.17203 244.000
73.19197 265.000
73.21192 264.000
73.23187 262.000
73.25182 253.000
73.27176 300.000
73.29171 255.000
73.31166 290.000
73.33160 234.000
73.35155 295.000
73.37150 247.000
73.39144 302.000
73.41139 256.000
73.43134 267.000
73.45129 270.000
73.47123 276.000
73.49118 254.000
73.51113 295.000
73.53107 327.000
73.55102 298.000
73.57097 308.000
73.59091 258.000
73.61086 286.000
73.63081 267.000
73.65076 299.000
73.67070 284.000
73.69065 307.000
73.71060 318.000
73.73054 288.000
73.75049 325.000
73.77044 351.000
73.79038 310.000
73.81033 313.000
73.83028 314.000
73.85022 271.000
73.87017 294.000
73.89012 326.000
73.91007 268.000
73.93001 295.000
73.94996 275.000
73.96991 280.000
73.98985 283.000
74.00980 284.000
74.02975 300.000
74.04969 289.000
74.06964 284.000
74.08959 282.000
74.10954 287.000
74.12948 258.000
74.14943 259.000
74.16938 301.000
74.18932 277.000
74.20927 295.000
74.22922 285.000
74.24916 248.000
74.26911 277.000
74.28906 285.000
74.30900 279.000
74.32895 275.000
74.34890 291.000
74.36885 307.000
74.38879 263.000
74.40874 300.000
74.42869 308.000
74.44863 345.000
74.46858 317.000
74.48853 331.000
74.50847 359.000
74.52842 331.000
74.54837 314.000
74.56832 321.000
74.58826 308.000
74.60821 350.000
74.62816 333.000
74.64810 329.000
74.66805 310.000
74.68800 348.000
74.70794 378.000
74.72789 372.000
74.74784 304.000
74.76778 347.000
74.78773 350.000
74.80768 409.000
74.82763 373.000
74.84757 366.000
74.86752 375.000
74.88747 355.000
74.90741 339.000
74.92736 375.000
74.94731 362.000
74.96725 366.000
74.98720 390.000
75.00715 387.000
75.02710 379.000
75.04704 416.000
75.06699 378.000
75.08694 408.000
75.10688 425.000
75.12683 435.000
75.14678 414.000
75.16672 418.000
75.18667 435.000
75.20662 430.000
75.22657 420.000
75.24651 382.000
75.26646 436.000
75.28641 427.000
75.30635 399.000
75.32630 402.000
75.34625 404.000
75.36619 399.000
75.38614 418.000
75.40609 404.000
75.42603 362.000
75.44598 360.000
75.46593 385.000
75.48588 350.000
75.50582 364.000
75.52577 329.000
75.54572 349.000
75.56566 324.000
75.58561 333.000
75.60556 358.000
75.62550 330.000
75.64545 309.000
75.66540 319.000
75.68535 355.000
75.70529 303.000
75.72524 291.000
75.74519 321.000
75.76513 286.000
75.78508 289.000
75.80503 306.000
75.82497 308.000
75.84492 332.000
75.86487 293.000
75.88481 321.000
75.90476 328.000
75.92471 290.000
75.94466 323.000
75.96460 296.000
75.98455 314.000
76.00450 324.000
76.02444 309.000
76.04439 286.000
76.06434 258.000
76.08428 298.000
76.10423 310.000
76.12418 256.000
76.14413 294.000
76.16407 320.000
76.18402 269.000
76.20397 273.000
76.22391 285.000
76.24386 274.000
76.26381 253.000
76.28375 244.000
76.30370 291.000
76.32365 286.000
76.34359 266.000
76.36354 236.000
76.38349 268.000
76.40344 272.000
76.42338 295.000
76.44333 264.000
76.46328 231.000
76.48322 251.000
76.50317 284.000
76.52312 271.000
76.54306 283.000
76.56301 275.000
76.58296 277.000
76.60291 245.000
76.62285 235.000
76.64280 273.000
76.66275 245.000
76.68269 279.000
76.70264 275.000
76.72259 269.000
76.74253 267.000
76.76248 241.000
76.78243 265.000
76.80238 263.000
76.82232 242.000
76.84227 260.000
76.86222 255.000
76.88216 259.000
76.90211 255.000
76.92206 250.000
76.94200 239.000
76.96195 253.000
76.98190 261.000
77.00184 257.000
77.02179 248.000
77.04174 255.000
77.06169 262.000
77.08163 260.000
77.10158 259.000
77.12153 242.000
77.14147 279.000
77.16142 276.000
77.18137 237.000
77.20131 256.000
77.22126 256.000
77.24121 268.000
77.26116 284.000
77.28110 259.000
77.30105 257.000
77.32100 244.000
77.34094 247.000
77.36089 236.000
77.38084 276.000
77.40078 251.000
77.42073 240.000
77.44068 242.000
77.46062 275.000
77.48057 261.000
77.50052 253.000
77.52047 276.000
77.54041 248.000
77.56036 256.000
77.58031 249.000
77.60025 281.000
77.62020 260.000
77.64015 272.000
77.66009 278.000
77.68004 279.000
77.69999 286.000
77.71994 278.000
77.73988 294.000
77.75983 275.000
77.77978 293.000
77.79972 286.000
77.81967 298.000
77.83962 260.000
77.85956 284.000
77.87951 282.000
77.89946 316.000
77.91940 264.000
77.93935 308.000
77.95930 288.000
77.97925 342.000
77.99919 296.000
78.01914 293.000
78.03909 362.000
78.05903 320.000
78.07898 325.000
78.09893 326.000
78.11887 355.000
78.13882 370.000
78.15877 348.000
78.17872 321.000
78.19866 346.000
78.21861 343.000
78.23856 362.000
78.25850 373.000
78.27845 368.000
78.29840 372.000
78.31834 360.000
78.33829 350.000
78.35824 330.000
78.37819 381.000
78.39813 347.000
78.41808 339.000
78.43803 336.000
78.45797 339.000
78.47792 338.000
78.49787 324.000
78.51781 296.000
78.53776 318.000
78.55771 297.000
78.57765 309.000
78.59760 288.000
78.61755 291.000
78.63750 275.000
78.65744 303.000
78.67739 278.000
78.69734 256.000
78.71728 269.000
78.73723 305.000
78.75718 309.000
78.77712 273.000
78.79707 274.000
78.81702 315.000
78.83697 270.000
78.85691 280.000
78.87686 290.000
78.89681 304.000
78.91675 319.000
78.93670 327.000
78.95665 336.000
78.97659 327.000
78.99654 337.000
79.01649 363.000
79.03643 316.000
79.05638 328.000
79.07633 335.000
79.09628 372.000
79.11622 373.000
79.13617 391.000
79.15612 356.000
79.17606 326.000
79.19601 362.000
79.21596 348.000
79.23590 363.000
79.25585 356.000
79.27580 371.000
79.29575 322.000
79.31569 296.000
79.33564 354.000
79.35559 320.000
79.37553 328.000
79.39548 322.000
79.41543 319.000
79.43537 308.000
79.45532 321.000
79.47527 315.000
79.49521 288.000
79.51516 317.000
79.53511 287.000
79.55506 312.000
79.57500 283.000
79.59495 297.000
79.61490 268.000
79.63484 279.000
79.65479 262.000
79.67474 274.000
79.69468 298.000
79.71463 280.000
79.73458 274.000
79.75453 255.000
79.77447 299.000
79.79442 263.000
79.81437 279.000
79.83431 305.000
79.85426 281.000
79.87421 268.000
79.89415 274.000
79.91410 277.000
79.93405 273.000
79.95399 271.000
79.97394 267.000
79.99389 279.000
80.01384 273.000
80.03378 285.000
80.05373 291.000
80.07368 286.000
80.09362 278.000
80.11357 276.000
80.13352 277.000
80.15346 272.000
80.17341 258.000
80.19336 233.000
80.21331 240.000
80.23325 240.000
80.25320 288.000
80.27315 257.000
80.29309 269.000
80.31304 263.000
80.33299 282.000
80.35293 250.000
80.37288 255.000
80.39283 261.000
80.41278 268.000
80.43272 254.000
80.45267 285.000
80.47262 262.000
80.49256 251.000
80.51251 279.000
80.53246 261.000
80.55240 240.000
80.57235 256.000
80.59230 242.000
80.61224 280.000
80.63219 244.000
80.65214 243.000
80.67209 272.000
80.69203 257.000
80.71198 234.000
80.73193 252.000
80.75187 249.000
80.77182 255.000
80.79177 241.000
80.81171 273.000
80.83166 263.000
80.85161 251.000
80.87156 282.000
80.89150 242.000
80.91145 222.000
80.93140 263.000
80.95134 252.000
80.97129 253.000
80.99124 235.000
81.01118 271.000
81.03113 256.000
81.05108 251.000
81.07102 239.000
81.09097 233.000
81.11092 233.000
81.13087 267.000
81.15081 252.000
81.17076 239.000
81.19071 253.000
81.21065 269.000
81.23060 259.000
81.25055 253.000
81.27049 223.000
81.29044 258.000
81.31039 265.000
81.33034 261.000
81.35028 265.000
81.37023 251.000
81.39018 255.000
81.41012 244.000
81.43007 221.000
81.45002 268.000
81.46996 271.000
81.48991 272.000
81.50986 257.000
81.52980 242.000
81.54975 277.000
81.56970 266.000
81.58965 266.000
81.60959 288.000
81.62954 269.000
81.64949 236.000
81.66943 257.000
81.68938 234.000
81.70933 255.000
81.72927 268.000
81.74922 256.000
81.76917 240.000
81.78912 270.000
81.80906 260.000
81.82901 256.000
81.84896 266.000
81.86890 232.000
81.88885 234.000
81.90880 288.000
81.92874 231.000
81.94869 249.000
81.96864 252.000
81.98859 282.000
82.00853 258.000
82.02848 257.000
82.04843 268.000
82.06837 279.000
82.08832 280.000
82.10827 266.000
82.12821 245.000
82.14816 243.000
82.16811 244.000
82.18805 286.000
82.20800 262.000
82.22795 228.000
82.24790 243.000
82.26784 249.000
82.28779 267.000
82.30774 274.000
82.32768 266.000
82.34763 270.000
82.36758 269.000
82.38752 270.000
82.40747 240.000
82.42742 263.000
82.44737 275.000
82.46731 270.000
82.48726 259.000
82.50721 267.000
82.52715 274.000
82.54710 241.000
82.56705 278.000
82.58699 309.000
82.60694 275.000
82.62689 252.000
82.64683 278.000
82.66678 282.000
82.68673 269.000
82.70668 303.000
82.72662 265.000
82.74657 267.000
82.76652 279.000
82.78646 277.000
82.80641 278.000
82.82636 243.000
82.84630 281.000
82.86625 278.000
82.88620 288.000
82.90615 295.000
82.92609 277.000
82.94604 278.000
82.96599 293.000
82.98593 263.000
83.00588 244.000
83.02583 277.000
83.04577 260.000
83.06572 271.000
83.08567 249.000
83.10561 282.000
83.12556 255.000
83.14551 288.000
83.16546 262.000
83.18540 297.000
83.20535 263.000
83.22530 273.000
83.24524 260.000
83.26519 261.000
83.28514 263.000
83.30508 265.000
83.32503 266.000
83.34498 280.000
83.36493 275.000
83.38487 234.000
83.40482 279.000
83.42477 281.000
83.44471 278.000
83.46466 283.000
83.48461 282.000
83.50455 275.000
83.52450 277.000
83.54445 277.000
83.56440 266.000
83.58434 270.000
83.60429 265.000
83.62424 304.000
83.64418 250.000
83.66413 276.000
83.68408 259.000
83.70402 286.000
83.72397 263.000
83.74392 282.000
83.76386 269.000
83.78381 278.000
83.80376 304.000
83.82371 261.000
83.84365 295.000
83.86360 261.000
83.88355 255.000
83.90349 262.000
83.92344 282.000
83.94339 267.000
83.96333 246.000
83.98328 265.000
84.00323 242.000
84.02318 259.000
84.04312 248.000
84.06307 275.000
84.08302 288.000
84.10296 290.000
84.12291 242.000
84.14286 266.000
84.16280 264.000
84.18275 292.000
84.20270 237.000
84.22264 287.000
84.24259 273.000
84.26254 279.000
84.28249 258.000
84.30243 250.000
84.32238 300.000
84.34233 272.000
84.36227 283.000
84.38222 263.000
84.40217 281.000
84.42211 258.000
84.44206 302.000
84.46201 266.000
84.48196 296.000
84.50190 281.000
84.52185 287.000
84.54180 275.000
84.56174 273.000
84.58169 303.000
84.60164 299.000
84.62158 295.000
84.64153 298.000
84.66148 337.000
84.68142 291.000
84.70137 291.000
84.72132 323.000
84.74127 293.000
84.76121 311.000
84.78116 322.000
84.80111 325.000
84.82105 277.000
84.84100 294.000
84.86095 331.000
84.88089 297.000
84.90084 294.000
84.92079 314.000
84.94074 322.000
84.96068 304.000
84.98063 320.000
85.00058 300.000
85.02052 305.000
85.04047 303.000
85.06042 270.000
85.08036 297.000
85.10031 268.000
85.12026 285.000
85.14021 283.000
85.16015 265.000
85.18010 303.000
85.20005 256.000
85.21999 254.000
85.23994 277.000
85.25989 288.000
85.27983 274.000
85.29978 299.000
85.31973 262.000
85.33967 249.000
85.35962 259.000
85.37957 285.000
85.39952 247.000
85.41946 263.000
85.43941 233.000
85.45936 238.000
85.47930 233.000
85.49925 238.000
85.51920 263.000
85.53914 218.000
85.55909 268.000
85.57904 260.000
85.59899 265.000
85.61893 229.000
85.63888 255.000
85.65883 242.000
85.67877 227.000
85.69872 253.000
85.71867 277.000
85.73861 255.000
85.75856 270.000
85.77851 262.000
85.79845 244.000
85.81840 266.000
85.83835 258.000
85.85830 274.000
85.87824 239.000
85.89819 262.000
85.91814 236.000
85.93808 229.000
85.95803 235.000
85.97798 257.000
85.99792 254.000
86.01787 218.000
86.03782 260.000
86.05777 237.000
86.07771 269.000
86.09766 268.000
86.11761 269.000
86.13755 270.000
86.15750 253.000
86.17745 248.000
86.19739 257.000
86.21734 252.000
86.23729 238.000
86.25723 248.000
86.27718 257.000
86.29713 259.000
86.31708 250.000
86.33702 236.000
86.35697 239.000
86.37692 226.000
86.39686 261.000
86.41681 256.000
86.43676 264.000
86.45670 267.000
86.47665 237.000
86.49660 271.000
86.51655 258.000
86.53649 243.000
86.55644 263.000
86.57639 252.000
86.59633 271.000
86.61628 282.000
86.63623 234.000
86.65617 260.000
86.67612 238.000
86.69607 251.000
86.71602 258.000
86.73596 258.000
86.75591 243.000
86.77586 276.000
86.79580 238.000
86.81575 274.000
86.83570 289.000
86.85564 261.000
86.87559 260.000
86.89554 229.000
86.91548 264.000
86.93543 260.000
86.95538 259.000
86.97533 275.000
86.99527 253.000
87.01522 252.000
87.03517 272.000
87.05511 242.000
87.07506 247.000
87.09501 270.000
87.11495 274.000
87.13490 254.000
87.15485 278.000
87.17480 266.000
87.19474 252.000
87.21469 240.000
87.23464 240.000
87.25458 245.000
87.27453 270.000
87.29448 287.000
87.31442 258.000
87.33437 268.000
87.35432 264.000
87.37426 276.000
87.39421 281.000
87.41416 266.000
87.43411 289.000
87.45405 278.000
87.47400 272.000
87.49395 275.000
87.51389 258.000
87.53384 284.000
87.55379 267.000
87.57373 282.000
87.59368 273.000
87.61363 295.000
87.63358 310.000
87.65352 262.000
87.67347 304.000
87.69342 277.000
87.71336 248.000
87.73331 266.000
87.75326 302.000
87.77320 269.000
87.79315 271.000
87.81310 269.000
87.83304 292.000
87.85299 269.000
87.87294 293.000
87.89289 251.000
87.91283 267.000
87.93278 252.000
87.95273 286.000
87.97267 280.000
87.99262 284.000
88.01257 252.000
88.03251 282.000
88.05246 241.000
88.07241 286.000
88.09236 244.000
88.11230 260.000
88.13225 255.000
88.15220 264.000
88.17214 257.000
88.19209 216.000
88.21204 226.000
88.23198 274.000
88.25193 262.000
88.27188 271.000
88.29183 256.000
88.31177 260.000
88.33172 241.000
88.35167 269.000
88.37161 226.000
88.39156 270.000
88.41151 253.000
88.43145 243.000
88.45140 235.000
88.47135 218.000
88.49129 235.000
88.51124 267.000
88.53119 272.000
88.55114 237.000
88.57108 256.000
88.59103 235.000
88.61098 243.000
88.63092 238.000
88.65087 257.000
88.67082 260.000
88.69076 269.000
88.71071 242.000
88.73066 247.000
88.75061 256.000
88.77055 228.000
88.79050 271.000
88.81045 282.000
88.83039 232.000
88.85034 247.000
88.87029 246.000
88.89023 259.000
88.91018 235.000
88.93013 261.000
88.95007 239.000
88.97002 260.000
88.98997 258.000
89.00992 237.000
89.02986 261.000
89.04981 289.000
89.06976 265.000
89.08970 266.000
89.10965 250.000
89.12960 243.000
89.14954 248.000
89.16949 239.000
89.18944 266.000
89.20939 242.000
89.22933 266.000
89.24928 232.000
89.26923 244.000
89.28917 222.000
89.30912 261.000
89.32907 266.000
89.34901 252.000
89.36896 277.000
89.38891 264.000
89.40885 265.000
89.42880 234.000
89.44875 248.000
89.46870 264.000
89.48864 260.000
89.50859 239.000
89.52854 307.000
89.54848 247.000
89.56843 230.000
89.58838 269.000
89.60832 251.000
89.62827 270.000
89.64822 275.000
89.66817 226.000
89.68811 271.000
89.70806 254.000
89.72801 281.000
89.74795 295.000
89.76790 263.000
89.78785 299.000
89.80779 252.000
89.82774 277.000
89.84769 245.000
89.86764 249.000
89.88758 222.000
89.90753 247.000
89.92748 247.000
89.94742 240.000
89.96737 263.000
89.98732 263.000
90.00726 280.000
