10.00000 182.000
10.01995 220.000
10.03989 203.000
10.05984 192.000
10.07979 205.000
10.09973 205.000
10.11968 208.000
10.13963 190.000
10.15958 190.000
10.17952 191.000
10.19947 212.000
10.21942 203.000
10.23936 185.000
10.25931 191.000
10.27926 219.000
10.29920 215.000
10.31915 208.000
10.33910 215.000
10.35905 203.000
10.37899 213.000
10.39894 214.000
10.41889 220.000
10.43883 203.000
10.45878 210.000
10.47873 206.000
10.49867 222.000
10.51862 207.000
10.53857 248.000
10.55851 204.000
10.57846 229.000
10.59841 180.000
10.61836 201.000
10.63830 228.000
10.65825 218.000
10.67820 205.000
10.69814 202.000
10.71809 191.000
10.73804 195.000
10.75798 201.000
10.77793 220.000
10.79788 191.000
10.81783 174.000
10.83777 226.000
10.85772 199.000
10.87767 214.000
10.89761 215.000
10.91756 225.000
10.93751 186.000
10.95745 228.000
10.97740 202.000
10.99735 184.000
11.01730 217.000
11.03724 181.000
11.05719 208.000
11.07714 206.000
11.09708 209.000
11.11703 203.000
11.13698 196.000
11.15692 214.000
11.17687 179.000
11.19682 209.000
11.21676 207.000
11.23671 216.000
11.25666 229.000
11.27661 206.000
11.29655 201.000
11.31650 204.000
11.33645 207.000
11.35639 197.000
11.37634 203.000
11.39629 214.000
11.41623 192.000
11.43618 199.000
11.45613 206.000
11.47608 192.000
11.49602 227.000
11.51597 205.000
11.53592 220.000
11.55586 214.000
11.57581 217.000
11.59576 214.000
11.61570 193.000
11.63565 206.000
11.65560 219.000
11.67554 196.000
11.69549 203.000
11.71544 230.000
11.73539 189.000
11.75533 208.000
11.77528 205.000
11.79523 197.000
11.81517 222.000
11.83512 222.000
11.85507 216.000
11.87501 216.000
11.89496 203.000
11.91491 210.000
11.93486 203.000
11.95480 212.000
11.97475 205.000
11.99470 218.000
12.01464 219.000
12.03459 192.000
12.05454 219.000
12.07448 224.000
12.09443 226.000
12.11438 207.000
12.13432 221.000
12.15427 206.000
12.17422 190.000
12.19417 187.000
12.21411 201.000
12.23406 214.000
12.25401 207.000
12.27395 210.000
12.29390 222.000
12.31385 242.000
12.33379 226.000
12.35374 208.000
12.37369 210.000
12.39364 192.000
12.41358 227.000
12.43353 204.000
12.45348 212.000
12.47342 199.000
12.49337 203.000
12.51332 209.000
12.53326 249.000
12.55321 202.000
12.57316 216.000
12.59311 212.000
12.61305 212.000
12.63300 236.000
12.65295 212.000
12.67289 192.000
12.69284 198.000
12.71279 213.000
12.73273 184.000
12.75268 231.000
12.77263 225.000
12.79257 229.000
12.81252 208.000
12.83247 191.000
12.85242 227.000
12.87236 172.000
12.89231 203.000
12.91226 228.000
12.93220 212.000
12.95215 242.000
12.97210 212.000
12.99204 214.000
13.01199 212.000
13.03194 228.000
13.05189 191.000
13.07183 245.000
13.09178 183.000
13.11173 246.000
13.13167 204.000
13.15162 187.000
13.17157 223.000
13.19151 229.000
13.21146 231.000
13.23141 211.000
13.25135 223.000
13.27130 221.000
13.29125 190.000
13.31120 221.000
13.33114 214.000
13.35109 204.000
13.37104 202.000
13.39098 222.000
13.41093 216.000
13.43088 210.000
13.45082 212.000
13.47077 187.000
13.49072 203.000
13.51067 207.000
13.53061 215.000
13.55056 222.000
13.57051 205.000
13.59045 213.000
13.61040 210.000
13.63035 202.000
13.65029 201.000
13.67024 200.000
13.69019 205.000
13.71013 190.000
13.73008 243.000
13.75003 208.000
13.76998 184.000
13.78992 194.000
13.80987 217.000
13.82982 209.000
13.84976 204.000
13.86971 208.000
13.88966 182.000
13.90960 238.000
13.92955 222.000
13.94950 232.000
13.96945 235.000
13.98939 241.000
14.00934 228.000
14.02929 233.000
14.04923 235.000
14.06918 241.000
14.08913 228.000
14.10907 208.000
14.12902 217.000
14.14897 239.000
14.16892 215.000
14.18886 197.000
14.20881 231.000
14.22876 212.000
14.24870 223.000
14.26865 216.000
14.28860 228.000
14.30854 195.000
14.32849 234.000
14.34844 196.000
14.36838 208.000
14.38833 218.000
14.40828 223.000
14.42823 222.000
14.44817 221.000
14.46812 207.000
14.48807 196.000
14.50801 223.000
14.52796 216.000
14.54791 214.000
14.56785 214.000
14.58780 195.000
14.60775 214.000
14.62770 214.000
14.64764 191.000
14.66759 212.000
14.68754 224.000
14.70748 212.000
14.72743 225.000
14.74738 209.000
14.76732 209.000
14.78727 201.000
14.80722 250.000
14.82716 217.000
14.84711 244.000
14.86706 235.000
14.88701 231.000
14.90695 222.000
14.92690 206.000
14.94685 241.000
14.96679 216.000
14.98674 222.000
15.00669 231.000
15.02663 240.000
15.04658 230.000
15.06653 219.000
15.08648 223.000
15.10642 237.000
15.12637 223.000
15.14632 235.000
15.16626 222.000
15.18621 236.000
15.20616 244.000
15.22610 198.000
15.24605 213.000
15.26600 222.000
15.28594 217.000
15.30589 258.000
15.32584 215.000
15.34579 218.000
15.36573 232.000
15.38568 207.000
15.40563 209.000
15.42557 229.000
15.44552 246.000
15.46547 235.000
15.48541 230.000
15.50536 227.000
15.52531 266.000
15.54526 251.000
15.56520 250.000
15.58515 265.000
15.60510 244.000
15.62504 265.000
15.64499 269.000
15.66494 304.000
15.68488 325.000
15.70483 307.000
15.72478 341.000
15.74472 339.000
15.76467 422.000
15.78462 420.000
15.80457 478.000
15.82451 556.000
15.84446 672.000
15.86441 816.000
15.88435 881.000
15.90430 903.000
15.92425 778.000
15.94419 688.000
15.96414 545.000
15.98409 410.000
16.00404 388.000
16.02398 328.000
16.04393 289.000
16.06388 272.000
16.08382 299.000
16.10377 334.000
16.12372 324.000
16.14366 323.000
16.16361 326.000
16.18356 347.000
16.20351 384.000
16.22345 381.000
16.24340 410.000
16.26335 432.000
16.28329 496.000
16.30324 498.000
16.32319 547.000
16.34313 564.000
16.36308 637.000
16.38303 679.000
16.40297 754.000
16.42292 804.000
16.44287 738.000
16.46282 670.000
16.48276 505.000
16.50271 465.000
16.52266 353.000
16.54260 353.000
16.56255 313.000
16.58250 295.000
16.60244 291.000
16.62239 276.000
16.64234 262.000
16.66229 273.000
16.68223 241.000
16.70218 208.000
16.72213 239.000
16.74207 262.000
16.76202 253.000
16.78197 229.000
16.80191 237.000
16.82186 253.000
16.84181 252.000
16.86175 264.000
16.88170 256.000
16.90165 258.000
16.92160 231.000
16.94154 227.000
16.96149 266.000
16.98144 222.000
17.00138 227.000
17.02133 220.000
17.04128 235.000
17.06122 234.000
17.08117 206.000
17.10112 205.000
17.12107 220.000
17.14101 235.000
17.16096 221.000
17.18091 230.000
17.20085 254.000
17.22080 219.000
17.24075 236.000
17.26069 240.000
17.28064 246.000
17.30059 210.000
17.32053 219.000
17.34048 187.000
17.36043 243.000
17.38038 226.000
17.40032 218.000
17.42027 214.000
17.44022 236.000
17.46016 236.000
17.48011 244.000
17.50006 207.000
17.52000 239.000
17.53995 223.000
17.55990 216.000
17.57985 209.000
17.59979 216.000
17.61974 214.000
17.63969 223.000
17.65963 220.000
17.67958 230.000
17.69953 190.000
17.71947 228.000
17.73942 231.000
17.75937 220.000
17.77932 209.000
17.79926 233.000
17.81921 233.000
17.83916 247.000
17.85910 212.000
17.87905 226.000
17.89900 232.000
17.91894 230.000
17.93889 228.000
17.95884 237.000
17.97878 219.000
17.99873 248.000
18.01868 211.000
18.03863 235.000
18.05857 221.000
18.07852 226.000
18.09847 226.000
18.11841 196.000
18.13836 227.000
18.15831 227.000
18.17825 215.000
18.19820 238.000
18.21815 243.000
18.23810 230.000
18.25804 245.000
18.27799 242.000
18.29794 279.000
18.31788 278.000
18.33783 289.000
18.35778 344.000
18.37772 396.000
18.39767 491.000
18.41762 517.000
18.43756 579.000
18.45751 531.000
18.47746 421.000
18.49741 335.000
18.51735 328.000
18.53730 265.000
18.55725 258.000
18.57719 242.000
18.59714 241.000
18.61709 216.000
18.63703 199.000
18.65698 239.000
18.67693 239.000
18.69688 233.000
18.71682 247.000
18.73677 230.000
18.75672 225.000
18.77666 240.000
18.79661 231.000
18.81656 202.000
18.83650 252.000
18.85645 240.000
18.87640 188.000
18.89634 248.000
18.91629 226.000
18.93624 223.000
18.95619 219.000
18.97613 237.000
18.99608 241.000
19.01603 223.000
19.03597 211.000
19.05592 221.000
19.07587 225.000
19.09581 248.000
19.11576 212.000
19.13571 215.000
19.15566 192.000
19.17560 223.000
19.19555 248.000
19.21550 194.000
19.23544 202.000
19.25539 230.000
19.27534 246.000
19.29528 205.000
19.31523 206.000
19.33518 216.000
19.35513 213.000
19.37507 229.000
19.39502 228.000
19.41497 230.000
19.43491 216.000
19.45486 239.000
19.47481 200.000
19.49475 235.000
19.51470 209.000
19.53465 240.000
19.55459 227.000
19.57454 230.000
19.59449 216.000
19.61444 235.000
19.63438 225.000
19.65433 228.000
19.67428 231.000
19.69422 207.000
19.71417 221.000
19.73412 219.000
19.75406 203.000
19.77401 215.000
19.79396 220.000
19.81391 197.000
19.83385 195.000
19.85380 241.000
19.87375 213.000
19.89369 219.000
19.91364 229.000
19.93359 226.000
19.95353 223.000
19.97348 230.000
19.99343 217.000
20.01337 230.000
20.03332 239.000
20.05327 244.000
20.07322 241.000
20.09316 209.000
20.11311 231.000
20.13306 243.000
20.15300 195.000
20.17295 193.000
20.19290 221.000
20.21284 216.000
20.23279 222.000
20.25274 259.000
20.27269 211.000
20.29263 236.000
20.31258 229.000
20.33253 232.000
20.35247 212.000
20.37242 236.000
20.39237 225.000
20.41231 232.000
20.43226 212.000
20.45221 235.000
20.47215 250.000
20.49210 233.000
20.51205 214.000
20.53200 213.000
20.55194 227.000
20.57189 248.000
20.59184 242.000
20.61178 255.000
20.63173 237.000
20.65168 249.000
20.67162 246.000
20.69157 229.000
20.71152 243.000
20.73147 252.000
20.75141 274.000
20.77136 287.000
20.79131 274.000
20.81125 283.000
20.83120 296.000
20.85115 329.000
20.87109 340.000
20.89104 339.000
20.91099 379.000
20.93094 325.000
20.95088 336.000
20.97083 348.000
20.99078 342.000
21.01072 321.000
21.03067 328.000
21.05062 317.000
21.07056 260.000
21.09051 291.000
21.11046 281.000
21.13040 298.000
21.15035 271.000
21.17030 253.000
21.19025 244.000
21.21019 205.000
21.23014 223.000
21.25009 224.000
21.27003 234.000
21.28998 213.000
21.30993 221.000
21.32987 224.000
21.34982 240.000
21.36977 204.000
21.38972 265.000
21.40966 216.000
21.42961 221.000
21.44956 219.000
21.46950 212.000
21.48945 242.000
21.50940 241.000
21.52934 224.000
21.54929 239.000
21.56924 238.000
21.58918 238.000
21.60913 274.000
21.62908 221.000
21.64903 205.000
21.66897 219.000
21.68892 267.000
21.70887 213.000
21.72881 236.000
21.74876 222.000
21.76871 243.000
21.78865 224.000
21.80860 205.000
21.82855 227.000
21.84850 236.000
21.86844 237.000
21.88839 204.000
21.90834 220.000
21.92828 259.000
21.94823 248.000
21.96818 225.000
21.98812 196.000
22.00807 222.000
22.02802 199.000
22.04796 241.000
22.06791 235.000
22.08786 234.000
22.10781 241.000
22.12775 216.000
22.14770 237.000
22.16765 230.000
22.18759 223.000
22.20754 241.000
22.22749 212.000
22.24743 230.000
22.26738 234.000
22.28733 228.000
22.30728 229.000
22.32722 231.000
22.34717 248.000
22.36712 245.000
22.38706 230.000
22.40701 254.000
22.42696 203.000
22.44690 242.000
22.46685 217.000
22.48680 228.000
22.50675 206.000
22.52669 209.000
22.54664 218.000
22.56659 209.000
22.58653 221.000
22.60648 247.000
22.62643 224.000
22.64637 232.000
22.66632 231.000
22.68627 222.000
22.70621 240.000
22.72616 234.000
22.74611 238.000
22.76606 224.000
22.78600 251.000
22.80595 269.000
22.82590 229.000
22.84584 229.000
22.86579 252.000
22.88574 249.000
22.90568 253.000
22.92563 259.000
22.94558 229.000
22.96553 235.000
22.98547 215.000
23.00542 249.000
23.02537 214.000
23.04531 237.000
23.06526 258.000
23.08521 228.000
23.10515 221.000
23.12510 236.000
23.14505 219.000
23.16499 235.000
23.18494 229.000
23.20489 220.000
23.22484 236.000
23.24478 232.000
23.26473 231.000
23.28468 268.000
23.30462 211.000
23.32457 213.000
23.34452 220.000
23.36446 216.000
23.38441 232.000
23.40436 230.000
23.42431 232.000
23.44425 227.000
23.46420 222.000
23.48415 224.000
23.50409 205.000
23.52404 236.000
23.54399 245.000
23.56393 249.000
23.58388 229.000
23.60383 222.000
23.62377 256.000
23.64372 236.000
23.66367 216.000
23.68362 237.000
23.70356 219.000
23.72351 238.000
23.74346 251.000
23.76340 226.000
23.78335 241.000
23.80330 240.000
23.82324 232.000
23.84319 250.000
23.86314 235.000
23.88309 209.000
23.90303 226.000
23.92298 241.000
23.94293 239.000
23.96287 241.000
23.98282 250.000
24.00277 236.000
24.02271 237.000
24.04266 239.000
24.06261 257.000
24.08256 222.000
24.10250 211.000
24.12245 231.000
24.14240 215.000
24.16234 235.000
24.18229 236.000
24.20224 242.000
24.22218 244.000
24.24213 239.000
24.26208 242.000
24.28202 230.000
24.30197 239.000
24.32192 230.000
24.34187 252.000
24.36181 227.000
24.38176 236.000
24.40171 222.000
24.42165 263.000
24.44160 235.000
24.46155 259.000
24.48149 254.000
24.50144 240.000
24.52139 236.000
24.54134 265.000
24.56128 227.000
24.58123 258.000
24.60118 241.000
24.62112 237.000
24.64107 209.000
24.66102 224.000
24.68096 245.000
24.70091 229.000
24.72086 228.000
24.74080 236.000
24.76075 219.000
24.78070 259.000
24.80065 226.000
24.82059 257.000
24.84054 253.000
24.86049 243.000
24.88043 242.000
24.90038 237.000
24.92033 258.000
24.94027 192.000
24.96022 246.000
24.98017 231.000
25.00012 256.000
25.02006 227.000
25.04001 243.000
25.05996 248.000
25.07990 277.000
25.09985 262.000
25.11980 254.000
25.13974 238.000
25.15969 258.000
25.17964 219.000
25.19958 244.000
25.21953 233.000
25.23948 208.000
25.25943 246.000
25.27937 237.000
25.29932 208.000
25.31927 238.000
25.33921 254.000
25.35916 250.000
25.37911 244.000
25.39905 231.000
25.41900 233.000
25.43895 217.000
25.45890 233.000
25.47884 256.000
25.49879 238.000
25.51874 237.000
25.53868 258.000
25.55863 249.000
25.57858 222.000
25.59852 228.000
25.61847 220.000
25.63842 230.000
25.65837 272.000
25.67831 244.000
25.69826 260.000
25.71821 248.000
25.73815 265.000
25.75810 215.000
25.77805 247.000
25.79799 244.000
25.81794 222.000
25.83789 244.000
25.85783 230.000
25.87778 244.000
25.89773 278.000
25.91768 245.000
25.93762 251.000
25.95757 261.000
25.97752 223.000
25.99746 238.000
26.01741 239.000
26.03736 236.000
26.05730 233.000
26.07725 230.000
26.09720 232.000
26.11715 226.000
26.13709 224.000
26.15704 234.000
26.17699 274.000
26.19693 263.000
26.21688 243.000
26.23683 260.000
26.25677 229.000
26.27672 218.000
26.29667 220.000
26.31661 258.000
26.33656 258.000
26.35651 262.000
26.37646 247.000
26.39640 267.000
26.41635 235.000
26.43630 259.000
26.45624 226.000
26.47619 241.000
26.49614 263.000
26.51608 268.000
26.53603 244.000
26.55598 239.000
26.57593 249.000
26.59587 226.000
26.61582 243.000
26.63577 266.000
26.65571 211.000
26.67566 252.000
26.69561 227.000
26.71555 251.000
26.73550 249.000
26.75545 261.000
26.77539 260.000
26.79534 268.000
26.81529 257.000
26.83524 242.000
26.85518 242.000
26.87513 248.000
26.89508 238.000
26.91502 259.000
26.93497 284.000
26.95492 256.000
26.97486 253.000
26.99481 225.000
27.01476 266.000
27.03471 238.000
27.05465 251.000
27.07460 245.000
27.09455 263.000
27.11449 244.000
27.13444 238.000
27.15439 254.000
27.17433 276.000
27.19428 226.000
27.21423 234.000
27.23417 235.000
27.25412 235.000
27.27407 248.000
27.29402 258.000
27.31396 238.000
27.33391 245.000
27.35386 240.000
27.37380 231.000
27.39375 221.000
27.41370 257.000
27.43364 262.000
27.45359 252.000
27.47354 226.000
27.49349 229.000
27.51343 240.000
27.53338 243.000
27.55333 236.000
27.57327 248.000
27.59322 259.000
27.61317 260.000
27.63311 279.000
27.65306 259.000
27.67301 250.000
27.69296 258.000
27.71290 256.000
27.73285 243.000
27.75280 260.000
27.77274 267.000
27.79269 240.000
27.81264 256.000
27.83258 228.000
27.85253 249.000
27.87248 238.000
27.89242 264.000
27.91237 266.000
27.93232 272.000
27.95227 241.000
27.97221 254.000
27.99216 225.000
28.01211 252.000
28.03205 240.000
28.05200 268.000
28.07195 260.000
28.09189 245.000
28.11184 243.000
28.13179 251.000
28.15174 262.000
28.17168 252.000
28.19163 240.000
28.21158 269.000
28.23152 246.000
28.25147 240.000
28.27142 267.000
28.29136 269.000
28.31131 256.000
28.33126 255.000
28.35120 245.000
28.37115 236.000
28.39110 237.000
28.41105 242.000
28.43099 256.000
28.45094 276.000
28.47089 259.000
28.49083 242.000
28.51078 274.000
28.53073 248.000
28.55067 275.000
28.57062 251.000
28.59057 253.000
28.61052 257.000
28.63046 260.000
28.65041 273.000
28.67036 273.000
28.69030 254.000
28.71025 247.000
28.73020 275.000
28.75014 263.000
28.77009 288.000
28.79004 275.000
28.80998 256.000
28.82993 251.000
28.84988 284.000
28.86983 249.000
28.88977 262.000
28.90972 270.000
28.92967 234.000
28.94961 291.000
28.96956 271.000
28.98951 276.000
29.00945 279.000
29.02940 270.000
29.04935 255.000
29.06930 276.000
29.08924 259.000
29.10919 270.000
29.12914 243.000
29.14908 254.000
29.16903 246.000
29.18898 254.000
29.20892 237.000
29.22887 269.000
29.24882 278.000
29.26877 262.000
29.28871 244.000
29.30866 285.000
29.32861 291.000
29.34855 323.000
29.36850 269.000
29.38845 267.000
29.40839 300.000
29.42834 325.000
29.44829 292.000
29.46823 311.000
29.48818 320.000
29.50813 285.000
29.52808 282.000
29.54802 283.000
29.56797 251.000
29.58792 273.000
29.60786 242.000
29.62781 267.000
29.64776 291.000
29.66770 271.000
29.68765 261.000
29.70760 297.000
29.72755 259.000
29.74749 277.000
29.76744 303.000
29.78739 284.000
29.80733 311.000
29.82728 280.000
29.84723 280.000
29.86717 295.000
29.88712 280.000
29.90707 296.000
29.92701 290.000
29.94696 311.000
29.96691 288.000
29.98686 272.000
30.00680 313.000
30.02675 317.000
30.04670 304.000
30.06664 301.000
30.08659 305.000
30.10654 319.000
30.12648 390.000
30.14643 377.000
30.16638 403.000
30.18633 436.000
30.20627 444.000
30.22622 579.000
30.24617 652.000
30.26611 865.000
30.28606 935.000
30.30601 1043.000
30.32595 939.000
30.34590 825.000
30.36585 734.000
30.38579 714.000
30.40574 602.000
30.42569 449.000
30.44564 380.000
30.46558 353.000
30.48553 318.000
30.50548 324.000
30.52542 278.000
30.54537 307.000
30.56532 283.000
30.58526 284.000
30.60521 267.000
30.62516 266.000
30.64511 243.000
30.66505 243.000
30.68500 281.000
30.70495 277.000
30.72489 269.000
30.74484 263.000
30.76479 284.000
30.78473 270.000
30.80468 266.000
30.82463 279.000
30.84458 242.000
30.86452 250.000
30.88447 265.000
30.90442 251.000
30.92436 251.000
30.94431 240.000
30.96426 247.000
30.98420 272.000
31.00415 249.000
31.02410 246.000
31.04404 250.000
31.06399 261.000
31.08394 289.000
31.10389 239.000
31.12383 262.000
31.14378 272.000
31.16373 246.000
31.18367 259.000
31.20362 252.000
31.22357 226.000
31.24351 247.000
31.26346 261.000
31.28341 252.000
31.30336 256.000
31.32330 265.000
31.34325 268.000
31.36320 253.000
31.38314 274.000
31.40309 255.000
31.42304 257.000
31.44298 288.000
31.46293 278.000
31.48288 258.000
31.50282 266.000
31.52277 268.000
31.54272 263.000
31.56267 292.000
31.58261 274.000
31.60256 283.000
31.62251 244.000
31.64245 243.000
31.66240 247.000
31.68235 286.000
31.70229 261.000
31.72224 276.000
31.74219 260.000
31.76214 252.000
31.78208 264.000
31.80203 258.000
31.82198 285.000
31.84192 277.000
31.86187 266.000
31.88182 288.000
31.90176 277.000
31.92171 265.000
31.94166 304.000
31.96160 269.000
31.98155 323.000
32.00150 307.000
32.02145 257.000
32.04139 296.000
32.06134 328.000
32.08129 327.000
32.10123 354.000
32.12118 306.000
32.14113 290.000
32.16107 306.000
32.18102 274.000
32.20097 302.000
32.22092 291.000
32.24086 250.000
32.26081 288.000
32.28076 255.000
32.30070 272.000
32.32065 271.000
32.34060 272.000
32.36054 278.000
32.38049 282.000
32.40044 296.000
32.42039 310.000
32.44033 314.000
32.46028 295.000
32.48023 296.000
32.50017 325.000
32.52012 291.000
32.54007 330.000
32.56001 316.000
32.57996 328.000
32.59991 310.000
32.61985 299.000
32.63980 307.000
32.65975 292.000
32.67970 300.000
32.69964 307.000
32.71959 304.000
32.73954 300.000
32.75948 280.000
32.77943 280.000
32.79938 293.000
32.81932 289.000
32.83927 260.000
32.85922 272.000
32.87917 298.000
32.89911 287.000
32.91906 256.000
32.93901 253.000
32.95895 294.000
32.97890 260.000
32.99885 314.000
33.01879 259.000
33.03874 280.000
33.05869 295.000
33.07863 309.000
33.09858 327.000
33.11853 323.000
33.13848 308.000
33.15842 363.000
33.17837 326.000
33.19832 314.000
33.21826 320.000
33.23821 292.000
33.25816 304.000
33.27810 327.000
33.29805 305.000
33.31800 306.000
33.33795 288.000
33.35789 281.000
33.37784 287.000
33.39779 291.000
33.41773 280.000
33.43768 278.000
33.45763 278.000
33.47757 273.000
33.49752 261.000
33.51747 264.000
33.53741 263.000
33.55736 269.000
33.57731 280.000
33.59726 268.000
33.61720 272.000
33.63715 255.000
33.65710 282.000
33.67704 231.000
33.69699 266.000
33.71694 247.000
33.73688 272.000
33.75683 259.000
33.77678 252.000
33.79673 251.000
33.81667 255.000
33.83662 280.000
33.85657 233.000
33.87651 258.000
33.89646 270.000
33.91641 268.000
33.93635 270.000
33.95630 248.000
33.97625 250.000
33.99620 267.000
34.01614 272.000
34.03609 302.000
34.05604 256.000
34.07598 279.000
34.09593 291.000
34.11588 279.000
34.13582 261.000
34.15577 289.000
34.17572 282.000
34.19566 297.000
34.21561 283.000
34.23556 339.000
34.25551 329.000
34.27545 314.000
34.29540 332.000
34.31535 326.000
34.33529 307.000
34.35524 325.000
34.37519 344.000
34.39513 384.000
34.41508 360.000
34.43503 357.000
34.45498 350.000
34.47492 379.000
34.49487 386.000
34.51482 349.000
34.53476 349.000
34.55471 366.000
34.57466 342.000
34.59460 360.000
34.61455 374.000
34.63450 353.000
34.65444 344.000
34.67439 341.000
34.69434 345.000
34.71429 334.000
34.73423 350.000
34.75418 344.000
34.77413 355.000
34.79407 386.000
34.81402 354.000
34.83397 378.000
34.85391 363.000
34.87386 357.000
34.89381 377.000
34.91376 370.000
34.93370 384.000
34.95365 352.000
34.97360 381.000
34.99354 411.000
35.01349 363.000
35.03344 405.000
35.05338 386.000
35.07333 401.000
35.09328 392.000
35.11322 481.000
35.13317 457.000
35.15312 457.000
35.17307 494.000
35.19301 548.000
35.21296 570.000
35.23291 561.000
35.25285 557.000
35.27280 596.000
35.29275 586.000
35.31269 590.000
35.33264 627.000
35.35259 656.000
35.37254 686.000
35.39248 782.000
35.41243 871.000
35.43238 904.000
35.45232 1026.000
35.47227 1044.000
35.49222 1146.000
35.51216 1190.000
35.53211 1320.000
35.55206 1427.000
35.57201 1560.000
35.59195 1732.000
35.61190 1973.000
35.63185 2307.000
35.65179 2636.000
35.67174 3064.000
35.69169 3038.000
35.71163 2715.000
35.73158 2460.000
35.75153 2227.000
35.77147 1967.000
35.79142 1716.000
35.81137 1430.000
35.83132 1112.000
35.85126 876.000
35.87121 766.000
35.89116 626.000
35.91110 556.000
35.93105 501.000
35.95100 466.000
35.97094 471.000
35.99089 398.000
36.01084 448.000
36.03079 387.000
36.05073 348.000
36.07068 394.000
36.09063 401.000
36.11057 375.000
36.13052 393.000
36.15047 338.000
36.17041 355.000
36.19036 373.000
36.21031 352.000
36.23025 385.000
36.25020 325.000
36.27015 332.000
36.29010 335.000
36.31004 388.000
36.32999 349.000
36.34994 334.000
36.36988 390.000
36.38983 353.000
36.40978 344.000
36.42972 421.000
36.44967 374.000
36.46962 418.000
36.48957 433.000
36.50951 393.000
36.52946 442.000
36.54941 436.000
36.56935 447.000
36.58930 459.000
36.60925 468.000
36.62919 433.000
36.64914 396.000
36.66909 439.000
36.68903 464.000
36.70898 453.000
36.72893 457.000
36.74888 424.000
36.76882 421.000
36.78877 431.000
36.80872 456.000
36.82866 477.000
36.84861 481.000
36.86856 498.000
36.88850 490.000
36.90845 569.000
36.92840 539.000
36.94835 644.000
36.96829 619.000
36.98824 684.000
37.00819 751.000
37.02813 732.000
37.04808 810.000
37.06803 814.000
37.08797 850.000
37.10792 906.000
37.12787 837.000
37.14781 857.000
37.16776 801.000
37.18771 755.000
37.20766 705.000
37.22760 661.000
37.24755 645.000
37.26750 637.000
37.28744 608.000
37.30739 647.000
37.32734 546.000
37.34728 527.000
37.36723 514.000
37.38718 433.000
37.40713 441.000
37.42707 416.000
37.44702 437.000
37.46697 380.000
37.48691 355.000
37.50686 316.000
37.52681 332.000
37.54675 333.000
37.56670 318.000
37.58665 328.000
37.60660 283.000
37.62654 315.000
37.64649 298.000
37.66644 307.000
37.68638 301.000
37.70633 285.000
37.72628 291.000
37.74622 302.000
37.76617 318.000
37.78612 283.000
37.80606 301.000
37.82601 265.000
37.84596 315.000
37.86591 308.000
37.88585 297.000
37.90580 283.000
37.92575 308.000
37.94569 274.000
37.96564 321.000
37.98559 308.000
38.00553 306.000
38.02548 342.000
38.04543 292.000
38.06538 295.000
38.08532 322.000
38.10527 302.000
38.12522 364.000
38.14516 322.000
38.16511 351.000
38.18506 304.000
38.20500 327.000
38.22495 328.000
38.24490 344.000
38.26484 339.000
38.28479 359.000
38.30474 345.000
38.32469 332.000
38.34463 355.000
38.36458 391.000
38.38453 392.000
38.40447 401.000
38.42442 396.000
38.44437 428.000
38.46431 398.000
38.48426 427.000
38.50421 459.000
38.52416 452.000
38.54410 529.000
38.56405 541.000
38.58400 550.000
38.60394 590.000
38.62389 625.000
38.64384 694.000
38.66378 693.000
38.68373 708.000
38.70368 758.000
38.72362 772.000
38.74357 759.000
38.76352 762.000
38.78347 803.000
38.80341 731.000
38.82336 756.000
38.84331 709.000
38.86325 684.000
38.88320 669.000
38.90315 608.000
38.92309 601.000
38.94304 573.000
38.96299 584.000
38.98294 500.000
39.00288 521.000
39.02283 490.000
39.04278 451.000
39.06272 466.000
39.08267 442.000
39.10262 446.000
39.12256 430.000
39.14251 429.000
39.16246 445.000
39.18241 418.000
39.20235 433.000
39.22230 461.000
39.24225 431.000
39.26219 452.000
39.28214 403.000
39.30209 419.000
39.32203 398.000
39.34198 401.000
39.36193 387.000
39.38187 362.000
39.40182 325.000
39.42177 338.000
39.44172 326.000
39.46166 297.000
39.48161 278.000
39.50156 299.000
39.52150 284.000
39.54145 258.000
39.56140 293.000
39.58134 277.000
39.60129 300.000
39.62124 275.000
39.64119 290.000
39.66113 253.000
39.68108 273.000
39.70103 239.000
39.72097 281.000
39.74092 292.000
39.76087 240.000
39.78081 275.000
39.80076 278.000
39.82071 285.000
39.84065 264.000
39.86060 274.000
39.88055 265.000
39.90050 263.000
39.92044 262.000
39.94039 258.000
39.96034 276.000
39.98028 239.000
40.00023 258.000
40.02018 280.000
40.04012 279.000
40.06007 294.000
40.08002 275.000
40.09997 277.000
40.11991 266.000
40.13986 264.000
40.15981 269.000
40.17975 266.000
40.19970 232.000
40.21965 278.000
40.23959 295.000
40.25954 253.000
40.27949 262.000
40.29943 261.000
40.31938 270.000
40.33933 263.000
40.35928 298.000
40.37922 256.000
40.39917 279.000
40.41912 264.000
40.43906 294.000
40.45901 269.000
40.47896 257.000
40.49890 230.000
40.51885 271.000
40.53880 260.000
40.55875 253.000
40.57869 220.000
40.59864 287.000
40.61859 281.000
40.63853 258.000
40.65848 263.000
40.67843 248.000
40.69837 287.000
40.71832 269.000
40.73827 277.000
40.75822 277.000
40.77816 264.000
40.79811 282.000
40.81806 269.000
40.83800 264.000
40.85795 263.000
40.87790 283.000
40.89784 264.000
40.91779 259.000
40.93774 272.000
40.95768 281.000
40.97763 249.000
40.99758 310.000
41.01753 259.000
41.03747 293.000
41.05742 299.000
41.07737 308.000
41.09731 270.000
41.11726 310.000
41.13721 328.000
41.15715 329.000
41.17710 318.000
41.19705 310.000
41.21700 316.000
41.23694 305.000
41.25689 341.000
41.27684 356.000
41.29678 363.000
41.31673 386.000
41.33668 389.000
41.35662 457.000
41.37657 428.000
41.39652 466.000
41.41646 525.000
41.43641 533.000
41.45636 645.000
41.47631 601.000
41.49625 672.000
41.51620 710.000
41.53615 728.000
41.55609 655.000
41.57604 634.000
41.59599 625.000
41.61593 580.000
41.63588 584.000
41.65583 519.000
41.67578 495.000
41.69572 509.000
41.71567 495.000
41.73562 418.000
41.75556 388.000
41.77551 395.000
41.79546 406.000
41.81540 385.000
41.83535 327.000
41.85530 349.000
41.87524 338.000
41.89519 329.000
41.91514 319.000
41.93509 275.000
41.95503 318.000
41.97498 313.000
41.99493 289.000
42.01487 294.000
42.03482 292.000
42.05477 277.000
42.07471 298.000
42.09466 303.000
42.11461 270.000
42.13456 297.000
42.15450 292.000
42.17445 300.000
42.19440 258.000
42.21434 289.000
42.23429 289.000
42.25424 293.000
42.27418 283.000
42.29413 289.000
42.31408 287.000
42.33403 319.000
42.35397 277.000
42.37392 286.000
42.39387 299.000
42.41381 319.000
42.43376 325.000
42.45371 314.000
42.47365 334.000
42.49360 342.000
42.51355 327.000
42.53349 302.000
42.55344 339.000
42.57339 375.000
42.59334 344.000
42.61328 361.000
42.63323 376.000
42.65318 399.000
42.67312 387.000
42.69307 419.000
42.71302 417.000
42.73296 396.000
42.75291 461.000
42.77286 450.000
42.79281 511.000
42.81275 489.000
42.83270 575.000
42.85265 582.000
42.87259 567.000
42.89254 675.000
42.91249 673.000
42.93243 685.000
42.95238 725.000
42.97233 754.000
42.99227 815.000
43.01222 861.000
43.03217 881.000
43.05212 897.000
43.07206 924.000
43.09201 921.000
43.11196 955.000
43.13190 965.000
43.15185 917.000
43.17180 1019.000
43.19174 1022.000
43.21169 899.000
43.23164 897.000
43.25159 850.000
43.27153 879.000
43.29148 919.000
43.31143 967.000
43.33137 939.000
43.35132 992.000
43.37127 895.000
43.39121 834.000
43.41116 825.000
43.43111 751.000
43.45105 710.000
43.47100 656.000
43.49095 659.000
43.51090 542.000
43.53084 488.000
43.55079 470.000
43.57074 449.000
43.59068 381.000
43.61063 374.000
43.63058 341.000
43.65052 386.000
43.67047 338.000
43.69042 297.000
43.71037 314.000
43.73031 308.000
43.75026 281.000
43.77021 305.000
43.79015 310.000
43.81010 294.000
43.83005 294.000
43.84999 280.000
43.86994 284.000
43.88989 263.000
43.90984 295.000
43.92978 291.000
43.94973 311.000
43.96968 266.000
43.98962 265.000
44.00957 272.000
44.02952 294.000
44.04946 273.000
44.06941 262.000
44.08936 272.000
44.10930 263.000
44.12925 268.000
44.14920 255.000
44.16915 265.000
44.18909 265.000
44.20904 272.000
44.22899 293.000
44.24893 270.000
44.26888 263.000
44.28883 258.000
44.30877 269.000
44.32872 243.000
44.34867 261.000
44.36862 291.000
44.38856 221.000
44.40851 261.000
44.42846 257.000
44.44840 253.000
44.46835 247.000
44.48830 260.000
44.50824 258.000
44.52819 273.000
44.54814 236.000
44.56808 258.000
44.58803 275.000
44.60798 269.000
44.62793 257.000
44.64787 263.000
44.66782 273.000
44.68777 259.000
44.70771 237.000
44.72766 267.000
44.74761 242.000
44.76755 258.000
44.78750 251.000
44.80745 246.000
44.82740 264.000
44.84734 276.000
44.86729 258.000
44.88724 229.000
44.90718 265.000
44.92713 268.000
44.94708 261.000
44.96702 229.000
44.98697 280.000
45.00692 266.000
45.02686 307.000
45.04681 271.000
45.06676 278.000
45.08671 275.000
45.10665 256.000
45.12660 248.000
45.14655 257.000
45.16649 268.000
45.18644 269.000
45.20639 249.000
45.22633 277.000
45.24628 255.000
45.26623 263.000
45.28618 265.000
45.30612 255.000
45.32607 259.000
45.34602 275.000
45.36596 256.000
45.38591 279.000
45.40586 253.000
45.42580 240.000
45.44575 257.000
45.46570 262.000
45.48565 291.000
45.50559 257.000
45.52554 258.000
45.54549 235.000
45.56543 228.000
45.58538 265.000
45.60533 231.000
45.62527 242.000
45.64522 283.000
45.66517 239.000
45.68511 272.000
45.70506 244.000
45.72501 247.000
45.74496 224.000
45.76490 254.000
45.78485 271.000
45.80480 276.000
45.82474 227.000
45.84469 266.000
45.86464 235.000
45.88458 248.000
45.90453 247.000
45.92448 223.000
45.94443 239.000
45.96437 262.000
45.98432 239.000
46.00427 264.000
46.02421 225.000
46.04416 243.000
46.06411 242.000
46.08405 261.000
46.10400 261.000
46.12395 232.000
46.14389 226.000
46.16384 236.000
46.18379 258.000
46.20374 260.000
46.22368 262.000
46.24363 246.000
46.26358 259.000
46.28352 252.000
46.30347 240.000
46.32342 260.000
46.34336 253.000
46.36331 264.000
46.38326 243.000
46.40321 254.000
46.42315 255.000
46.44310 268.000
46.46305 233.000
46.48299 239.000
46.50294 256.000
46.52289 240.000
46.54283 234.000
46.56278 242.000
46.58273 268.000
46.60267 238.000
46.62262 252.000
46.64257 247.000
46.66252 261.000
46.68246 260.000
46.70241 253.000
46.72236 253.000
46.74230 229.000
46.76225 246.000
46.78220 241.000
46.80214 262.000
46.82209 247.000
46.84204 243.000
46.86199 234.000
46.88193 251.000
46.90188 232.000
46.92183 220.000
46.94177 252.000
46.96172 229.000
46.98167 263.000
47.00161 255.000
47.02156 215.000
47.04151 243.000
47.06146 256.000
47.08140 262.000
47.10135 223.000
47.12130 253.000
47.14124 235.000
47.16119 269.000
47.18114 239.000
47.20108 239.000
47.22103 226.000
47.24098 235.000
47.26092 241.000
47.28087 245.000
47.30082 275.000
47.32077 266.000
47.34071 228.000
47.36066 254.000
47.38061 241.000
47.40055 276.000
47.42050 266.000
47.44045 233.000
47.46039 288.000
47.48034 246.000
47.50029 261.000
47.52024 235.000
47.54018 243.000
47.56013 273.000
47.58008 247.000
47.60002 248.000
47.61997 258.000
47.63992 232.000
47.65986 252.000
47.67981 226.000
47.69976 257.000
47.71970 238.000
47.73965 257.000
47.75960 260.000
47.77955 254.000
47.79949 276.000
47.81944 237.000
47.83939 265.000
47.85933 252.000
47.87928 272.000
47.89923 263.000
47.91917 282.000
47.93912 248.000
47.95907 244.000
47.97902 274.000
47.99896 242.000
48.01891 265.000
48.03886 248.000
48.05880 259.000
48.07875 276.000
48.09870 253.000
48.11864 264.000
48.13859 303.000
48.15854 256.000
48.17848 263.000
48.19843 240.000
48.21838 295.000
48.23833 286.000
48.25827 242.000
48.27822 275.000
48.29817 263.000
48.31811 267.000
48.33806 243.000
48.35801 279.000
48.37795 287.000
48.39790 243.000
48.41785 301.000
48.43780 283.000
48.45774 256.000
48.47769 296.000
48.49764 325.000
48.51758 297.000
48.53753 316.000
48.55748 309.000
48.57742 345.000
48.59737 341.000
48.61732 337.000
48.63726 334.000
48.65721 368.000
48.67716 403.000
48.69711 406.000
48.71705 390.000
48.73700 437.000
48.75695 449.000
48.77689 432.000
48.79684 470.000
48.81679 478.000
48.83673 462.000
48.85668 479.000
48.87663 441.000
48.89658 417.000
48.91652 418.000
48.93647 445.000
48.95642 424.000
48.97636 386.000
48.99631 385.000
49.01626 358.000
49.03620 317.000
49.05615 323.000
49.07610 315.000
49.09605 322.000
49.11599 285.000
49.13594 280.000
49.15589 300.000
49.17583 280.000
49.19578 267.000
49.21573 269.000
49.23567 275.000
49.25562 282.000
49.27557 245.000
49.29551 242.000
49.31546 272.000
49.33541 277.000
49.35536 270.000
49.37530 284.000
49.39525 240.000
49.41520 280.000
49.43514 261.000
49.45509 277.000
49.47504 258.000
49.49498 276.000
49.51493 263.000
49.53488 304.000
49.55483 286.000
49.57477 237.000
49.59472 257.000
49.61467 241.000
49.63461 271.000
49.65456 241.000
49.67451 242.000
49.69445 253.000
49.71440 264.000
49.73435 241.000
49.75429 253.000
49.77424 225.000
49.79419 265.000
49.81414 236.000
49.83408 257.000
49.85403 242.000
49.87398 256.000
49.89392 241.000
49.91387 260.000
49.93382 257.000
49.95376 265.000
49.97371 252.000
49.99366 253.000
50.01361 234.000
50.03355 212.000
50.05350 247.000
50.07345 246.000
50.09339 225.000
50.11334 245.000
50.13329 270.000
50.15323 235.000
50.17318 240.000
50.19313 238.000
50.21307 241.000
50.23302 254.000
50.25297 242.000
50.27292 246.000
50.29286 254.000
50.31281 252.000
50.33276 244.000
50.35270 246.000
50.37265 231.000
50.39260 242.000
50.41254 222.000
50.43249 232.000
50.45244 244.000
50.47239 249.000
50.49233 236.000
50.51228 272.000
50.53223 249.000
50.55217 275.000
50.57212 226.000
50.59207 246.000
50.61201 261.000
50.63196 255.000
50.65191 256.000
50.67186 242.000
50.69180 252.000
50.71175 231.000
50.73170 241.000
50.75164 259.000
50.77159 249.000
50.79154 244.000
50.81148 244.000
50.83143 253.000
50.85138 245.000
50.87132 240.000
50.89127 217.000
50.91122 222.000
50.93117 260.000
50.95111 244.000
50.97106 251.000
50.99101 244.000
51.01095 263.000
51.03090 246.000
51.05085 230.000
51.07079 260.000
51.09074 261.000
51.11069 236.000
51.13064 257.000
51.15058 230.000
51.17053 253.000
51.19048 256.000
51.21042 235.000
51.23037 256.000
51.25032 263.000
51.27026 262.000
51.29021 277.000
51.31016 245.000
51.33010 246.000
51.35005 262.000
51.37000 238.000
51.38995 228.000
51.40989 243.000
51.42984 233.000
51.44979 234.000
51.46973 262.000
51.48968 233.000
51.50963 238.000
51.52957 228.000
51.54952 265.000
51.56947 236.000
51.58942 252.000
51.60936 239.000
51.62931 249.000
51.64926 236.000
51.66920 249.000
51.68915 217.000
51.70910 238.000
51.72904 242.000
51.74899 248.000
51.76894 244.000
51.78888 245.000
51.80883 242.000
51.82878 248.000
51.84873 248.000
51.86867 275.000
51.88862 236.000
51.90857 252.000
51.92851 274.000
51.94846 248.000
51.96841 226.000
51.98835 226.000
52.00830 273.000
52.02825 267.000
52.04820 247.000
52.06814 253.000
52.08809 254.000
52.10804 253.000
52.12798 229.000
52.14793 257.000
52.16788 252.000
52.18782 263.000
52.20777 233.000
52.22772 271.000
52.24767 268.000
52.26761 273.000
52.28756 253.000
52.30751 256.000
52.32745 292.000
52.34740 276.000
52.36735 233.000
52.38729 246.000
52.40724 257.000
52.42719 238.000
52.44713 257.000
52.46708 253.000
52.48703 277.000
52.50698 244.000
52.52692 255.000
52.54687 265.000
52.56682 248.000
52.58676 243.000
52.60671 244.000
52.62666 255.000
52.64660 258.000
52.66655 256.000
52.68650 251.000
52.70645 256.000
52.72639 225.000
52.74634 275.000
52.76629 258.000
52.78623 263.000
52.80618 254.000
52.82613 272.000
52.84607 266.000
52.86602 255.000
52.88597 273.000
52.90591 263.000
52.92586 260.000
52.94581 264.000
52.96576 278.000
52.98570 264.000
53.00565 280.000
53.02560 305.000
53.04554 303.000
53.06549 292.000
53.08544 292.000
53.10538 286.000
53.12533 339.000
53.14528 333.000
53.16523 316.000
53.18517 345.000
53.20512 337.000
53.22507 303.000
53.24501 332.000
53.26496 311.000
53.28491 322.000
53.30485 313.000
53.32480 307.000
53.34475 321.000
53.36469 283.000
53.38464 282.000
53.40459 335.000
53.42454 294.000
53.44448 285.000
53.46443 300.000
53.48438 308.000
53.50432 326.000
53.52427 312.000
53.54422 322.000
53.56416 306.000
53.58411 309.000
53.60406 308.000
53.62401 319.000
53.64395 302.000
53.66390 325.000
53.68385 312.000
53.70379 337.000
53.72374 341.000
53.74369 380.000
53.76363 400.000
53.78358 432.000
53.80353 416.000
53.82348 417.000
53.84342 425.000
53.86337 379.000
53.88332 352.000
53.90326 368.000
53.92321 341.000
53.94316 425.000
53.96310 337.000
53.98305 357.000
54.00300 318.000
54.02294 285.000
54.04289 256.000
54.06284 265.000
54.08279 263.000
54.10273 275.000
54.12268 220.000
54.14263 251.000
54.16257 266.000
54.18252 216.000
54.20247 257.000
54.22241 262.000
54.24236 276.000
54.26231 232.000
54.28226 229.000
54.30220 270.000
54.32215 287.000
54.34210 246.000
54.36204 256.000
54.38199 282.000
54.40194 208.000
54.42188 230.000
54.44183 234.000
54.46178 229.000
54.48172 256.000
54.50167 232.000
54.52162 282.000
54.54157 252.000
54.56151 247.000
54.58146 235.000
54.60141 238.000
54.62135 233.000
54.64130 262.000
54.66125 237.000
54.68119 247.000
54.70114 255.000
54.72109 233.000
54.74104 258.000
54.76098 244.000
54.78093 216.000
54.80088 258.000
54.82082 230.000
54.84077 245.000
54.86072 227.000
54.88066 245.000
54.90061 250.000
54.92056 288.000
54.94050 222.000
54.96045 255.000
54.98040 216.000
55.00035 217.000
55.02029 257.000
55.04024 250.000
55.06019 252.000
55.08013 234.000
55.10008 246.000
55.12003 225.000
55.13997 235.000
55.15992 229.000
55.17987 254.000
55.19982 210.000
55.21976 198.000
55.23971 264.000
55.25966 253.000
55.27960 238.000
55.29955 232.000
55.31950 267.000
55.33944 232.000
55.35939 242.000
55.37934 278.000
55.39929 246.000
55.41923 245.000
55.43918 234.000
55.45913 231.000
55.47907 246.000
55.49902 261.000
55.51897 221.000
55.53891 225.000
55.55886 231.000
55.57881 256.000
55.59875 238.000
55.61870 233.000
55.63865 214.000
55.65860 239.000
55.67854 225.000
55.69849 244.000
55.71844 219.000
55.73838 266.000
55.75833 258.000
55.77828 264.000
55.79822 243.000
55.81817 221.000
55.83812 240.000
55.85807 241.000
55.87801 258.000
55.89796 215.000
55.91791 265.000
55.93785 260.000
55.95780 258.000
55.97775 232.000
55.99769 268.000
56.01764 251.000
56.03759 275.000
56.05753 242.000
56.07748 244.000
56.09743 213.000
56.11738 216.000
56.13732 255.000
56.15727 226.000
56.17722 231.000
56.19716 226.000
56.21711 245.000
56.23706 233.000
56.25700 218.000
56.27695 276.000
56.29690 259.000
56.31685 228.000
56.33679 247.000
56.35674 229.000
56.37669 245.000
56.39663 264.000
56.41658 227.000
56.43653 285.000
56.45647 231.000
56.47642 255.000
56.49637 259.000
56.51631 259.000
56.53626 254.000
56.55621 229.000
56.57616 299.000
56.59610 226.000
56.61605 278.000
56.63600 294.000
56.65594 278.000
56.67589 265.000
56.69584 248.000
56.71578 269.000
56.73573 266.000
56.75568 252.000
56.77563 247.000
56.79557 252.000
56.81552 279.000
56.83547 292.000
56.85541 270.000
56.87536 268.000
56.89531 259.000
56.91525 262.000
56.93520 285.000
56.95515 252.000
56.97510 249.000
56.99504 275.000
57.01499 317.000
57.03494 282.000
57.05488 306.000
57.07483 335.000
57.09478 298.000
57.11472 372.000
57.13467 330.000
57.15462 314.000
57.17456 377.000
57.19451 432.000
57.21446 375.000
57.23441 426.000
57.25435 481.000
57.27430 512.000
57.29425 541.000
57.31419 694.000
57.33414 712.000
57.35409 796.000
57.37403 755.000
57.39398 695.000
57.41393 676.000
57.43388 591.000
57.45382 604.000
57.47377 591.000
57.49372 644.000
57.51366 593.000
57.53361 546.000
57.55356 504.000
57.57350 465.000
57.59345 414.000
57.61340 403.000
57.63334 362.000
57.65329 390.000
57.67324 337.000
57.69319 352.000
57.71313 368.000
57.73308 349.000
57.75303 375.000
57.77297 353.000
57.79292 392.000
57.81287 351.000
57.83281 390.000
57.85276 352.000
57.87271 344.000
57.89266 358.000
57.91260 348.000
57.93255 334.000
57.95250 396.000
57.97244 335.000
57.99239 346.000
58.01234 339.000
58.03228 316.000
58.05223 328.000
58.07218 345.000
58.09212 339.000
58.11207 294.000
58.13202 328.000
58.15197 320.000
58.17191 306.000
58.19186 346.000
58.21181 328.000
58.23175 296.000
58.25170 319.000
58.27165 316.000
58.29159 319.000
58.31154 332.000
58.33149 292.000
58.35144 319.000
58.37138 290.000
58.39133 298.000
58.41128 285.000
58.43122 306.000
58.45117 306.000
58.47112 276.000
58.49106 283.000
58.51101 279.000
58.53096 281.000
58.55090 251.000
58.57085 282.000
58.59080 271.000
58.61075 255.000
58.63069 283.000
58.65064 243.000
58.67059 269.000
58.69053 278.000
58.71048 230.000
58.73043 242.000
58.75037 235.000
58.77032 232.000
58.79027 261.000
58.81022 256.000
58.83016 265.000
58.85011 243.000
58.87006 255.000
58.89000 241.000
58.90995 248.000
58.92990 266.000
58.94984 235.000
58.96979 251.000
58.98974 252.000
59.00969 258.000
59.02963 251.000
59.04958 234.000
59.06953 278.000
59.08947 243.000
59.10942 257.000
59.12937 256.000
59.14931 272.000
59.16926 256.000
59.18921 260.000
59.20915 251.000
59.22910 242.000
59.24905 273.000
59.26900 229.000
59.28894 259.000
59.30889 269.000
59.32884 259.000
59.34878 234.000
59.36873 264.000
59.38868 239.000
59.40862 235.000
59.42857 245.000
59.44852 271.000
59.46847 272.000
59.48841 249.000
59.50836 278.000
59.52831 219.000
59.54825 256.000
59.56820 250.000
59.58815 226.000
59.60809 246.000
59.62804 225.000
59.64799 234.000
59.66793 250.000
59.68788 248.000
59.70783 267.000
59.72778 224.000
59.74772 226.000
59.76767 271.000
59.78762 247.000
59.80756 250.000
59.82751 239.000
59.84746 272.000
59.86740 245.000
59.88735 230.000
59.90730 230.000
59.92725 245.000
59.94719 242.000
59.96714 287.000
59.98709 244.000
60.00703 255.000
60.02698 259.000
60.04693 257.000
60.06687 266.000
60.08682 239.000
60.10677 236.000
60.12671 230.000
60.14666 269.000
60.16661 226.000
60.18656 267.000
60.20650 258.000
60.22645 246.000
60.24640 257.000
60.26634 242.000
60.28629 278.000
60.30624 264.000
60.32618 246.000
60.34613 216.000
60.36608 235.000
60.38603 264.000
60.40597 233.000
60.42592 230.000
60.44587 234.000
60.46581 246.000
60.48576 246.000
60.50571 244.000
60.52565 240.000
60.54560 252.000
60.56555 256.000
60.58550 245.000
60.60544 272.000
60.62539 298.000
60.64534 214.000
60.66528 245.000
60.68523 263.000
60.70518 271.000
60.72512 255.000
60.74507 218.000
60.76502 240.000
60.78496 252.000
60.80491 258.000
60.82486 256.000
60.84481 254.000
60.86475 252.000
60.88470 248.000
60.90465 256.000
60.92459 260.000
60.94454 255.000
60.96449 245.000
60.98443 258.000
61.00438 272.000
61.02433 267.000
61.04428 263.000
61.06422 279.000
61.08417 297.000
61.10412 263.000
61.12406 278.000
61.14401 270.000
61.16396 271.000
61.18390 258.000
61.20385 273.000
61.22380 270.000
61.24374 266.000
61.26369 287.000
61.28364 271.000
61.30359 292.000
61.32353 286.000
61.34348 302.000
61.36343 294.000
61.38337 309.000
61.40332 290.000
61.42327 279.000
61.44321 332.000
61.46316 301.000
61.48311 314.000
61.50306 336.000
61.52300 353.000
61.54295 316.000
61.56290 354.000
61.58284 342.000
61.60279 343.000
61.62274 355.000
61.64268 398.000
61.66263 388.000
61.68258 356.000
61.70252 389.000
61.72247 358.000
61.74242 400.000
61.76237 383.000
61.78231 341.000
61.80226 388.000
61.82221 361.000
61.84215 355.000
61.86210 351.000
61.88205 358.000
61.90199 361.000
61.92194 396.000
61.94189 343.000
61.96184 366.000
61.98178 320.000
62.00173 410.000
62.02168 380.000
62.04162 363.000
62.06157 422.000
62.08152 377.000
62.10146 414.000
62.12141 424.000
62.14136 404.000
62.16131 378.000
62.18125 412.000
62.20120 457.000
62.22115 441.000
62.24109 506.000
62.26104 422.000
62.28099 473.000
62.30093 469.000
62.32088 517.000
62.34083 472.000
62.36077 505.000
62.38072 520.000
62.40067 525.000
62.42062 528.000
62.44056 553.000
62.46051 583.000
62.48046 579.000
62.50040 617.000
62.52035 589.000
62.54030 563.000
62.56024 577.000
62.58019 595.000
62.60014 555.000
62.62009 615.000
62.64003 584.000
62.65998 627.000
62.67993 598.000
62.69987 601.000
62.71982 618.000
62.73977 611.000
62.75971 566.000
62.77966 597.000
62.79961 577.000
62.81955 629.000
62.83950 636.000
62.85945 641.000
62.87940 692.000
62.89934 773.000
62.91929 758.000
62.93924 839.000
62.95918 928.000
62.97913 956.000
62.99908 1028.000
63.01902 958.000
63.03897 834.000
63.05892 798.000
63.07887 663.000
63.09881 720.000
63.11876 714.000
63.13871 697.000
63.15865 712.000
63.17860 726.000
63.19855 606.000
63.21849 553.000
63.23844 514.000
63.25839 426.000
63.27833 451.000
63.29828 343.000
63.31823 380.000
63.33818 349.000
63.35812 338.000
63.37807 325.000
63.39802 314.000
63.41796 332.000
63.43791 271.000
63.45786 337.000
63.47780 289.000
63.49775 279.000
63.51770 286.000
63.53765 270.000
63.55759 288.000
63.57754 294.000
63.59749 284.000
63.61743 262.000
63.63738 265.000
63.65733 271.000
63.67727 252.000
63.69722 257.000
63.71717 255.000
63.73712 265.000
63.75706 276.000
63.77701 255.000
63.79696 250.000
63.81690 249.000
63.83685 284.000
63.85680 275.000
63.87674 236.000
63.89669 297.000
63.91664 252.000
63.93658 270.000
63.95653 265.000
63.97648 291.000
63.99643 284.000
64.01637 292.000
64.03632 289.000
64.05627 274.000
64.07621 282.000
64.09616 263.000
64.11611 249.000
64.13605 281.000
64.15600 279.000
64.17595 267.000
64.19590 269.000
64.21584 285.000
64.23579 228.000
64.25574 288.000
64.27568 266.000
64.29563 260.000
64.31558 292.000
64.33552 254.000
64.35547 268.000
64.37542 286.000
64.39536 278.000
64.41531 282.000
64.43526 232.000
64.45521 252.000
64.47515 249.000
64.49510 273.000
64.51505 282.000
64.53499 277.000
64.55494 274.000
64.57489 258.000
64.59483 247.000
64.61478 252.000
64.63473 254.000
64.65468 240.000
64.67462 262.000
64.69457 251.000
64.71452 276.000
64.73446 256.000
64.75441 291.000
64.77436 267.000
64.79430 260.000
64.81425 268.000
64.83420 271.000
64.85414 268.000
64.87409 297.000
64.89404 276.000
64.91399 284.000
64.93393 298.000
64.95388 277.000
64.97383 261.000
64.99377 265.000
65.01372 272.000
65.03367 270.000
65.05361 284.000
65.07356 265.000
65.09351 257.000
65.11346 262.000
65.13340 296.000
65.15335 316.000
65.17330 260.000
65.19324 299.000
65.21319 274.000
65.23314 304.000
65.25308 257.000
65.27303 295.000
65.29298 259.000
65.31293 290.000
65.33287 306.000
65.35282 266.000
65.37277 300.000
65.39271 287.000
65.41266 261.000
65.43261 278.000
65.45255 250.000
65.47250 280.000
65.49245 278.000
65.51239 297.000
65.53234 303.000
65.55229 299.000
65.57224 264.000
65.59218 298.000
65.61213 307.000
65.63208 314.000
65.65202 299.000
65.67197 288.000
65.69192 276.000
65.71186 362.000
65.73181 271.000
65.75176 286.000
65.77171 308.000
65.79165 294.000
65.81160 300.000
65.83155 306.000
65.85149 304.000
65.87144 289.000
65.89139 308.000
65.91133 334.000
65.93128 276.000
65.95123 307.000
65.97117 312.000
65.99112 325.000
66.01107 318.000
66.03102 322.000
66.05096 337.000
66.07091 340.000
66.09086 321.000
66.11080 304.000
66.13075 332.000
66.15070 337.000
66.17064 345.000
66.19059 332.000
66.21054 336.000
66.23049 393.000
66.25043 346.000
66.27038 333.000
66.29033 358.000
66.31027 341.000
66.33022 339.000
66.35017 351.000
66.37011 342.000
66.39006 339.000
66.41001 356.000
66.42995 344.000
66.44990 331.000
66.46985 311.000
66.48980 327.000
66.50974 340.000
66.52969 298.000
66.54964 325.000
66.56958 319.000
66.58953 345.000
66.60948 341.000
66.62942 302.000
66.64937 302.000
66.66932 301.000
66.68927 283.000
66.70921 308.000
66.72916 280.000
66.74911 264.000
66.76905 286.000
66.78900 239.000
66.80895 281.000
66.82889 257.000
66.84884 282.000
66.86879 262.000
66.88874 260.000
66.90868 262.000
66.92863 254.000
66.94858 308.000
66.96852 262.000
66.98847 293.000
67.00842 286.000
67.02836 248.000
67.04831 234.000
67.06826 284.000
67.08820 226.000
67.10815 272.000
67.12810 249.000
67.14805 279.000
67.16799 263.000
67.18794 304.000
67.20789 267.000
67.22783 273.000
67.24778 257.000
67.26773 281.000
67.28767 252.000
67.30762 259.000
67.32757 248.000
67.34752 251.000
67.36746 243.000
67.38741 241.000
67.40736 271.000
67.42730 251.000
67.44725 273.000
67.46720 277.000
67.48714 273.000
67.50709 258.000
67.52704 269.000
67.54698 267.000
67.56693 268.000
67.58688 233.000
67.60683 280.000
67.62677 302.000
67.64672 294.000
67.66667 274.000
67.68661 232.000
67.70656 273.000
67.72651 272.000
67.74645 312.000
67.76640 301.000
67.78635 299.000
67.80630 312.000
67.82624 272.000
67.84619 290.000
67.86614 321.000
67.88608 291.000
67.90603 307.000
67.92598 285.000
67.94592 334.000
67.96587 319.000
67.98582 311.000
68.00576 308.000
68.02571 330.000
68.04566 305.000
68.06561 307.000
68.08555 314.000
68.10550 303.000
68.12545 287.000
68.14539 316.000
68.16534 315.000
68.18529 333.000
68.20523 339.000
68.22518 315.000
68.24513 305.000
68.26508 316.000
68.28502 288.000
68.30497 312.000
68.32492 304.000
68.34486 285.000
68.36481 309.000
68.38476 292.000
68.40470 303.000
68.42465 247.000
68.44460 281.000
68.46455 270.000
68.48449 281.000
68.50444 312.000
68.52439 263.000
68.54433 253.000
68.56428 290.000
68.58423 265.000
68.60417 251.000
68.62412 261.000
68.64407 246.000
68.66401 236.000
68.68396 244.000
68.70391 275.000
68.72386 248.000
68.74380 239.000
68.76375 229.000
68.78370 257.000
68.80364 253.000
68.82359 264.000
68.84354 244.000
68.86348 251.000
68.88343 241.000
68.90338 271.000
68.92333 264.000
68.94327 236.000
68.96322 267.000
68.98317 250.000
69.00311 266.000
69.02306 251.000
69.04301 276.000
69.06295 262.000
69.08290 254.000
69.10285 230.000
69.12279 209.000
69.14274 227.000
69.16269 233.000
69.18264 247.000
69.20258 213.000
69.22253 271.000
69.24248 227.000
69.26242 242.000
69.28237 241.000
69.30232 258.000
69.32226 224.000
69.34221 261.000
69.36216 233.000
69.38211 259.000
69.40205 246.000
69.42200 257.000
69.44195 236.000
69.46189 261.000
69.48184 239.000
69.50179 248.000
69.52173 251.000
69.54168 229.000
69.56163 235.000
69.58157 266.000
69.60152 235.000
69.62147 239.000
69.64142 253.000
69.66136 262.000
69.68131 265.000
69.70126 242.000
69.72120 239.000
69.74115 220.000
69.76110 232.000
69.78104 235.000
69.80099 242.000
69.82094 246.000
69.84089 228.000
69.86083 243.000
69.88078 256.000
69.90073 259.000
69.92067 241.000
69.94062 255.000
69.96057 266.000
69.98051 237.000
70.00046 273.000
70.02041 240.000
70.04035 225.000
70.06030 244.000
70.08025 221.000
70.10020 247.000
70.12014 241.000
70.14009 225.000
70.16004 228.000
70.17998 246.000
70.19993 253.000
70.21988 265.000
70.23982 274.000
70.25977 235.000
70.27972 241.000
70.29967 256.000
70.31961 236.000
70.33956 248.000
70.35951 243.000
70.37945 272.000
70.39940 242.000
70.41935 242.000
70.43929 236.000
70.45924 227.000
70.47919 243.000
70.49914 239.000
70.51908 224.000
70.53903 228.000
70.55898 240.000
70.57892 255.000
70.59887 242.000
70.61882 260.000
70.63876 235.000
70.65871 245.000
70.67866 238.000
70.69860 244.000
70.71855 241.000
70.73850 271.000
70.75845 236.000
70.77839 253.000
70.79834 237.000
70.81829 224.000
70.83823 235.000
70.85818 217.000
70.87813 253.000
70.89807 221.000
70.91802 245.000
70.93797 238.000
70.95792 234.000
70.97786 263.000
70.99781 255.000
71.01776 238.000
71.03770 244.000
71.05765 250.000
71.07760 260.000
71.09754 254.000
71.11749 251.000
71.13744 221.000
71.15738 242.000
71.17733 234.000
71.19728 270.000
71.21723 247.000
71.23717 245.000
71.25712 243.000
71.27707 235.000
71.29701 267.000
71.31696 286.000
71.33691 251.000
71.35685 253.000
71.37680 251.000
71.39675 277.000
71.41670 292.000
71.43664 315.000
71.45659 272.000
71.47654 275.000
71.49648 296.000
71.51643 299.000
71.53638 260.000
71.55632 253.000
71.57627 288.000
71.59622 251.000
71.61616 250.000
71.63611 270.000
71.65606 287.000
71.67601 273.000
71.69595 262.000
71.71590 269.000
71.73585 271.000
71.75579 266.000
71.77574 263.000
71.79569 239.000
71.81563 235.000
71.83558 263.000
71.85553 235.000
71.87548 284.000
71.89542 263.000
71.91537 251.000
71.93532 248.000
71.95526 237.000
71.97521 239.000
71.99516 252.000
72.01510 280.000
72.03505 247.000
72.05500 232.000
72.07495 284.000
72.09489 277.000
72.11484 276.000
72.13479 253.000
72.15473 274.000
72.17468 274.000
72.19463 245.000
72.21457 262.000
72.23452 266.000
72.25447 284.000
72.27441 264.000
72.29436 266.000
72.31431 277.000
72.33426 295.000
72.35420 288.000
72.37415 288.000
72.39410 313.000
72.41404 277.000
72.43399 313.000
72.45394 288.000
72.47388 303.000
72.49383 305.000
72.51378 283.000
72.53373 282.000
72.55367 297.000
72.57362 278.000
72.59357 285.000
72.61351 274.000
72.63346 304.000
72.65341 257.000
72.67335 257.000
72.69330 254.000
72.71325 266.000
72.73319 245.000
72.75314 254.000
72.77309 297.000
72.79304 271.000
72.81298 262.000
72.83293 263.000
72.85288 247.000
72.87282 275.000
72.89277 286.000
72.91272 247.000
72.93266 272.000
72.95261 263.000
72.97256 275.000
72.99251 232.000
73.01245 284.000
73.03240 260.000
73.05235 242.000
73.07229 245.000
73.09224 272.000
73.11219 254.000
73.13213 237.000
73.15208 242.000
73.17203 250.000
73.19197 248.000
73.21192 235.000
73.23187 244.000
73.25182 245.000
73.27176 263.000
73.29171 218.000
73.31166 248.000
73.33160 268.000
73.35155 245.000
73.37150 239.000
73.39144 248.000
73.41139 248.000
73.43134 272.000
73.45129 241.000
73.47123 247.000
73.49118 241.000
73.51113 232.000
73.53107 248.000
73.55102 251.000
73.57097 264.000
73.59091 264.000
73.61086 256.000
73.63081 255.000
73.65076 263.000
73.67070 240.000
73.69065 263.000
73.71060 285.000
73.73054 268.000
73.75049 265.000
73.77044 256.000
73.79038 240.000
73.81033 230.000
73.83028 263.000
73.85022 267.000
73.87017 256.000
73.89012 248.000
73.91007 257.000
73.93001 261.000
73.94996 235.000
73.96991 285.000
73.98985 263.000
74.00980 275.000
74.02975 273.000
74.04969 297.000
74.06964 272.000
74.08959 252.000
74.10954 283.000
74.12948 296.000
74.14943 281.000
74.16938 274.000
74.18932 270.000
74.20927 286.000
74.22922 282.000
74.24916 280.000
74.26911 268.000
74.28906 294.000
74.30900 317.000
74.32895 316.000
74.34890 287.000
74.36885 297.000
74.38879 301.000
74.40874 316.000
74.42869 322.000
74.44863 330.000
74.46858 354.000
74.48853 376.000
74.50847 383.000
74.52842 359.000
74.54837 432.000
74.56832 413.000
74.58826 412.000
74.60821 368.000
74.62816 371.000
74.64810 375.000
74.66805 362.000
74.68800 368.000
74.70794 393.000
74.72789 390.000
74.74784 373.000
74.76778 392.000
74.78773 390.000
74.80768 359.000
74.82763 389.000
74.84757 397.000
74.86752 386.000
74.88747 396.000
74.90741 379.000
74.92736 403.000
74.94731 372.000
74.96725 383.000
74.98720 368.000
75.00715 373.000
75.02710 362.000
75.04704 371.000
75.06699 358.000
75.08694 383.000
75.10688 354.000
75.12683 369.000
75.14678 388.000
75.16672 353.000
75.18667 355.000
75.20662 365.000
75.22657 385.000
75.24651 354.000
75.26646 361.000
75.28641 327.000
75.30635 386.000
75.32630 367.000
75.34625 319.000
75.36619 354.000
75.38614 368.000
75.40609 342.000
75.42603 320.000
75.44598 308.000
75.46593 304.000
75.48588 349.000
75.50582 283.000
75.52577 333.000
75.54572 331.000
75.56566 330.000
75.58561 309.000
75.60556 308.000
75.62550 296.000
75.64545 306.000
75.66540 305.000
75.68535 279.000
75.70529 301.000
75.72524 294.000
75.74519 298.000
75.76513 283.000
75.78508 279.000
75.80503 272.000
75.82497 251.000
75.84492 276.000
75.86487 247.000
75.88481 246.000
75.90476 239.000
75.92471 276.000
75.94466 241.000
75.96460 268.000
75.98455 267.000
76.00450 279.000
76.02444 263.000
76.04439 273.000
76.06434 271.000
76.08428 242.000
76.10423 267.000
76.12418 242.000
76.14413 249.000
76.16407 251.000
76.18402 252.000
76.20397 268.000
76.22391 241.000
76.24386 236.000
76.26381 249.000
76.28375 255.000
76.30370 256.000
76.32365 252.000
76.34359 244.000
76.36354 240.000
76.38349 242.000
76.40344 238.000
76.42338 233.000
76.44333 247.000
76.46328 228.000
76.48322 237.000
76.50317 255.000
76.52312 255.000
76.54306 253.000
76.56301 231.000
76.58296 256.000
76.60291 236.000
76.62285 251.000
76.64280 248.000
76.66275 240.000
76.68269 264.000
76.70264 261.000
76.72259 250.000
76.74253 261.000
76.76248 246.000
76.78243 250.000
76.80238 203.000
76.82232 234.000
76.84227 227.000
76.86222 220.000
76.88216 222.000
76.90211 230.000
76.92206 253.000
76.94200 247.000
76.96195 286.000
76.98190 245.000
77.00184 251.000
77.02179 279.000
77.04174 245.000
77.06169 220.000
77.08163 266.000
77.10158 239.000
77.12153 238.000
77.14147 241.000
77.16142 262.000
77.18137 246.000
77.20131 253.000
77.22126 254.000
77.24121 257.000
77.26116 245.000
77.28110 244.000
77.30105 253.000
77.32100 255.000
77.34094 253.000
77.36089 255.000
77.38084 243.000
77.40078 250.000
77.42073 236.000
77.44068 251.000
77.46062 249.000
77.48057 252.000
77.50052 253.000
77.52047 233.000
77.54041 262.000
77.56036 237.000
77.58031 231.000
77.60025 283.000
77.62020 265.000
77.64015 247.000
77.66009 277.000
77.68004 273.000
77.69999 249.000
77.71994 261.000
77.73988 258.000
77.75983 258.000
77.77978 232.000
77.79972 266.000
77.81967 272.000
77.83962 250.000
77.85956 284.000
77.87951 292.000
77.89946 272.000
77.91940 269.000
77.93935 277.000
77.95930 260.000
77.97925 278.000
77.99919 272.000
78.01914 267.000
78.03909 279.000
78.05903 272.000
78.07898 264.000
78.09893 238.000
78.11887 275.000
78.13882 248.000
78.15877 247.000
78.17872 251.000
78.19866 281.000
78.21861 254.000
78.23856 270.000
78.25850 257.000
78.27845 268.000
78.29840 245.000
78.31834 260.000
78.33829 248.000
78.35824 271.000
78.37819 244.000
78.39813 248.000
78.41808 274.000
78.43803 263.000
78.45797 256.000
78.47792 261.000
78.49787 261.000
78.51781 268.000
78.53776 277.000
78.55771 272.000
78.57765 271.000
78.59760 275.000
78.61755 288.000
78.63750 266.000
78.65744 264.000
78.67739 282.000
78.69734 286.000
78.71728 276.000
78.73723 292.000
78.75718 316.000
78.77712 296.000
78.79707 294.000
78.81702 293.000
78.83697 290.000
78.85691 257.000
78.87686 270.000
78.89681 285.000
78.91675 289.000
78.93670 292.000
78.95665 305.000
78.97659 312.000
78.99654 264.000
79.01649 327.000
79.03643 313.000
79.05638 287.000
79.07633 267.000
79.09628 303.000
79.11622 278.000
79.13617 306.000
79.15612 332.000
79.17606 289.000
79.19601 326.000
79.21596 282.000
79.23590 291.000
79.25585 274.000
79.27580 308.000
79.29575 290.000
79.31569 278.000
79.33564 306.000
79.35559 278.000
79.37553 295.000
79.39548 273.000
79.41543 262.000
79.43537 277.000
79.45532 252.000
79.47527 259.000
79.49521 287.000
79.51516 294.000
79.53511 291.000
79.55506 299.000
79.57500 290.000
79.59495 297.000
79.61490 295.000
79.63484 295.000
79.65479 265.000
79.67474 255.000
79.69468 270.000
79.71463 259.000
79.73458 272.000
79.75453 279.000
79.77447 281.000
79.79442 264.000
79.81437 261.000
79.83431 250.000
79.85426 269.000
79.87421 256.000
79.89415 249.000
79.91410 253.000
79.93405 248.000
79.95399 268.000
79.97394 241.000
79.99389 252.000
80.01384 243.000
80.03378 236.000
80.05373 236.000
80.07368 234.000
80.09362 243.000
80.11357 243.000
80.13352 246.000
80.15346 257.000
80.17341 230.000
80.19336 263.000
80.21331 262.000
80.23325 236.000
80.25320 256.000
80.27315 246.000
80.29309 243.000
80.31304 259.000
80.33299 261.000
80.35293 241.000
80.37288 231.000
80.39283 230.000
80.41278 239.000
80.43272 254.000
80.45267 234.000
80.47262 213.000
80.49256 242.000
80.51251 266.000
80.53246 231.000
80.55240 262.000
80.57235 258.000
80.59230 230.000
80.61224 245.000
80.63219 250.000
80.65214 254.000
80.67209 234.000
80.69203 274.000
80.71198 235.000
80.73193 229.000
80.75187 274.000
80.77182 213.000
80.79177 238.000
80.81171 230.000
80.83166 254.000
80.85161 234.000
80.87156 243.000
80.89150 231.000
80.91145 243.000
80.93140 257.000
80.95134 228.000
80.97129 218.000
80.99124 237.000
81.01118 244.000
81.03113 226.000
81.05108 271.000
81.07102 226.000
81.09097 249.000
81.11092 248.000
81.13087 225.000
81.15081 266.000
81.17076 229.000
81.19071 216.000
81.21065 206.000
81.23060 244.000
81.25055 248.000
81.27049 224.000
81.29044 209.000
81.31039 215.000
81.33034 231.000
81.35028 245.000
81.37023 279.000
81.39018 234.000
81.41012 246.000
81.43007 234.000
81.45002 241.000
81.46996 254.000
81.48991 228.000
81.50986 230.000
81.52980 246.000
81.54975 266.000
81.56970 257.000
81.58965 216.000
81.60959 241.000
81.62954 231.000
81.64949 240.000
81.66943 252.000
81.68938 235.000
81.70933 240.000
81.72927 233.000
81.74922 263.000
81.76917 234.000
81.78912 238.000
81.80906 215.000
81.82901 241.000
81.84896 216.000
81.86890 226.000
81.88885 213.000
81.90880 238.000
81.92874 213.000
81.94869 250.000
81.96864 232.000
81.98859 242.000
82.00853 246.000
82.02848 226.000
82.04843 223.000
82.06837 289.000
82.08832 244.000
82.10827 226.000
82.12821 223.000
82.14816 255.000
82.16811 277.000
82.18805 232.000
82.20800 227.000
82.22795 248.000
82.24790 222.000
82.26784 243.000
82.28779 256.000
82.30774 272.000
82.32768 251.000
82.34763 273.000
82.36758 273.000
82.38752 242.000
82.40747 233.000
82.42742 246.000
82.44737 259.000
82.46731 272.000
82.48726 275.000
82.50721 266.000
82.52715 266.000
82.54710 278.000
82.56705 267.000
82.58699 260.000
82.60694 269.000
82.62689 291.000
82.64683 241.000
82.66678 265.000
82.68673 241.000
82.70668 259.000
82.72662 255.000
82.74657 265.000
82.76652 253.000
82.78646 258.000
82.80641 254.000
82.82636 271.000
82.84630 260.000
82.86625 285.000
82.88620 260.000
82.90615 253.000
82.92609 247.000
82.94604 254.000
82.96599 287.000
82.98593 270.000
83.00588 283.000
83.02583 254.000
83.04577 250.000
83.06572 247.000
83.08567 227.000
83.10561 258.000
83.12556 249.000
83.14551 269.000
83.16546 246.000
83.18540 247.000
83.20535 248.000
83.22530 252.000
83.24524 288.000
83.26519 266.000
83.28514 302.000
83.30508 247.000
83.32503 260.000
83.34498 238.000
83.36493 285.000
83.38487 272.000
83.40482 263.000
83.42477 256.000
83.44471 256.000
83.46466 244.000
83.48461 254.000
83.50455 236.000
83.52450 258.000
83.54445 265.000
83.56440 264.000
83.58434 250.000
83.60429 245.000
83.62424 257.000
83.64418 237.000
83.66413 254.000
83.68408 277.000
83.70402 245.000
83.72397 242.000
83.74392 269.000
83.76386 246.000
83.78381 257.000
83.80376 268.000
83.82371 243.000
83.84365 245.000
83.86360 254.000
83.88355 278.000
83.90349 270.000
83.92344 255.000
83.94339 254.000
83.96333 247.000
83.98328 214.000
84.00323 219.000
84.02318 219.000
84.04312 236.000
84.06307 255.000
84.08302 274.000
84.10296 229.000
84.12291 256.000
84.14286 250.000
84.16280 265.000
84.18275 262.000
84.20270 262.000
84.22264 233.000
84.24259 255.000
84.26254 226.000
84.28249 239.000
84.30243 220.000
84.32238 240.000
84.34233 238.000
84.36227 255.000
84.38222 253.000
84.40217 243.000
84.42211 237.000
84.44206 253.000
84.46201 249.000
84.48196 236.000
84.50190 276.000
84.52185 219.000
84.54180 248.000
84.56174 241.000
84.58169 233.000
84.60164 233.000
84.62158 244.000
84.64153 224.000
84.66148 237.000
84.68142 220.000
84.70137 237.000
84.72132 241.000
84.74127 263.000
84.76121 251.000
84.78116 240.000
84.80111 229.000
84.82105 216.000
84.84100 234.000
84.86095 224.000
84.88089 240.000
84.90084 243.000
84.92079 228.000
84.94074 220.000
84.96068 246.000
84.98063 239.000
85.00058 233.000
85.02052 223.000
85.04047 230.000
85.06042 224.000
85.08036 261.000
85.10031 276.000
85.12026 246.000
85.14021 231.000
85.16015 214.000
85.18010 254.000
85.20005 226.000
85.21999 264.000
85.23994 241.000
85.25989 241.000
85.27983 253.000
85.29978 247.000
85.31973 242.000
85.33967 235.000
85.35962 220.000
85.37957 234.000
85.39952 233.000
85.41946 220.000
85.43941 222.000
85.45936 240.000
85.47930 218.000
85.49925 232.000
85.51920 222.000
85.53914 256.000
85.55909 257.000
85.57904 243.000
85.59899 253.000
85.61893 241.000
85.63888 244.000
85.65883 233.000
85.67877 248.000
85.69872 262.000
85.71867 237.000
85.73861 235.000
85.75856 223.000
85.77851 242.000
85.79845 229.000
85.81840 235.000
85.83835 223.000
85.85830 231.000
85.87824 211.000
85.89819 202.000
85.91814 227.000
85.93808 227.000
85.95803 244.000
85.97798 230.000
85.99792 238.000
86.01787 262.000
86.03782 229.000
86.05777 222.000
86.07771 262.000
86.09766 235.000
86.11761 242.000
86.13755 256.000
86.15750 242.000
86.17745 237.000
86.19739 243.000
86.21734 259.000
86.23729 280.000
86.25723 258.000
86.27718 250.000
86.29713 231.000
86.31708 239.000
86.33702 228.000
86.35697 243.000
86.37692 251.000
86.39686 242.000
86.41681 243.000
86.43676 269.000
86.45670 265.000
86.47665 253.000
86.49660 266.000
86.51655 236.000
86.53649 267.000
86.55644 226.000
86.57639 245.000
86.59633 240.000
86.61628 234.000
86.63623 232.000
86.65617 254.000
86.67612 222.000
86.69607 262.000
86.71602 250.000
86.73596 245.000
86.75591 219.000
86.77586 260.000
86.79580 220.000
86.81575 253.000
86.83570 237.000
86.85564 254.000
86.87559 244.000
86.89554 270.000
86.91548 235.000
86.93543 243.000
86.95538 264.000
86.97533 243.000
86.99527 243.000
87.01522 278.000
87.03517 276.000
87.05511 237.000
87.07506 257.000
87.09501 266.000
87.11495 235.000
87.13490 254.000
87.15485 226.000
87.17480 258.000
87.19474 259.000
87.21469 234.000
87.23464 256.000
87.25458 258.000
87.27453 259.000
87.29448 280.000
87.31442 290.000
87.33437 292.000
87.35432 255.000
87.37426 278.000
87.39421 275.000
87.41416 283.000
87.43411 271.000
87.45405 285.000
87.47400 267.000
87.49395 278.000
87.51389 285.000
87.53384 281.000
87.55379 269.000
87.57373 281.000
87.59368 285.000
87.61363 257.000
87.63358 285.000
87.65352 277.000
87.67347 244.000
87.69342 277.000
87.71336 268.000
87.73331 279.000
87.75326 242.000
87.77320 263.000
87.79315 260.000
87.81310 235.000
87.83304 281.000
87.85299 234.000
87.87294 224.000
87.89289 233.000
87.91283 250.000
87.93278 263.000
87.95273 244.000
87.97267 248.000
87.99262 259.000
88.01257 243.000
88.03251 225.000
88.05246 231.000
88.07241 244.000
88.09236 221.000
88.11230 262.000
88.13225 245.000
88.15220 244.000
88.17214 232.000
88.19209 254.000
88.21204 247.000
88.23198 223.000
88.25193 230.000
88.27188 268.000
88.29183 235.000
88.31177 199.000
88.33172 238.000
88.35167 226.000
88.37161 224.000
88.39156 219.000
88.41151 241.000
88.43145 224.000
88.45140 226.000
88.47135 258.000
88.49129 243.000
88.51124 241.000
88.53119 244.000
88.55114 242.000
88.57108 227.000
88.59103 237.000
88.61098 236.000
88.63092 240.000
88.65087 230.000
88.67082 254.000
88.69076 249.000
88.71071 258.000
88.73066 225.000
88.75061 234.000
88.77055 234.000
88.79050 229.000
88.81045 242.000
88.83039 229.000
88.85034 249.000
88.87029 260.000
88.89023 254.000
88.91018 251.000
88.93013 228.000
88.95007 220.000
88.97002 235.000
88.98997 232.000
89.00992 238.000
89.02986 253.000
89.04981 244.000
89.06976 237.000
89.08970 219.000
89.10965 262.000
89.12960 242.000
89.14954 233.000
89.16949 214.000
89.18944 272.000
89.20939 243.000
89.22933 254.000
89.24928 234.000
89.26923 262.000
89.28917 246.000
89.30912 238.000
89.32907 260.000
89.34901 254.000
89.36896 251.000
89.38891 233.000
89.40885 244.000
89.42880 250.000
89.44875 260.000
89.46870 252.000
89.48864 268.000
89.50859 283.000
89.52854 255.000
89.54848 272.000
89.56843 231.000
89.58838 285.000
89.60832 274.000
89.62827 225.000
89.64822 246.000
89.66817 262.000
89.68811 259.000
89.70806 234.000
89.72801 255.000
89.74795 230.000
89.76790 264.000
89.78785 300.000
89.80779 219.000
89.82774 278.000
89.84769 255.000
89.86764 274.000
89.88758 276.000
89.90753 261.000
89.92748 262.000
89.94742 258.000
89.96737 285.000
89.98732 295.000
90.00726 299.000
