10.00000 283.000
10.01995 264.000
10.03989 269.000
10.05984 294.000
10.07979 290.000
10.09973 253.000
10.11968 256.000
10.13963 301.000
10.15958 292.000
10.17952 274.000
10.19947 298.000
10.21942 271.000
10.23936 273.000
10.25931 313.000
10.27926 316.000
10.29920 298.000
10.31915 283.000
10.33910 267.000
10.35905 283.000
10.37899 301.000
10.39894 297.000
10.41889 284.000
10.43883 297.000
10.45878 310.000
10.47873 281.000
10.49867 329.000
10.51862 303.000
10.53857 283.000
10.55851 300.000
10.57846 298.000
10.59841 287.000
10.61836 278.000
10.63830 286.000
10.65825 281.000
10.67820 286.000
10.69814 295.000
10.71809 319.000
10.73804 304.000
10.75798 263.000
10.77793 318.000
10.79788 320.000
10.81783 324.000
10.83777 302.000
10.85772 317.000
10.87767 287.000
10.89761 301.000
10.91756 321.000
10.93751 293.000
10.95745 318.000
10.97740 320.000
10.99735 321.000
11.01730 309.000
11.03724 322.000
11.05719 296.000
11.07714 310.000
11.09708 349.000
11.11703 315.000
11.13698 288.000
11.15692 298.000
11.17687 330.000
11.19682 313.000
11.21676 323.000
11.23671 283.000
11.25666 313.000
11.27661 310.000
11.29655 311.000
11.31650 265.000
11.33645 313.000
11.35639 317.000
11.37634 316.000
11.39629 344.000
11.41623 325.000
11.43618 272.000
11.45613 305.000
11.47608 331.000
11.49602 330.000
11.51597 347.000
11.53592 309.000
11.55586 308.000
11.57581 284.000
11.59576 332.000
11.61570 313.000
11.63565 293.000
11.65560 305.000
11.67554 322.000
11.69549 285.000
11.71544 325.000
11.73539 328.000
11.75533 324.000
11.77528 343.000
11.79523 310.000
11.81517 333.000
11.83512 373.000
11.85507 320.000
11.87501 345.000
11.89496 306.000
11.91491 310.000
11.93486 326.000
11.95480 336.000
11.97475 367.000
11.99470 338.000
12.01464 302.000
12.03459 303.000
12.05454 338.000
12.07448 329.000
12.09443 343.000
12.11438 358.000
12.13432 312.000
12.15427 346.000
12.17422 368.000
12.19417 302.000
12.21411 359.000
12.23406 344.000
12.25401 350.000
12.27395 340.000
12.29390 347.000
12.31385 309.000
12.33379 354.000
12.35374 341.000
12.37369 365.000
12.39364 349.000
12.41358 329.000
12.43353 301.000
12.45348 358.000
12.47342 333.000
12.49337 372.000
12.51332 353.000
12.53326 346.000
12.55321 357.000
12.57316 337.000
12.59311 346.000
12.61305 364.000
12.63300 337.000
12.65295 352.000
12.67289 354.000
12.69284 383.000
12.71279 383.000
12.73273 352.000
12.75268 333.000
12.77263 357.000
12.79257 388.000
12.81252 371.000
12.83247 322.000
12.85242 316.000
12.87236 373.000
12.89231 364.000
12.91226 369.000
12.93220 328.000
12.95215 342.000
12.97210 335.000
12.99204 355.000
13.01199 376.000
13.03194 379.000
13.05189 345.000
13.07183 349.000
13.09178 335.000
13.11173 342.000
13.13167 336.000
13.15162 362.000
13.17157 374.000
13.19151 361.000
13.21146 342.000
13.23141 362.000
13.25135 343.000
13.27130 336.000
13.29125 375.000
13.31120 353.000
13.33114 375.000
13.35109 334.000
13.37104 347.000
13.39098 293.000
13.41093 324.000
13.43088 368.000
13.45082 343.000
13.47077 335.000
13.49072 362.000
13.51067 352.000
13.53061 352.000
13.55056 363.000
13.57051 334.000
13.59045 383.000
13.61040 360.000
13.63035 351.000
13.65029 413.000
13.67024 326.000
13.69019 365.000
13.71013 385.000
13.73008 342.000
13.75003 372.000
13.76998 340.000
13.78992 338.000
13.80987 369.000
13.82982 380.000
13.84976 362.000
13.86971 376.000
13.88966 366.000
13.90960 371.000
13.92955 344.000
13.94950 376.000
13.96945 383.000
13.98939 348.000
14.00934 358.000
14.02929 370.000
14.04923 351.000
14.06918 355.000
14.08913 385.000
14.10907 366.000
14.12902 372.000
14.14897 352.000
14.16892 401.000
14.18886 382.000
14.20881 399.000
14.22876 387.000
14.24870 325.000
14.26865 353.000
14.28860 348.000
14.30854 371.000
14.32849 370.000
14.34844 362.000
14.36838 333.000
14.38833 376.000
14.40828 389.000
14.42823 374.000
14.44817 369.000
14.46812 375.000
14.48807 377.000
14.50801 381.000
14.52796 415.000
14.54791 366.000
14.56785 334.000
14.58780 406.000
14.60775 433.000
14.62770 380.000
14.64764 367.000
14.66759 396.000
14.68754 391.000
14.70748 396.000
14.72743 381.000
14.74738 397.000
14.76732 375.000
14.78727 365.000
14.80722 395.000
14.82716 410.000
14.84711 395.000
14.86706 372.000
14.88701 400.000
14.90695 382.000
14.92690 398.000
14.94685 387.000
14.96679 403.000
14.98674 371.000
15.00669 400.000
15.02663 381.000
15.04658 441.000
15.06653 397.000
15.08648 408.000
15.10642 373.000
15.12637 396.000
15.14632 375.000
15.16626 396.000
15.18621 386.000
15.20616 374.000
15.22610 405.000
15.24605 390.000
15.26600 382.000
15.28594 361.000
15.30589 396.000
15.32584 394.000
15.34579 405.000
15.36573 382.000
15.38568 387.000
15.40563 394.000
15.42557 353.000
15.44552 387.000
15.46547 400.000
15.48541 409.000
15.50536 381.000
15.52531 411.000
15.54526 393.000
15.56520 435.000
15.58515 401.000
15.60510 437.000
15.62504 431.000
15.64499 397.000
15.66494 407.000
15.68488 414.000
15.70483 415.000
15.72478 427.000
15.74472 387.000
15.76467 389.000
15.78462 432.000
15.80457 449.000
15.82451 391.000
15.84446 385.000
15.86441 405.000
15.88435 414.000
15.90430 374.000
15.92425 403.000
15.94419 410.000
15.96414 428.000
15.98409 406.000
16.00404 407.000
16.02398 403.000
16.04393 427.000
16.06388 434.000
16.08382 371.000
16.10377 401.000
16.12372 431.000
16.14366 390.000
16.16361 414.000
16.18356 424.000
16.20351 390.000
16.22345 411.000
16.24340 415.000
16.26335 423.000
16.28329 424.000
16.30324 390.000
16.32319 430.000
16.34313 448.000
16.36308 401.000
16.38303 412.000
16.40297 400.000
16.42292 420.000
16.44287 426.000
16.46282 421.000
16.48276 430.000
16.50271 398.000
16.52266 435.000
16.54260 415.000
16.56255 420.000
16.58250 448.000
16.60244 458.000
16.62239 429.000
16.64234 417.000
16.66229 418.000
16.68223 390.000
16.70218 447.000
16.72213 419.000
16.74207 448.000
16.76202 431.000
16.78197 390.000
16.80191 383.000
16.82186 416.000
16.84181 434.000
16.86175 442.000
16.88170 430.000
16.90165 427.000
16.92160 442.000
16.94154 430.000
16.96149 424.000
16.98144 428.000
17.00138 456.000
17.02133 424.000
17.04128 430.000
17.06122 430.000
17.08117 442.000
17.10112 420.000
17.12107 439.000
17.14101 457.000
17.16096 436.000
17.18091 418.000
17.20085 395.000
17.22080 441.000
17.24075 405.000
17.26069 436.000
17.28064 418.000
17.30059 456.000
17.32053 424.000
17.34048 458.000
17.36043 436.000
17.38038 486.000
17.40032 439.000
17.42027 393.000
17.44022 463.000
17.46016 441.000
17.48011 435.000
17.50006 435.000
17.52000 423.000
17.53995 395.000
17.55990 439.000
17.57985 449.000
17.59979 430.000
17.61974 413.000
17.63969 467.000
17.65963 424.000
17.67958 449.000
17.69953 468.000
17.71947 461.000
17.73942 420.000
17.75937 418.000
17.77932 457.000
17.79926 447.000
17.81921 452.000
17.83916 434.000
17.85910 413.000
17.87905 437.000
17.89900 440.000
17.91894 442.000
17.93889 445.000
17.95884 449.000
17.97878 456.000
17.99873 505.000
18.01868 463.000
18.03863 499.000
18.05857 420.000
18.07852 474.000
18.09847 437.000
18.11841 469.000
18.13836 454.000
18.15831 472.000
18.17825 470.000
18.19820 470.000
18.21815 505.000
18.23810 504.000
18.25804 533.000
18.27799 560.000
18.29794 569.000
18.31788 624.000
18.33783 653.000
18.35778 585.000
18.37772 580.000
18.39767 535.000
18.41762 517.000
18.43756 459.000
18.45751 430.000
18.47746 484.000
18.49741 453.000
18.51735 445.000
18.53730 495.000
18.55725 413.000
18.57719 482.000
18.59714 471.000
18.61709 446.000
18.63703 446.000
18.65698 443.000
18.67693 470.000
18.69688 489.000
18.71682 447.000
18.73677 426.000
18.75672 493.000
18.77666 457.000
18.79661 479.000
18.81656 453.000
18.83650 448.000
18.85645 433.000
18.87640 431.000
18.89634 457.000
18.91629 497.000
18.93624 449.000
18.95619 435.000
18.97613 495.000
18.99608 460.000
19.01603 450.000
19.03597 462.000
19.05592 500.000
19.07587 482.000
19.09581 511.000
19.11576 429.000
19.13571 484.000
19.15566 468.000
19.17560 461.000
19.19555 461.000
19.21550 486.000
19.23544 492.000
19.25539 458.000
19.27534 433.000
19.29528 473.000
19.31523 479.000
19.33518 473.000
19.35513 419.000
19.37507 511.000
19.39502 474.000
19.41497 484.000
19.43491 473.000
19.45486 447.000
19.47481 484.000
19.49475 421.000
19.51470 482.000
19.53465 449.000
19.55459 466.000
19.57454 477.000
19.59449 493.000
19.61444 469.000
19.63438 485.000
19.65433 461.000
19.67428 492.000
19.69422 445.000
19.71417 454.000
19.73412 485.000
19.75406 470.000
19.77401 501.000
19.79396 495.000
19.81391 480.000
19.83385 487.000
19.85380 467.000
19.87375 502.000
19.89369 522.000
19.91364 503.000
19.93359 463.000
19.95353 469.000
19.97348 500.000
19.99343 459.000
20.01337 464.000
20.03332 521.000
20.05327 469.000
20.07322 494.000
20.09316 445.000
20.11311 515.000
20.13306 521.000
20.15300 510.000
20.17295 463.000
20.19290 476.000
20.21284 500.000
20.23279 499.000
20.25274 505.000
20.27269 467.000
20.29263 492.000
20.31258 478.000
20.33253 507.000
20.35247 479.000
20.37242 471.000
20.39237 500.000
20.41231 489.000
20.43226 518.000
20.45221 510.000
20.47215 473.000
20.49210 476.000
20.51205 503.000
20.53200 477.000
20.55194 500.000
20.57189 492.000
20.59184 512.000
20.61178 500.000
20.63173 482.000
20.65168 524.000
20.67162 502.000
20.69157 498.000
20.71152 549.000
20.73147 489.000
20.75141 503.000
20.77136 512.000
20.79131 483.000
20.81125 531.000
20.83120 477.000
20.85115 492.000
20.87109 549.000
20.89104 488.000
20.91099 491.000
20.93094 545.000
20.95088 603.000
20.97083 552.000
20.99078 608.000
21.01072 554.000
21.03067 659.000
21.05062 615.000
21.07056 583.000
21.09051 548.000
21.11046 562.000
21.13040 538.000
21.15035 527.000
21.17030 483.000
21.19025 506.000
21.21019 493.000
21.23014 557.000
21.25009 527.000
21.27003 520.000
21.28998 514.000
21.30993 486.000
21.32987 510.000
21.34982 491.000
21.36977 490.000
21.38972 463.000
21.40966 485.000
21.42961 530.000
21.44956 465.000
21.46950 530.000
21.48945 562.000
21.50940 525.000
21.52934 538.000
21.54929 488.000
21.56924 496.000
21.58918 499.000
21.60913 563.000
21.62908 526.000
21.64903 493.000
21.66897 509.000
21.68892 535.000
21.70887 530.000
21.72881 523.000
21.74876 502.000
21.76871 527.000
21.78865 486.000
21.80860 531.000
21.82855 522.000
21.84850 565.000
21.86844 487.000
21.88839 489.000
21.90834 459.000
21.92828 533.000
21.94823 514.000
21.96818 503.000
21.98812 521.000
22.00807 475.000
22.02802 547.000
22.04796 519.000
22.06791 499.000
22.08786 486.000
22.10781 525.000
22.12775 460.000
22.14770 519.000
22.16765 530.000
22.18759 482.000
22.20754 500.000
22.22749 566.000
22.24743 544.000
22.26738 507.000
22.28733 604.000
22.30728 490.000
22.32722 507.000
22.34717 487.000
22.36712 544.000
22.38706 511.000
22.40701 528.000
22.42696 557.000
22.44690 547.000
22.46685 536.000
22.48680 548.000
22.50675 530.000
22.52669 533.000
22.54664 537.000
22.56659 554.000
22.58653 550.000
22.60648 538.000
22.62643 512.000
22.64637 565.000
22.66632 536.000
22.68627 521.000
22.70621 563.000
22.72616 560.000
22.74611 568.000
22.76606 520.000
22.78600 545.000
22.80595 502.000
22.82590 542.000
22.84584 537.000
22.86579 492.000
22.88574 544.000
22.90568 604.000
22.92563 515.000
22.94558 522.000
22.96553 542.000
22.98547 554.000
23.00542 569.000
23.02537 540.000
23.04531 553.000
23.06526 545.000
23.08521 541.000
23.10515 552.000
23.12510 494.000
23.14505 530.000
23.16499 547.000
23.18494 549.000
23.20489 519.000
23.22484 506.000
23.24478 508.000
23.26473 527.000
23.28468 560.000
23.30462 562.000
23.32457 549.000
23.34452 550.000
23.36446 532.000
23.38441 555.000
23.40436 554.000
23.42431 552.000
23.44425 553.000
23.46420 512.000
23.48415 548.000
23.50409 545.000
23.52404 556.000
23.54399 582.000
23.56393 564.000
23.58388 526.000
23.60383 555.000
23.62377 545.000
23.64372 546.000
23.66367 543.000
23.68362 532.000
23.70356 534.000
23.72351 552.000
23.74346 530.000
23.76340 544.000
23.78335 525.000
23.80330 498.000
23.82324 542.000
23.84319 538.000
23.86314 551.000
23.88309 524.000
23.90303 552.000
23.92298 564.000
23.94293 554.000
23.96287 532.000
23.98282 562.000
24.00277 547.000
24.02271 574.000
24.04266 535.000
24.06261 557.000
24.08256 557.000
24.10250 541.000
24.12245 563.000
24.14240 545.000
24.16234 581.000
24.18229 541.000
24.20224 549.000
24.22218 533.000
24.24213 568.000
24.26208 525.000
24.28202 573.000
24.30197 560.000
24.32192 584.000
24.34187 505.000
24.36181 566.000
24.38176 566.000
24.40171 552.000
24.42165 493.000
24.44160 552.000
24.46155 545.000
24.48149 577.000
24.50144 520.000
24.52139 577.000
24.54134 597.000
24.56128 581.000
24.58123 541.000
24.60118 540.000
24.62112 599.000
24.64107 552.000
24.66102 582.000
24.68096 569.000
24.70091 526.000
24.72086 582.000
24.74080 537.000
24.76075 637.000
24.78070 558.000
24.80065 584.000
24.82059 567.000
24.84054 551.000
24.86049 609.000
24.88043 543.000
24.90038 593.000
24.92033 580.000
24.94027 545.000
24.96022 578.000
24.98017 557.000
25.00012 556.000
25.02006 569.000
25.04001 617.000
25.05996 591.000
25.07990 570.000
25.09985 576.000
25.11980 537.000
25.13974 623.000
25.15969 581.000
25.17964 558.000
25.19958 544.000
25.21953 575.000
25.23948 585.000
25.25943 582.000
25.27937 597.000
25.29932 570.000
25.31927 535.000
25.33921 568.000
25.35916 539.000
25.37911 566.000
25.39905 587.000
25.41900 575.000
25.43895 620.000
25.45890 594.000
25.47884 590.000
25.49879 602.000
25.51874 586.000
25.53868 597.000
25.55863 582.000
25.57858 651.000
25.59852 587.000
25.61847 627.000
25.63842 594.000
25.65837 601.000
25.67831 567.000
25.69826 559.000
25.71821 546.000
25.73815 577.000
25.75810 613.000
25.77805 565.000
25.79799 594.000
25.81794 615.000
25.83789 581.000
25.85783 602.000
25.87778 613.000
25.89773 611.000
25.91768 570.000
25.93762 592.000
25.95757 581.000
25.97752 539.000
25.99746 600.000
26.01741 602.000
26.03736 554.000
26.05730 582.000
26.07725 625.000
26.09720 593.000
26.11715 575.000
26.13709 573.000
26.15704 633.000
26.17699 593.000
26.19693 567.000
26.21688 595.000
26.23683 613.000
26.25677 604.000
26.27672 609.000
26.29667 603.000
26.31661 649.000
26.33656 604.000
26.35651 654.000
26.37646 554.000
26.39640 604.000
26.41635 581.000
26.43630 634.000
26.45624 596.000
26.47619 582.000
26.49614 619.000
26.51608 608.000
26.53603 595.000
26.55598 615.000
26.57593 596.000
26.59587 591.000
26.61582 580.000
26.63577 576.000
26.65571 579.000
26.67566 618.000
26.69561 604.000
26.71555 610.000
26.73550 632.000
26.75545 587.000
26.77539 599.000
26.79534 568.000
26.81529 609.000
26.83524 638.000
26.85518 607.000
26.87513 609.000
26.89508 567.000
26.91502 584.000
26.93497 633.000
26.95492 664.000
26.97486 647.000
26.99481 593.000
27.01476 603.000
27.03471 660.000
27.05465 638.000
27.07460 604.000
27.09455 637.000
27.11449 599.000
27.13444 638.000
27.15439 619.000
27.17433 650.000
27.19428 623.000
27.21423 644.000
27.23417 586.000
27.25412 588.000
27.27407 611.000
27.29402 623.000
27.31396 613.000
27.33391 636.000
27.35386 648.000
27.37380 636.000
27.39375 664.000
27.41370 642.000
27.43364 602.000
27.45359 628.000
27.47354 590.000
27.49349 612.000
27.51343 663.000
27.53338 647.000
27.55333 612.000
27.57327 663.000
27.59322 691.000
27.61317 638.000
27.63311 663.000
27.65306 611.000
27.67301 616.000
27.69296 670.000
27.71290 609.000
27.73285 583.000
27.75280 616.000
27.77274 646.000
27.79269 662.000
27.81264 616.000
27.83258 638.000
27.85253 642.000
27.87248 651.000
27.89242 623.000
27.91237 611.000
27.93232 602.000
27.95227 632.000
27.97221 652.000
27.99216 635.000
28.01211 644.000
28.03205 668.000
28.05200 654.000
28.07195 628.000
28.09189 612.000
28.11184 618.000
28.13179 648.000
28.15174 640.000
28.17168 631.000
28.19163 638.000
28.21158 640.000
28.23152 620.000
28.25147 648.000
28.27142 614.000
28.29136 685.000
28.31131 656.000
28.33126 632.000
28.35120 657.000
28.37115 632.000
28.39110 675.000
28.41105 633.000
28.43099 638.000
28.45094 661.000
28.47089 635.000
28.49083 644.000
28.51078 608.000
28.53073 625.000
28.55067 677.000
28.57062 577.000
28.59057 650.000
28.61052 599.000
28.63046 661.000
28.65041 641.000
28.67036 643.000
28.69030 659.000
28.71025 687.000
28.73020 663.000
28.75014 696.000
28.77009 651.000
28.79004 614.000
28.80998 625.000
28.82993 625.000
28.84988 634.000
28.86983 632.000
28.88977 662.000
28.90972 654.000
28.92967 654.000
28.94961 666.000
28.96956 610.000
28.98951 662.000
29.00945 648.000
29.02940 627.000
29.04935 621.000
29.06930 701.000
29.08924 631.000
29.10919 640.000
29.12914 630.000
29.14908 628.000
29.16903 629.000
29.18898 670.000
29.20892 718.000
29.22887 667.000
29.24882 687.000
29.26877 636.000
29.28871 653.000
29.30866 633.000
29.32861 682.000
29.34855 671.000
29.36850 621.000
29.38845 601.000
29.40839 692.000
29.42834 663.000
29.44829 664.000
29.46823 660.000
29.48818 692.000
29.50813 627.000
29.52808 643.000
29.54802 663.000
29.56797 717.000
29.58792 688.000
29.60786 667.000
29.62781 691.000
29.64776 719.000
29.66770 673.000
29.68765 669.000
29.70760 670.000
29.72755 661.000
29.74749 655.000
29.76744 721.000
29.78739 690.000
29.80733 754.000
29.82728 678.000
29.84723 691.000
29.86717 660.000
29.88712 697.000
29.90707 686.000
29.92701 665.000
29.94696 703.000
29.96691 725.000
29.98686 703.000
30.00680 725.000
30.02675 746.000
30.04670 765.000
30.06664 794.000
30.08659 831.000
30.10654 880.000
30.12648 858.000
30.14643 949.000
30.16638 1056.000
30.18633 1140.000
30.20627 1116.000
30.22622 1067.000
30.24617 1012.000
30.26611 986.000
30.28606 867.000
30.30601 806.000
30.32595 756.000
30.34590 708.000
30.36585 676.000
30.38579 646.000
30.40574 632.000
30.42569 678.000
30.44564 714.000
30.46558 644.000
30.48553 674.000
30.50548 646.000
30.52542 671.000
30.54537 697.000
30.56532 671.000
30.58526 644.000
30.60521 715.000
30.62516 673.000
30.64511 690.000
30.66505 642.000
30.68500 665.000
30.70495 684.000
30.72489 685.000
30.74484 674.000
30.76479 644.000
30.78473 695.000
30.80468 714.000
30.82463 672.000
30.84458 656.000
30.86452 671.000
30.88447 673.000
30.90442 674.000
30.92436 682.000
30.94431 661.000
30.96426 653.000
30.98420 693.000
31.00415 623.000
31.02410 688.000
31.04404 642.000
31.06399 667.000
31.08394 638.000
31.10389 667.000
31.12383 668.000
31.14378 626.000
31.16373 656.000
31.18367 640.000
31.20362 660.000
31.22357 645.000
31.24351 665.000
31.26346 677.000
31.28341 668.000
31.30336 644.000
31.32330 672.000
31.34325 607.000
31.36320 649.000
31.38314 657.000
31.40309 694.000
31.42304 664.000
31.44298 706.000
31.46293 674.000
31.48288 667.000
31.50282 708.000
31.52277 728.000
31.54272 597.000
31.56267 632.000
31.58261 643.000
31.60256 700.000
31.62251 729.000
31.64245 643.000
31.66240 636.000
31.68235 680.000
31.70229 654.000
31.72224 676.000
31.74219 679.000
31.76214 638.000
31.78208 673.000
31.80203 643.000
31.82198 715.000
31.84192 672.000
31.86187 651.000
31.88182 674.000
31.90176 698.000
31.92171 686.000
31.94166 707.000
31.96160 649.000
31.98155 685.000
32.00150 692.000
32.02145 696.000
32.04139 714.000
32.06134 717.000
32.08129 711.000
32.10123 697.000
32.12118 692.000
32.14113 683.000
32.16107 719.000
32.18102 700.000
32.20097 731.000
32.22092 753.000
32.24086 742.000
32.26081 754.000
32.28076 802.000
32.30070 850.000
32.32065 910.000
32.34060 947.000
32.36054 1038.000
32.38049 1079.000
32.40044 1022.000
32.42039 1026.000
32.44033 973.000
32.46028 926.000
32.48023 884.000
32.50017 866.000
32.52012 776.000
32.54007 786.000
32.56001 716.000
32.57996 680.000
32.59991 673.000
32.61985 651.000
32.63980 652.000
32.65975 664.000
32.67970 636.000
32.69964 649.000
32.71959 611.000
32.73954 648.000
32.75948 628.000
32.77943 652.000
32.79938 634.000
32.81932 662.000
32.83927 668.000
32.85922 654.000
32.87917 669.000
32.89911 678.000
32.91906 639.000
32.93901 631.000
32.95895 642.000
32.97890 696.000
32.99885 617.000
33.01879 618.000
33.03874 639.000
33.05869 650.000
33.07863 621.000
33.09858 632.000
33.11853 669.000
33.13848 670.000
33.15842 619.000
33.17837 672.000
33.19832 667.000
33.21826 661.000
33.23821 654.000
33.25816 648.000
33.27810 669.000
33.29805 633.000
33.31800 649.000
33.33795 681.000
33.35789 652.000
33.37784 677.000
33.39779 656.000
33.41773 653.000
33.43768 655.000
33.45763 610.000
33.47757 672.000
33.49752 607.000
33.51747 674.000
33.53741 689.000
33.55736 647.000
33.57731 637.000
33.59726 627.000
33.61720 653.000
33.63715 660.000
33.65710 678.000
33.67704 633.000
33.69699 618.000
33.71694 612.000
33.73688 664.000
33.75683 622.000
33.77678 696.000
33.79673 654.000
33.81667 693.000
33.83662 606.000
33.85657 658.000
33.87651 634.000
33.89646 641.000
33.91641 650.000
33.93635 656.000
33.95630 648.000
33.97625 647.000
33.99620 665.000
34.01614 727.000
34.03609 661.000
34.05604 618.000
34.07598 654.000
34.09593 657.000
34.11588 701.000
34.13582 628.000
34.15577 707.000
34.17572 644.000
34.19566 671.000
34.21561 652.000
34.23556 692.000
34.25551 627.000
34.27545 661.000
34.29540 669.000
34.31535 645.000
34.33529 664.000
34.35524 622.000
34.37519 663.000
34.39513 691.000
34.41508 684.000
34.43503 682.000
34.45498 702.000
34.47492 711.000
34.49487 696.000
34.51482 698.000
34.53476 721.000
34.55471 765.000
34.57466 732.000
34.59460 747.000
34.61455 793.000
34.63450 781.000
34.65444 755.000
34.67439 808.000
34.69434 781.000
34.71429 737.000
34.73423 813.000
34.75418 818.000
34.77413 813.000
34.79407 842.000
34.81402 802.000
34.83397 895.000
34.85391 923.000
34.87386 897.000
34.89381 876.000
34.91376 932.000
34.93370 956.000
34.95365 1016.000
34.97360 1024.000
34.99354 1041.000
35.01349 1107.000
35.03344 1170.000
35.05338 1180.000
35.07333 1206.000
35.09328 1299.000
35.11322 1346.000
35.13317 1387.000
35.15312 1456.000
35.17307 1575.000
35.19301 1645.000
35.21296 1709.000
35.23291 2034.000
35.25285 2036.000
35.27280 2419.000
35.29275 2815.000
35.31269 3129.000
35.33264 3468.000
35.35259 3726.000
35.37254 3665.000
35.39248 3989.000
35.41243 4347.000
35.43238 4701.000
35.45232 5045.000
35.47227 5115.000
35.49222 4797.000
35.51216 4570.000
35.53211 4545.000
35.55206 4490.000
35.57201 4251.000
35.59195 3888.000
35.61190 3286.000
35.63185 2665.000
35.65179 2211.000
35.67174 2065.000
35.69169 1818.000
35.71163 1444.000
35.73158 1195.000
35.75153 1041.000
35.77147 904.000
35.79142 831.000
35.81137 798.000
35.83132 799.000
35.85126 769.000
35.87121 794.000
35.89116 744.000
35.91110 751.000
35.93105 711.000
35.95100 737.000
35.97094 698.000
35.99089 714.000
36.01084 688.000
36.03079 696.000
36.05073 687.000
36.07068 626.000
36.09063 669.000
36.11057 692.000
36.13052 691.000
36.15047 665.000
36.17041 666.000
36.19036 654.000
36.21031 676.000
36.23025 670.000
36.25020 692.000
36.27015 665.000
36.29010 671.000
36.31004 666.000
36.32999 681.000
36.34994 671.000
36.36988 677.000
36.38983 648.000
36.40978 688.000
36.42972 665.000
36.44967 695.000
36.46962 685.000
36.48957 689.000
36.50951 631.000
36.52946 668.000
36.54941 665.000
36.56935 707.000
36.58930 688.000
36.60925 697.000
36.62919 658.000
36.64914 660.000
36.66909 679.000
36.68903 671.000
36.70898 698.000
36.72893 695.000
36.74888 667.000
36.76882 717.000
36.78877 699.000
36.80872 694.000
36.82866 684.000
36.84861 721.000
36.86856 740.000
36.88850 768.000
36.90845 739.000
36.92840 769.000
36.94835 793.000
36.96829 892.000
36.98824 902.000
37.00819 911.000
37.02813 910.000
37.04808 1040.000
37.06803 1060.000
37.08797 1061.000
37.10792 1089.000
37.12787 1101.000
37.14781 1002.000
37.16776 965.000
37.18771 988.000
37.20766 908.000
37.22760 968.000
37.24755 872.000
37.26750 723.000
37.28744 717.000
37.30739 719.000
37.32734 746.000
37.34728 657.000
37.36723 661.000
37.38718 688.000
37.40713 646.000
37.42707 688.000
37.44702 704.000
37.46697 683.000
37.48691 664.000
37.50686 674.000
37.52681 657.000
37.54675 697.000
37.56670 680.000
37.58665 686.000
37.60660 689.000
37.62654 701.000
37.64649 675.000
37.66644 699.000
37.68638 724.000
37.70633 711.000
37.72628 731.000
37.74622 784.000
37.76617 791.000
37.78612 727.000
37.80606 763.000
37.82601 800.000
37.84596 745.000
37.86591 810.000
37.88585 766.000
37.90580 811.000
37.92575 863.000
37.94569 832.000
37.96564 823.000
37.98559 879.000
38.00553 886.000
38.02548 870.000
38.04543 951.000
38.06538 1055.000
38.08532 950.000
38.10527 1028.000
38.12522 1136.000
38.14516 1088.000
38.16511 1113.000
38.18506 1259.000
38.20500 1206.000
38.22495 1242.000
38.24490 1318.000
38.26484 1327.000
38.28479 1345.000
38.30474 1497.000
38.32469 1454.000
38.34463 1564.000
38.36458 1637.000
38.38453 1829.000
38.40447 2061.000
38.42442 2233.000
38.44437 2390.000
38.46431 2876.000
38.48426 3170.000
38.50421 3736.000
38.52416 4012.000
38.54410 4265.000
38.56405 4392.000
38.58400 4415.000
38.60394 4132.000
38.62389 3930.000
38.64384 3611.000
38.66378 3308.000
38.68373 2993.000
38.70368 2520.000
38.72362 2286.000
38.74357 2042.000
38.76352 1816.000
38.78347 1554.000
38.80341 1554.000
38.82336 1482.000
38.84331 1475.000
38.86325 1469.000
38.88320 1541.000
38.90315 1615.000
38.92309 1534.000
38.94304 1549.000
38.96299 1502.000
38.98294 1486.000
39.00288 1379.000
39.02283 1276.000
39.04278 1252.000
39.06272 1081.000
39.08267 1018.000
39.10262 993.000
39.12256 871.000
39.14251 916.000
39.16246 855.000
39.18241 814.000
39.20235 737.000
39.22230 751.000
39.24225 744.000
39.26219 738.000
39.28214 752.000
39.30209 727.000
39.32203 684.000
39.34198 706.000
39.36193 688.000
39.38187 706.000
39.40182 704.000
39.42177 646.000
39.44172 677.000
39.46166 674.000
39.48161 685.000
39.50156 622.000
39.52150 639.000
39.54145 613.000
39.56140 639.000
39.58134 608.000
39.60129 621.000
39.62124 647.000
39.64119 624.000
39.66113 630.000
39.68108 631.000
39.70103 654.000
39.72097 614.000
39.74092 647.000
39.76087 669.000
39.78081 633.000
39.80076 620.000
39.82071 628.000
39.84065 642.000
39.86060 606.000
39.88055 641.000
39.90050 606.000
39.92044 662.000
39.94039 612.000
39.96034 620.000
39.98028 644.000
40.00023 598.000
40.02018 614.000
40.04012 614.000
40.06007 675.000
40.08002 605.000
40.09997 580.000
40.11991 625.000
40.13986 619.000
40.15981 649.000
40.17975 639.000
40.19970 634.000
40.21965 656.000
40.23959 607.000
40.25954 584.000
40.27949 602.000
40.29943 589.000
40.31938 590.000
40.33933 626.000
40.35928 600.000
40.37922 626.000
40.39917 586.000
40.41912 627.000
40.43906 645.000
40.45901 633.000
40.47896 604.000
40.49890 613.000
40.51885 649.000
40.53880 600.000
40.55875 579.000
40.57869 632.000
40.59864 598.000
40.61859 595.000
40.63853 647.000
40.65848 625.000
40.67843 589.000
40.69837 578.000
40.71832 585.000
40.73827 613.000
40.75822 609.000
40.77816 632.000
40.79811 617.000
40.81806 615.000
40.83800 605.000
40.85795 625.000
40.87790 585.000
40.89784 607.000
40.91779 654.000
40.93774 573.000
40.95768 628.000
40.97763 627.000
40.99758 606.000
41.01753 617.000
41.03747 579.000
41.05742 629.000
41.07737 581.000
41.09731 623.000
41.11726 605.000
41.13721 627.000
41.15715 595.000
41.17710 575.000
41.19705 564.000
41.21700 573.000
41.23694 575.000
41.25689 599.000
41.27684 614.000
41.29678 582.000
41.31673 564.000
41.33668 552.000
41.35662 593.000
41.37657 625.000
41.39652 592.000
41.41646 640.000
41.43641 574.000
41.45636 598.000
41.47631 617.000
41.49625 642.000
41.51620 613.000
41.53615 640.000
41.55609 586.000
41.57604 600.000
41.59599 609.000
41.61593 673.000
41.63588 602.000
41.65583 679.000
41.67578 638.000
41.69572 618.000
41.71567 607.000
41.73562 631.000
41.75556 602.000
41.77551 612.000
41.79546 591.000
41.81540 599.000
41.83535 620.000
41.85530 631.000
41.87524 618.000
41.89519 594.000
41.91514 625.000
41.93509 602.000
41.95503 638.000
41.97498 644.000
41.99493 615.000
42.01487 615.000
42.03482 594.000
42.05477 612.000
42.07471 617.000
42.09466 612.000
42.11461 593.000
42.13456 576.000
42.15450 575.000
42.17445 600.000
42.19440 577.000
42.21434 589.000
42.23429 593.000
42.25424 607.000
42.27418 584.000
42.29413 618.000
42.31408 624.000
42.33403 579.000
42.35397 621.000
42.37392 619.000
42.39387 603.000
42.41381 637.000
42.43376 599.000
42.45371 636.000
42.47365 607.000
42.49360 613.000
42.51355 627.000
42.53349 654.000
42.55344 631.000
42.57339 670.000
42.59334 644.000
42.61328 626.000
42.63323 599.000
42.65318 603.000
42.67312 653.000
42.69307 659.000
42.71302 658.000
42.73296 715.000
42.75291 726.000
42.77286 770.000
42.79281 738.000
42.81275 756.000
42.83270 740.000
42.85265 739.000
42.87259 775.000
42.89254 770.000
42.91249 805.000
42.93243 805.000
42.95238 827.000
42.97233 942.000
42.99227 926.000
43.01222 1002.000
43.03217 1038.000
43.05212 1144.000
43.07206 1133.000
43.09201 1204.000
43.11196 1168.000
43.13190 1243.000
43.15185 1192.000
43.17180 1177.000
43.19174 1227.000
43.21169 1204.000
43.23164 1222.000
43.25159 1098.000
43.27153 1148.000
43.29148 1011.000
43.31143 991.000
43.33137 922.000
43.35132 811.000
43.37127 761.000
43.39121 816.000
43.41116 746.000
43.43111 699.000
43.45105 697.000
43.47100 673.000
43.49095 635.000
43.51090 621.000
43.53084 627.000
43.55079 612.000
43.57074 624.000
43.59068 647.000
43.61063 563.000
43.63058 621.000
43.65052 608.000
43.67047 589.000
43.69042 618.000
43.71037 631.000
43.73031 602.000
43.75026 648.000
43.77021 603.000
43.79015 588.000
43.81010 584.000
43.83005 601.000
43.84999 575.000
43.86994 617.000
43.88989 613.000
43.90984 581.000
43.92978 613.000
43.94973 604.000
43.96968 609.000
43.98962 593.000
44.00957 585.000
44.02952 604.000
44.04946 589.000
44.06941 578.000
44.08936 574.000
44.10930 563.000
44.12925 586.000
44.14920 558.000
44.16915 587.000
44.18909 637.000
44.20904 615.000
44.22899 580.000
44.24893 627.000
44.26888 587.000
44.28883 621.000
44.30877 577.000
44.32872 578.000
44.34867 620.000
44.36862 553.000
44.38856 597.000
44.40851 588.000
44.42846 575.000
44.44840 620.000
44.46835 570.000
44.48830 531.000
44.50824 588.000
44.52819 587.000
44.54814 562.000
44.56808 572.000
44.58803 616.000
44.60798 604.000
44.62793 559.000
44.64787 576.000
44.66782 591.000
44.68777 602.000
44.70771 588.000
44.72766 601.000
44.74761 608.000
44.76755 585.000
44.78750 544.000
44.80745 564.000
44.82740 598.000
44.84734 560.000
44.86729 602.000
44.88724 594.000
44.90718 558.000
44.92713 623.000
44.94708 641.000
44.96702 597.000
44.98697 569.000
45.00692 570.000
45.02686 606.000
45.04681 593.000
45.06676 559.000
45.08671 611.000
45.10665 579.000
45.12660 646.000
45.14655 591.000
45.16649 591.000
45.18644 611.000
45.20639 574.000
45.22633 586.000
45.24628 568.000
45.26623 619.000
45.28618 594.000
45.30612 585.000
45.32607 595.000
45.34602 577.000
45.36596 569.000
45.38591 581.000
45.40586 591.000
45.42580 579.000
45.44575 603.000
45.46570 592.000
45.48565 587.000
45.50559 566.000
45.52554 590.000
45.54549 566.000
45.56543 591.000
45.58538 576.000
45.60533 560.000
45.62527 558.000
45.64522 567.000
45.66517 623.000
45.68511 580.000
45.70506 641.000
45.72501 566.000
45.74496 598.000
45.76490 580.000
45.78485 540.000
45.80480 552.000
45.82474 620.000
45.84469 596.000
45.86464 594.000
45.88458 591.000
45.90453 606.000
45.92448 600.000
45.94443 620.000
45.96437 603.000
45.98432 593.000
46.00427 572.000
46.02421 631.000
46.04416 663.000
46.06411 663.000
46.08405 617.000
46.10400 643.000
46.12395 691.000
46.14389 658.000
46.16384 678.000
46.18379 668.000
46.20374 716.000
46.22368 690.000
46.24363 650.000
46.26358 707.000
46.28352 671.000
46.30347 653.000
46.32342 599.000
46.34336 667.000
46.36331 668.000
46.38326 582.000
46.40321 598.000
46.42315 637.000
46.44310 606.000
46.46305 560.000
46.48299 607.000
46.50294 641.000
46.52289 635.000
46.54283 596.000
46.56278 594.000
46.58273 608.000
46.60267 567.000
46.62262 564.000
46.64257 533.000
46.66252 645.000
46.68246 591.000
46.70241 558.000
46.72236 597.000
46.74230 564.000
46.76225 634.000
46.78220 622.000
46.80214 609.000
46.82209 604.000
46.84204 585.000
46.86199 596.000
46.88193 585.000
46.90188 554.000
46.92183 548.000
46.94177 555.000
46.96172 567.000
46.98167 610.000
47.00161 579.000
47.02156 579.000
47.04151 560.000
47.06146 623.000
47.08140 577.000
47.10135 532.000
47.12130 566.000
47.14124 567.000
47.16119 602.000
47.18114 583.000
47.20108 569.000
47.22103 568.000
47.24098 586.000
47.26092 577.000
47.28087 554.000
47.30082 606.000
47.32077 559.000
47.34071 587.000
47.36066 552.000
47.38061 546.000
47.40055 605.000
47.42050 602.000
47.44045 564.000
47.46039 574.000
47.48034 599.000
47.50029 555.000
47.52024 574.000
47.54018 590.000
47.56013 606.000
47.58008 589.000
47.60002 555.000
47.61997 580.000
47.63992 568.000
47.65986 579.000
47.67981 520.000
47.69976 596.000
47.71970 577.000
47.73965 569.000
47.75960 560.000
47.77955 600.000
47.79949 596.000
47.81944 555.000
47.83939 550.000
47.85933 610.000
47.87928 568.000
47.89923 561.000
47.91917 609.000
47.93912 529.000
47.95907 577.000
47.97902 569.000
47.99896 593.000
48.01891 569.000
48.03886 616.000
48.05880 612.000
48.07875 600.000
48.09870 598.000
48.11864 628.000
48.13859 641.000
48.15854 591.000
48.17848 596.000
48.19843 603.000
48.21838 636.000
48.23833 606.000
48.25827 707.000
48.27822 632.000
48.29817 646.000
48.31811 595.000
48.33806 666.000
48.35801 640.000
48.37795 691.000
48.39790 708.000
48.41785 678.000
48.43780 697.000
48.45774 731.000
48.47769 702.000
48.49764 755.000
48.51758 752.000
48.53753 747.000
48.55748 789.000
48.57742 822.000
48.59737 828.000
48.61732 864.000
48.63726 885.000
48.65721 962.000
48.67716 1073.000
48.69711 1160.000
48.71705 1170.000
48.73700 1232.000
48.75695 1327.000
48.77689 1445.000
48.79684 1492.000
48.81679 1559.000
48.83673 1598.000
48.85668 1451.000
48.87663 1428.000
48.89658 1434.000
48.91652 1350.000
48.93647 1287.000
48.95642 1261.000
48.97636 1140.000
48.99631 1071.000
49.01626 1019.000
49.03620 935.000
49.05615 891.000
49.07610 819.000
49.09605 756.000
49.11599 736.000
49.13594 730.000
49.15589 697.000
49.17583 689.000
49.19578 651.000
49.21573 668.000
49.23567 650.000
49.25562 642.000
49.27557 603.000
49.29551 623.000
49.31546 641.000
49.33541 624.000
49.35536 577.000
49.37530 623.000
49.39525 610.000
49.41520 636.000
49.43514 613.000
49.45509 596.000
49.47504 585.000
49.49498 639.000
49.51493 576.000
49.53488 589.000
49.55483 609.000
49.57477 570.000
49.59472 621.000
49.61467 592.000
49.63461 615.000
49.65456 626.000
49.67451 587.000
49.69445 594.000
49.71440 603.000
49.73435 577.000
49.75429 601.000
49.77424 566.000
49.79419 609.000
49.81414 566.000
49.83408 587.000
49.85403 540.000
49.87398 556.000
49.89392 658.000
49.91387 564.000
49.93382 595.000
49.95376 595.000
49.97371 545.000
49.99366 581.000
50.01361 629.000
50.03355 537.000
50.05350 551.000
50.07345 541.000
50.09339 609.000
50.11334 602.000
50.13329 579.000
50.15323 551.000
50.17318 616.000
50.19313 607.000
50.21307 593.000
50.23302 517.000
50.25297 596.000
50.27292 582.000
50.29286 593.000
50.31281 557.000
50.33276 564.000
50.35270 569.000
50.37265 551.000
50.39260 600.000
50.41254 589.000
50.43249 620.000
50.45244 591.000
50.47239 560.000
50.49233 594.000
50.51228 545.000
50.53223 579.000
50.55217 583.000
50.57212 535.000
50.59207 580.000
50.61201 623.000
50.63196 588.000
50.65191 573.000
50.67186 565.000
50.69180 556.000
50.71175 569.000
50.73170 629.000
50.75164 581.000
50.77159 612.000
50.79154 615.000
50.81148 593.000
50.83143 609.000
50.85138 587.000
50.87132 602.000
50.89127 625.000
50.91122 617.000
50.93117 559.000
50.95111 567.000
50.97106 601.000
50.99101 594.000
51.01095 549.000
51.03090 542.000
51.05085 580.000
51.07079 628.000
51.09074 639.000
51.11069 586.000
51.13064 647.000
51.15058 598.000
51.17053 623.000
51.19048 618.000
51.21042 668.000
51.23037 618.000
51.25032 640.000
51.27026 641.000
51.29021 586.000
51.31016 566.000
51.33010 612.000
51.35005 623.000
51.37000 566.000
51.38995 555.000
51.40989 567.000
51.42984 574.000
51.44979 595.000
51.46973 616.000
51.48968 583.000
51.50963 552.000
51.52957 552.000
51.54952 564.000
51.56947 594.000
51.58942 578.000
51.60936 590.000
51.62931 618.000
51.64926 574.000
51.66920 603.000
51.68915 606.000
51.70910 543.000
51.72904 588.000
51.74899 551.000
51.76894 588.000
51.78888 601.000
51.80883 546.000
51.82878 575.000
51.84873 574.000
51.86867 612.000
51.88862 564.000
51.90857 611.000
51.92851 599.000
51.94846 581.000
51.96841 570.000
51.98835 580.000
52.00830 575.000
52.02825 542.000
52.04820 563.000
52.06814 573.000
52.08809 557.000
52.10804 574.000
52.12798 601.000
52.14793 599.000
52.16788 584.000
52.18782 608.000
52.20777 590.000
52.22772 595.000
52.24767 580.000
52.26761 559.000
52.28756 580.000
52.30751 551.000
52.32745 589.000
52.34740 561.000
52.36735 597.000
52.38729 581.000
52.40724 596.000
52.42719 560.000
52.44713 610.000
52.46708 585.000
52.48703 594.000
52.50698 631.000
52.52692 597.000
52.54687 572.000
52.56682 599.000
52.58676 573.000
52.60671 578.000
52.62666 591.000
52.64660 527.000
52.66655 590.000
52.68650 595.000
52.70645 606.000
52.72639 575.000
52.74634 626.000
52.76629 613.000
52.78623 628.000
52.80618 628.000
52.82613 630.000
52.84607 639.000
52.86602 644.000
52.88597 647.000
52.90591 651.000
52.92586 637.000
52.94581 633.000
52.96576 692.000
52.98570 615.000
53.00565 680.000
53.02560 685.000
53.04554 721.000
53.06549 697.000
53.08544 735.000
53.10538 763.000
53.12533 799.000
53.14528 747.000
53.16523 793.000
53.18517 804.000
53.20512 763.000
53.22507 806.000
53.24501 829.000
53.26496 854.000
53.28491 849.000
53.30485 790.000
53.32480 826.000
53.34475 834.000
53.36469 768.000
53.38464 737.000
53.40459 746.000
53.42454 739.000
53.44448 751.000
53.46443 752.000
53.48438 718.000
53.50432 731.000
53.52427 734.000
53.54422 689.000
53.56416 670.000
53.58411 664.000
53.60406 666.000
53.62401 655.000
53.64395 680.000
53.66390 733.000
53.68385 784.000
53.70379 754.000
53.72374 717.000
53.74369 765.000
53.76363 645.000
53.78358 671.000
53.80353 636.000
53.82348 664.000
53.84342 642.000
53.86337 670.000
53.88332 585.000
53.90326 598.000
53.92321 619.000
53.94316 580.000
53.96310 529.000
53.98305 549.000
54.00300 556.000
54.02294 558.000
54.04289 568.000
54.06284 546.000
54.08279 598.000
54.10273 585.000
54.12268 586.000
54.14263 616.000
54.16257 580.000
54.18252 553.000
54.20247 589.000
54.22241 602.000
54.24236 589.000
54.26231 599.000
54.28226 576.000
54.30220 579.000
54.32215 540.000
54.34210 597.000
54.36204 583.000
54.38199 519.000
54.40194 568.000
54.42188 555.000
54.44183 546.000
54.46178 574.000
54.48172 568.000
54.50167 570.000
54.52162 570.000
54.54157 550.000
54.56151 547.000
54.58146 554.000
54.60141 597.000
54.62135 550.000
54.64130 555.000
54.66125 548.000
54.68119 548.000
54.70114 546.000
54.72109 561.000
54.74104 576.000
54.76098 536.000
54.78093 588.000
54.80088 538.000
54.82082 556.000
54.84077 586.000
54.86072 536.000
54.88066 589.000
54.90061 585.000
54.92056 536.000
54.94050 555.000
54.96045 573.000
54.98040 588.000
55.00035 568.000
55.02029 596.000
55.04024 544.000
55.06019 560.000
55.08013 581.000
55.10008 574.000
55.12003 548.000
55.13997 555.000
55.15992 535.000
55.17987 585.000
55.19982 585.000
55.21976 547.000
55.23971 556.000
55.25966 600.000
55.27960 519.000
55.29955 594.000
55.31950 593.000
55.33944 561.000
55.35939 559.000
55.37934 546.000
55.39929 593.000
55.41923 542.000
55.43918 537.000
55.45913 551.000
55.47907 611.000
55.49902 560.000
55.51897 551.000
55.53891 558.000
55.55886 585.000
55.57881 613.000
55.59875 566.000
55.61870 586.000
55.63865 551.000
55.65860 551.000
55.67854 572.000
55.69849 588.000
55.71844 587.000
55.73838 538.000
55.75833 546.000
55.77828 555.000
55.79822 523.000
55.81817 550.000
55.83812 592.000
55.85807 547.000
55.87801 540.000
55.89796 592.000
55.91791 605.000
55.93785 569.000
55.95780 569.000
55.97775 565.000
55.99769 592.000
56.01764 563.000
56.03759 566.000
56.05753 582.000
56.07748 597.000
56.09743 611.000
56.11738 586.000
56.13732 583.000
56.15727 595.000
56.17722 570.000
56.19716 581.000
56.21711 595.000
56.23706 613.000
56.25700 628.000
56.27695 586.000
56.29690 610.000
56.31685 594.000
56.33679 609.000
56.35674 536.000
56.37669 558.000
56.39663 576.000
56.41658 580.000
56.43653 573.000
56.45647 574.000
56.47642 571.000
56.49637 597.000
56.51631 557.000
56.53626 567.000
56.55621 575.000
56.57616 618.000
56.59610 572.000
56.61605 598.000
56.63600 556.000
56.65594 562.000
56.67589 570.000
56.69584 649.000
56.71578 610.000
56.73573 631.000
56.75568 605.000
56.77563 595.000
56.79557 610.000
56.81552 617.000
56.83547 618.000
56.85541 592.000
56.87536 603.000
56.89531 662.000
56.91525 661.000
56.93520 597.000
56.95515 617.000
56.97510 619.000
56.99504 678.000
57.01499 638.000
57.03494 649.000
57.05488 680.000
57.07483 654.000
57.09478 752.000
57.11472 720.000
57.13467 712.000
57.15462 765.000
57.17456 775.000
57.19451 869.000
57.21446 904.000
57.23441 990.000
57.25435 976.000
57.27430 950.000
57.29425 928.000
57.31419 837.000
57.33414 853.000
57.35409 849.000
57.37403 821.000
57.39398 847.000
57.41393 766.000
57.43388 760.000
57.45382 741.000
57.47377 720.000
57.49372 756.000
57.51366 677.000
57.53361 649.000
57.55356 643.000
57.57350 657.000
57.59345 664.000
57.61340 556.000
57.63334 666.000
57.65329 642.000
57.67324 647.000
57.69319 679.000
57.71313 647.000
57.73308 655.000
57.75303 651.000
57.77297 654.000
57.79292 737.000
57.81287 692.000
57.83281 683.000
57.85276 736.000
57.87271 775.000
57.89266 736.000
57.91260 702.000
57.93255 754.000
57.95250 738.000
57.97244 822.000
57.99239 844.000
58.01234 898.000
58.03228 946.000
58.05223 974.000
58.07218 1006.000
58.09212 1015.000
58.11207 1046.000
58.13202 1091.000
58.15197 1108.000
58.17191 1073.000
58.19186 1011.000
58.21181 973.000
58.23175 951.000
58.25170 906.000
58.27165 833.000
58.29159 872.000
58.31154 819.000
58.33149 838.000
58.35144 776.000
58.37138 706.000
58.39133 681.000
58.41128 671.000
58.43122 666.000
58.45117 629.000
58.47112 644.000
58.49106 556.000
58.51101 608.000
58.53096 597.000
58.55090 549.000
58.57085 563.000
58.59080 570.000
58.61075 645.000
58.63069 627.000
58.65064 603.000
58.67059 587.000
58.69053 599.000
58.71048 606.000
58.73043 569.000
58.75037 588.000
58.77032 579.000
58.79027 569.000
58.81022 552.000
58.83016 609.000
58.85011 599.000
58.87006 547.000
58.89000 545.000
58.90995 601.000
58.92990 562.000
58.94984 609.000
58.96979 589.000
58.98974 550.000
59.00969 597.000
59.02963 582.000
59.04958 593.000
59.06953 586.000
59.08947 594.000
59.10942 587.000
59.12937 551.000
59.14931 557.000
59.16926 530.000
59.18921 584.000
59.20915 592.000
59.22910 584.000
59.24905 599.000
59.26900 591.000
59.28894 570.000
59.30889 591.000
59.32884 620.000
59.34878 580.000
59.36873 599.000
59.38868 572.000
59.40862 573.000
59.42857 575.000
59.44852 583.000
59.46847 570.000
59.48841 605.000
59.50836 563.000
59.52831 545.000
59.54825 586.000
59.56820 569.000
59.58815 523.000
59.60809 523.000
59.62804 568.000
59.64799 613.000
59.66793 526.000
59.68788 567.000
59.70783 528.000
59.72778 558.000
59.74772 557.000
59.76767 549.000
59.78762 571.000
59.80756 610.000
59.82751 556.000
59.84746 560.000
59.86740 583.000
59.88735 586.000
59.90730 581.000
59.92725 591.000
59.94719 601.000
59.96714 560.000
59.98709 576.000
60.00703 558.000
60.02698 625.000
60.04693 548.000
60.06687 582.000
60.08682 607.000
60.10677 601.000
60.12671 586.000
60.14666 581.000
60.16661 608.000
60.18656 562.000
60.20650 556.000
60.22645 579.000
60.24640 603.000
60.26634 581.000
60.28629 539.000
60.30624 554.000
60.32618 581.000
60.34613 584.000
60.36608 567.000
60.38603 590.000
60.40597 599.000
60.42592 573.000
60.44587 550.000
60.46581 565.000
60.48576 585.000
60.50571 570.000
60.52565 570.000
60.54560 615.000
60.56555 567.000
60.58550 554.000
60.60544 582.000
60.62539 599.000
60.64534 569.000
60.66528 575.000
60.68523 568.000
60.70518 600.000
60.72512 603.000
60.74507 593.000
60.76502 583.000
60.78496 597.000
60.80491 621.000
60.82486 586.000
60.84481 595.000
60.86475 651.000
60.88470 599.000
60.90465 600.000
60.92459 624.000
60.94454 609.000
60.96449 616.000
60.98443 635.000
61.00438 622.000
61.02433 667.000
61.04428 659.000
61.06422 652.000
61.08417 660.000
61.10412 716.000
61.12406 711.000
61.14401 661.000
61.16396 715.000
61.18390 711.000
61.20385 715.000
61.22380 774.000
61.24374 773.000
61.26369 779.000
61.28364 768.000
61.30359 810.000
61.32353 865.000
61.34348 890.000
61.36343 936.000
61.38337 959.000
61.40332 1075.000
61.42327 1136.000
61.44321 1159.000
61.46316 1274.000
61.48311 1231.000
61.50306 1245.000
61.52300 1159.000
61.54295 1167.000
61.56290 1133.000
61.58284 1084.000
61.60279 1058.000
61.62274 1000.000
61.64268 1010.000
61.66263 983.000
61.68258 905.000
61.70252 879.000
61.72247 872.000
61.74242 792.000
61.76237 725.000
61.78231 752.000
61.80226 717.000
61.82221 700.000
61.84215 636.000
61.86210 682.000
61.88205 626.000
61.90199 658.000
61.92194 615.000
61.94189 619.000
61.96184 584.000
61.98178 651.000
62.00173 612.000
62.02168 601.000
62.04162 582.000
62.06157 585.000
62.08152 620.000
62.10146 593.000
62.12141 631.000
62.14136 669.000
62.16131 640.000
62.18125 616.000
62.20120 628.000
62.22115 644.000
62.24109 685.000
62.26104 646.000
62.28099 701.000
62.30093 645.000
62.32088 667.000
62.34083 667.000
62.36077 690.000
62.38072 691.000
62.40067 638.000
62.42062 690.000
62.44056 712.000
62.46051 701.000
62.48046 728.000
62.50040 745.000
62.52035 824.000
62.54030 820.000
62.56024 812.000
62.58019 798.000
62.60014 854.000
62.62009 901.000
62.64003 901.000
62.65998 893.000
62.67993 912.000
62.69987 926.000
62.71982 910.000
62.73977 883.000
62.75971 957.000
62.77966 931.000
62.79961 975.000
62.81955 1014.000
62.83950 1135.000
62.85945 1083.000
62.87940 1146.000
62.89934 1097.000
62.91929 1046.000
62.93924 977.000
62.95918 932.000
62.97913 853.000
62.99908 894.000
63.01902 860.000
63.03897 808.000
63.05892 822.000
63.07887 771.000
63.09881 772.000
63.11876 696.000
63.13871 721.000
63.15865 659.000
63.17860 647.000
63.19855 627.000
63.21849 571.000
63.23844 572.000
63.25839 598.000
63.27833 630.000
63.29828 580.000
63.31823 572.000
63.33818 608.000
63.35812 604.000
63.37807 563.000
63.39802 558.000
63.41796 570.000
63.43791 563.000
63.45786 580.000
63.47780 613.000
63.49775 548.000
63.51770 605.000
63.53765 589.000
63.55759 641.000
63.57754 579.000
63.59749 596.000
63.61743 585.000
63.63738 560.000
63.65733 547.000
63.67727 560.000
63.69722 555.000
63.71717 572.000
63.73712 574.000
63.75706 573.000
63.77701 573.000
63.79696 566.000
63.81690 629.000
63.83685 551.000
63.85680 562.000
63.87674 563.000
63.89669 602.000
63.91664 549.000
63.93658 604.000
63.95653 538.000
63.97648 604.000
63.99643 557.000
64.01637 609.000
64.03632 631.000
64.05627 572.000
64.07621 612.000
64.09616 595.000
64.11611 565.000
64.13605 557.000
64.15600 549.000
64.17595 602.000
64.19590 558.000
64.21584 578.000
64.23579 616.000
64.25574 547.000
64.27568 590.000
64.29563 558.000
64.31558 520.000
64.33552 587.000
64.35547 595.000
64.37542 575.000
64.39536 588.000
64.41531 565.000
64.43526 594.000
64.45521 576.000
64.47515 582.000
64.49510 568.000
64.51505 577.000
64.53499 610.000
64.55494 599.000
64.57489 588.000
64.59483 604.000
64.61478 619.000
64.63473 551.000
64.65468 595.000
64.67462 587.000
64.69457 613.000
64.71452 595.000
64.73446 593.000
64.75441 593.000
64.77436 644.000
64.79430 641.000
64.81425 623.000
64.83420 560.000
64.85414 635.000
64.87409 642.000
64.89404 608.000
64.91399 574.000
64.93393 635.000
64.95388 582.000
64.97383 644.000
64.99377 611.000
65.01372 592.000
65.03367 631.000
65.05361 619.000
65.07356 616.000
65.09351 694.000
65.11346 628.000
65.13340 644.000
65.15335 662.000
65.17330 674.000
65.19324 674.000
65.21319 695.000
65.23314 737.000
65.25308 721.000
65.27303 706.000
65.29298 737.000
65.31293 732.000
65.33287 747.000
65.35282 748.000
65.37277 797.000
65.39271 815.000
65.41266 822.000
65.43261 849.000
65.45255 840.000
65.47250 842.000
65.49245 863.000
65.51239 869.000
65.53234 940.000
65.55229 903.000
65.57224 927.000
65.59218 859.000
65.61213 901.000
65.63208 913.000
65.65202 951.000
65.67197 871.000
65.69192 902.000
65.71186 844.000
65.73181 853.000
65.75176 864.000
65.77171 853.000
65.79165 813.000
65.81160 847.000
65.83155 811.000
65.85149 820.000
65.87144 792.000
65.89139 773.000
65.91133 762.000
65.93128 746.000
65.95123 756.000
65.97117 771.000
65.99112 731.000
66.01107 764.000
66.03102 791.000
66.05096 763.000
66.07091 775.000
66.09086 807.000
66.11080 804.000
66.13075 814.000
66.15070 887.000
66.17064 968.000
66.19059 927.000
66.21054 940.000
66.23049 982.000
66.25043 1057.000
66.27038 1043.000
66.29033 1019.000
66.31027 1023.000
66.33022 1089.000
66.35017 1102.000
66.37011 1025.000
66.39006 1022.000
66.41001 954.000
66.42995 957.000
66.44990 937.000
66.46985 983.000
66.48980 948.000
66.50974 910.000
66.52969 849.000
66.54964 851.000
66.56958 762.000
66.58953 770.000
66.60948 774.000
66.62942 767.000
66.64937 701.000
66.66932 690.000
66.68927 654.000
66.70921 642.000
66.72916 629.000
66.74911 614.000
66.76905 643.000
66.78900 641.000
66.80895 633.000
66.82889 617.000
66.84884 630.000
66.86879 636.000
66.88874 577.000
66.90868 612.000
66.92863 649.000
66.94858 617.000
66.96852 613.000
66.98847 625.000
67.00842 600.000
67.02836 663.000
67.04831 625.000
67.06826 580.000
67.08820 619.000
67.10815 586.000
67.12810 615.000
67.14805 608.000
67.16799 609.000
67.18794 621.000
67.20789 634.000
67.22783 653.000
67.24778 631.000
67.26773 621.000
67.28767 672.000
67.30762 635.000
67.32757 612.000
67.34752 668.000
67.36746 703.000
67.38741 633.000
67.40736 687.000
67.42730 715.000
67.44725 753.000
67.46720 732.000
67.48714 788.000
67.50709 756.000
67.52704 803.000
67.54698 817.000
67.56693 802.000
67.58688 894.000
67.60683 913.000
67.62677 913.000
67.64672 943.000
67.66667 966.000
67.68661 965.000
67.70656 1022.000
67.72651 911.000
67.74645 1006.000
67.76640 996.000
67.78635 927.000
67.80630 999.000
67.82624 1017.000
67.84619 1055.000
67.86614 1045.000
67.88608 1031.000
67.90603 1090.000
67.92598 1059.000
67.94592 1007.000
67.96587 1051.000
67.98582 1009.000
68.00576 1004.000
68.02571 950.000
68.04566 932.000
68.06561 873.000
68.08555 932.000
68.10550 815.000
68.12545 815.000
68.14539 849.000
68.16534 801.000
68.18529 733.000
68.20523 746.000
68.22518 701.000
68.24513 709.000
68.26508 664.000
68.28502 679.000
68.30497 644.000
68.32492 637.000
68.34486 656.000
68.36481 594.000
68.38476 597.000
68.40470 665.000
68.42465 644.000
68.44460 612.000
68.46455 583.000
68.48449 585.000
68.50444 577.000
68.52439 626.000
68.54433 562.000
68.56428 594.000
68.58423 604.000
68.60417 608.000
68.62412 539.000
68.64407 609.000
68.66401 586.000
68.68396 543.000
68.70391 592.000
68.72386 626.000
68.74380 567.000
68.76375 592.000
68.78370 625.000
68.80364 585.000
68.82359 554.000
68.84354 569.000
68.86348 573.000
68.88343 587.000
68.90338 570.000
68.92333 574.000
68.94327 585.000
68.96322 576.000
68.98317 582.000
69.00311 585.000
69.02306 552.000
69.04301 598.000
69.06295 567.000
69.08290 589.000
69.10285 577.000
69.12279 561.000
69.14274 587.000
69.16269 520.000
69.18264 542.000
69.20258 577.000
69.22253 528.000
69.24248 567.000
69.26242 598.000
69.28237 520.000
69.30232 605.000
69.32226 571.000
69.34221 555.000
69.36216 567.000
69.38211 567.000
69.40205 594.000
69.42200 551.000
69.44195 555.000
69.46189 553.000
69.48184 579.000
69.50179 567.000
69.52173 538.000
69.54168 563.000
69.56163 578.000
69.58157 553.000
69.60152 513.000
69.62147 587.000
69.64142 580.000
69.66136 585.000
69.68131 589.000
69.70126 595.000
69.72120 569.000
69.74115 596.000
69.76110 568.000
69.78104 607.000
69.80099 555.000
69.82094 556.000
69.84089 519.000
69.86083 577.000
69.88078 544.000
69.90073 572.000
69.92067 554.000
69.94062 612.000
69.96057 519.000
69.98051 576.000
70.00046 530.000
70.02041 560.000
70.04035 564.000
70.06030 566.000
70.08025 549.000
70.10020 538.000
70.12014 570.000
70.14009 566.000
70.16004 575.000
70.17998 547.000
70.19993 563.000
70.21988 541.000
70.23982 558.000
70.25977 574.000
70.27972 572.000
70.29967 554.000
70.31961 558.000
70.33956 586.000
70.35951 549.000
70.37945 547.000
70.39940 530.000
70.41935 622.000
70.43929 544.000
70.45924 586.000
70.47919 521.000
70.49914 592.000
70.51908 525.000
70.53903 601.000
70.55898 578.000
70.57892 565.000
70.59887 549.000
70.61882 593.000
70.63876 610.000
70.65871 588.000
70.67866 566.000
70.69860 552.000
70.71855 552.000
70.73850 598.000
70.75845 563.000
70.77839 577.000
70.79834 546.000
70.81829 539.000
70.83823 543.000
70.85818 539.000
70.87813 562.000
70.89807 555.000
70.91802 589.000
70.93797 545.000
70.95792 584.000
70.97786 607.000
70.99781 557.000
71.01776 555.000
71.03770 550.000
71.05765 579.000
71.07760 583.000
71.09754 547.000
71.11749 549.000
71.13744 626.000
71.15738 611.000
71.17733 584.000
71.19728 611.000
71.21723 597.000
71.23717 532.000
71.25712 536.000
71.27707 598.000
71.29701 551.000
71.31696 614.000
71.33691 607.000
71.35685 630.000
71.37680 588.000
71.39675 672.000
71.41670 612.000
71.43664 564.000
71.45659 630.000
71.47654 613.000
71.49648 620.000
71.51643 610.000
71.53638 612.000
71.55632 575.000
71.57627 571.000
71.59622 583.000
71.61616 628.000
71.63611 546.000
71.65606 590.000
71.67601 580.000
71.69595 581.000
71.71590 636.000
71.73585 572.000
71.75579 591.000
71.77574 578.000
71.79569 562.000
71.81563 579.000
71.83558 568.000
71.85553 643.000
71.87548 619.000
71.89542 592.000
71.91537 596.000
71.93532 563.000
71.95526 633.000
71.97521 601.000
71.99516 634.000
72.01510 657.000
72.03505 625.000
72.05500 647.000
72.07495 667.000
72.09489 644.000
72.11484 677.000
72.13479 678.000
72.15473 662.000
72.17468 638.000
72.19463 708.000
72.21457 722.000
72.23452 730.000
72.25447 710.000
72.27441 804.000
72.29436 789.000
72.31431 728.000
72.33426 779.000
72.35420 813.000
72.37415 733.000
72.39410 757.000
72.41404 700.000
72.43399 668.000
72.45394 700.000
72.47388 708.000
72.49383 684.000
72.51378 689.000
72.53373 675.000
72.55367 645.000
72.57362 650.000
72.59357 645.000
72.61351 621.000
72.63346 603.000
72.65341 640.000
72.67335 588.000
72.69330 623.000
72.71325 584.000
72.73319 575.000
72.75314 596.000
72.77309 606.000
72.79304 605.000
72.81298 581.000
72.83293 551.000
72.85288 617.000
72.87282 598.000
72.89277 575.000
72.91272 543.000
72.93266 566.000
72.95261 563.000
72.97256 547.000
72.99251 582.000
73.01245 561.000
73.03240 562.000
73.05235 549.000
73.07229 567.000
73.09224 562.000
73.11219 568.000
73.13213 581.000
73.15208 553.000
73.17203 519.000
73.19197 610.000
73.21192 533.000
73.23187 600.000
73.25182 610.000
73.27176 592.000
73.29171 601.000
73.31166 619.000
73.33160 552.000
73.35155 581.000
73.37150 566.000
73.39144 533.000
73.41139 549.000
73.43134 576.000
73.45129 586.000
73.47123 534.000
73.49118 568.000
73.51113 538.000
73.53107 568.000
73.55102 519.000
73.57097 577.000
73.59091 599.000
73.61086 573.000
73.63081 542.000
73.65076 583.000
73.67070 593.000
73.69065 566.000
73.71060 576.000
73.73054 565.000
73.75049 609.000
73.77044 561.000
73.79038 581.000
73.81033 577.000
73.83028 569.000
73.85022 539.000
73.87017 569.000
73.89012 547.000
73.91007 581.000
73.93001 593.000
73.94996 592.000
73.96991 572.000
73.98985 559.000
74.00980 552.000
74.02975 580.000
74.04969 554.000
74.06964 589.000
74.08959 584.000
74.10954 618.000
74.12948 568.000
74.14943 598.000
74.16938 570.000
74.18932 577.000
74.20927 567.000
74.22922 610.000
74.24916 631.000
74.26911 631.000
74.28906 630.000
74.30900 592.000
74.32895 618.000
74.34890 650.000
74.36885 631.000
74.38879 647.000
74.40874 675.000
74.42869 706.000
74.44863 684.000
74.46858 721.000
74.48853 664.000
74.50847 667.000
74.52842 663.000
74.54837 686.000
74.56832 686.000
74.58826 673.000
74.60821 702.000
74.62816 671.000
74.64810 689.000
74.66805 672.000
74.68800 671.000
74.70794 718.000
74.72789 720.000
74.74784 777.000
74.76778 755.000
74.78773 792.000
74.80768 786.000
74.82763 814.000
74.84757 832.000
74.86752 813.000
74.88747 878.000
74.90741 797.000
74.92736 815.000
74.94731 775.000
74.96725 808.000
74.98720 732.000
75.00715 819.000
75.02710 823.000
75.04704 811.000
75.06699 867.000
75.08694 825.000
75.10688 851.000
75.12683 881.000
75.14678 887.000
75.16672 864.000
75.18667 806.000
75.20662 812.000
75.22657 812.000
75.24651 816.000
75.26646 707.000
75.28641 802.000
75.30635 756.000
75.32630 806.000
75.34625 751.000
75.36619 760.000
75.38614 737.000
75.40609 751.000
75.42603 723.000
75.44598 743.000
75.46593 690.000
75.48588 706.000
75.50582 645.000
75.52577 653.000
75.54572 663.000
75.56566 631.000
75.58561 605.000
75.60556 658.000
75.62550 576.000
75.64545 604.000
75.66540 598.000
75.68535 633.000
75.70529 569.000
75.72524 573.000
75.74519 567.000
75.76513 587.000
75.78508 594.000
75.80503 590.000
75.82497 563.000
75.84492 569.000
75.86487 554.000
75.88481 567.000
75.90476 576.000
75.92471 557.000
75.94466 566.000
75.96460 557.000
75.98455 589.000
76.00450 553.000
76.02444 537.000
76.04439 536.000
76.06434 532.000
76.08428 625.000
76.10423 570.000
76.12418 540.000
76.14413 567.000
76.16407 511.000
76.18402 558.000
76.20397 528.000
76.22391 561.000
76.24386 614.000
76.26381 532.000
76.28375 589.000
76.30370 523.000
76.32365 567.000
76.34359 534.000
76.36354 550.000
76.38349 535.000
76.40344 524.000
76.42338 586.000
76.44333 547.000
76.46328 588.000
76.48322 553.000
76.50317 567.000
76.52312 570.000
76.54306 537.000
76.56301 552.000
76.58296 536.000
76.60291 587.000
76.62285 524.000
76.64280 509.000
76.66275 560.000
76.68269 539.000
76.70264 538.000
76.72259 529.000
76.74253 566.000
76.76248 540.000
76.78243 606.000
76.80238 525.000
76.82232 604.000
76.84227 518.000
76.86222 547.000
76.88216 574.000
76.90211 546.000
76.92206 543.000
76.94200 558.000
76.96195 579.000
76.98190 597.000
77.00184 517.000
77.02179 572.000
77.04174 542.000
77.06169 553.000
77.08163 514.000
77.10158 553.000
77.12153 593.000
77.14147 590.000
77.16142 566.000
77.18137 524.000
77.20131 508.000
77.22126 522.000
77.24121 562.000
77.26116 576.000
77.28110 541.000
77.30105 534.000
77.32100 527.000
77.34094 550.000
77.36089 553.000
77.38084 550.000
77.40078 531.000
77.42073 538.000
77.44068 582.000
77.46062 550.000
77.48057 536.000
77.50052 572.000
77.52047 552.000
77.54041 579.000
77.56036 575.000
77.58031 567.000
77.60025 557.000
77.62020 535.000
77.64015 561.000
77.66009 550.000
77.68004 511.000
77.69999 533.000
77.71994 582.000
77.73988 553.000
77.75983 538.000
77.77978 576.000
77.79972 544.000
77.81967 545.000
77.83962 598.000
77.85956 594.000
77.87951 519.000
77.89946 577.000
77.91940 549.000
77.93935 543.000
77.95930 546.000
77.97925 598.000
77.99919 565.000
78.01914 547.000
78.03909 581.000
78.05903 526.000
78.07898 527.000
78.09893 545.000
78.11887 544.000
78.13882 544.000
78.15877 533.000
78.17872 551.000
78.19866 566.000
78.21861 540.000
78.23856 572.000
78.25850 550.000
78.27845 553.000
78.29840 509.000
78.31834 541.000
78.33829 562.000
78.35824 547.000
78.37819 569.000
78.39813 553.000
78.41808 527.000
78.43803 565.000
78.45797 558.000
78.47792 569.000
78.49787 588.000
78.51781 581.000
78.53776 546.000
78.55771 567.000
78.57765 558.000
78.59760 574.000
78.61755 535.000
78.63750 542.000
78.65744 573.000
78.67739 530.000
78.69734 582.000
78.71728 581.000
78.73723 538.000
78.75718 522.000
78.77712 582.000
78.79707 574.000
78.81702 571.000
78.83697 532.000
78.85691 540.000
78.87686 564.000
78.89681 618.000
78.91675 573.000
78.93670 581.000
78.95665 566.000
78.97659 523.000
78.99654 608.000
79.01649 592.000
79.03643 557.000
79.05638 630.000
79.07633 653.000
79.09628 565.000
79.11622 606.000
79.13617 629.000
79.15612 594.000
79.17606 626.000
79.19601 613.000
79.21596 623.000
79.23590 623.000
79.25585 619.000
79.27580 605.000
79.29575 543.000
79.31569 597.000
79.33564 613.000
79.35559 604.000
79.37553 604.000
79.39548 608.000
79.41543 620.000
79.43537 582.000
79.45532 566.000
79.47527 621.000
79.49521 600.000
79.51516 590.000
79.53511 554.000
79.55506 623.000
79.57500 561.000
79.59495 575.000
79.61490 604.000
79.63484 563.000
79.65479 559.000
79.67474 578.000
79.69468 572.000
79.71463 625.000
79.73458 623.000
79.75453 572.000
79.77447 555.000
79.79442 559.000
79.81437 536.000
79.83431 570.000
79.85426 580.000
79.87421 532.000
79.89415 562.000
79.91410 517.000
79.93405 538.000
79.95399 575.000
79.97394 575.000
79.99389 579.000
80.01384 616.000
80.03378 562.000
80.05373 564.000
80.07368 565.000
80.09362 576.000
80.11357 594.000
80.13352 604.000
80.15346 584.000
80.17341 612.000
80.19336 613.000
80.21331 624.000
80.23325 620.000
80.25320 663.000
80.27315 605.000
80.29309 609.000
80.31304 602.000
80.33299 606.000
80.35293 630.000
80.37288 626.000
80.39283 609.000
80.41278 590.000
80.43272 591.000
80.45267 643.000
80.47262 631.000
80.49256 623.000
80.51251 607.000
80.53246 581.000
80.55240 593.000
80.57235 582.000
80.59230 607.000
80.61224 567.000
80.63219 560.000
80.65214 553.000
80.67209 617.000
80.69203 568.000
80.71198 531.000
80.73193 573.000
80.75187 584.000
80.77182 547.000
80.79177 580.000
80.81171 533.000
80.83166 607.000
80.85161 534.000
80.87156 558.000
80.89150 563.000
80.91145 578.000
80.93140 612.000
80.95134 560.000
80.97129 590.000
80.99124 596.000
81.01118 548.000
81.03113 545.000
81.05108 591.000
81.07102 535.000
81.09097 528.000
81.11092 592.000
81.13087 527.000
81.15081 568.000
81.17076 508.000
81.19071 559.000
81.21065 543.000
81.23060 570.000
81.25055 587.000
81.27049 571.000
81.29044 562.000
81.31039 568.000
81.33034 568.000
81.35028 537.000
81.37023 566.000
81.39018 544.000
81.41012 567.000
81.43007 575.000
81.45002 556.000
81.46996 588.000
81.48991 522.000
81.50986 509.000
81.52980 513.000
81.54975 555.000
81.56970 523.000
81.58965 557.000
81.60959 609.000
81.62954 543.000
81.64949 575.000
81.66943 579.000
81.68938 620.000
81.70933 546.000
81.72927 565.000
81.74922 549.000
81.76917 540.000
81.78912 529.000
81.80906 578.000
81.82901 554.000
81.84896 559.000
81.86890 582.000
81.88885 537.000
81.90880 595.000
81.92874 545.000
81.94869 562.000
81.96864 581.000
81.98859 563.000
82.00853 576.000
82.02848 556.000
82.04843 570.000
82.06837 569.000
82.08832 555.000
82.10827 586.000
82.12821 591.000
82.14816 582.000
82.16811 539.000
82.18805 584.000
82.20800 563.000
82.22795 609.000
82.24790 582.000
82.26784 665.000
82.28779 662.000
82.30774 587.000
82.32768 636.000
82.34763 651.000
82.36758 656.000
82.38752 641.000
82.40747 629.000
82.42742 659.000
82.44737 700.000
82.46731 674.000
82.48726 698.000
82.50721 692.000
82.52715 692.000
82.54710 777.000
82.56705 730.000
82.58699 703.000
82.60694 722.000
82.62689 761.000
82.64683 712.000
82.66678 761.000
82.68673 679.000
82.70668 743.000
82.72662 742.000
82.74657 779.000
82.76652 733.000
82.78646 753.000
82.80641 711.000
82.82636 693.000
82.84630 750.000
82.86625 686.000
82.88620 688.000
82.90615 665.000
82.92609 709.000
82.94604 687.000
82.96599 691.000
82.98593 635.000
83.00588 612.000
83.02583 640.000
83.04577 629.000
83.06572 646.000
83.08567 643.000
83.10561 580.000
83.12556 632.000
83.14551 576.000
83.16546 625.000
83.18540 610.000
83.20535 632.000
83.22530 636.000
83.24524 640.000
83.26519 582.000
83.28514 629.000
83.30508 607.000
83.32503 632.000
83.34498 608.000
83.36493 599.000
83.38487 612.000
83.40482 603.000
83.42477 580.000
83.44471 628.000
83.46466 628.000
83.48461 607.000
83.50455 620.000
83.52450 591.000
83.54445 623.000
83.56440 618.000
83.58434 617.000
83.60429 640.000
83.62424 660.000
83.64418 653.000
83.66413 638.000
83.68408 668.000
83.70402 653.000
83.72397 635.000
83.74392 637.000
83.76386 629.000
83.78381 641.000
83.80376 628.000
83.82371 685.000
83.84365 666.000
83.86360 642.000
83.88355 645.000
83.90349 619.000
83.92344 618.000
83.94339 622.000
83.96333 597.000
83.98328 646.000
84.00323 606.000
84.02318 624.000
84.04312 551.000
84.06307 580.000
84.08302 565.000
84.10296 605.000
84.12291 593.000
84.14286 611.000
84.16280 594.000
84.18275 597.000
84.20270 595.000
84.22264 583.000
84.24259 569.000
84.26254 621.000
84.28249 597.000
84.30243 583.000
84.32238 572.000
84.34233 574.000
84.36227 579.000
84.38222 591.000
84.40217 565.000
84.42211 574.000
84.44206 567.000
84.46201 543.000
84.48196 591.000
84.50190 563.000
84.52185 555.000
84.54180 567.000
84.56174 547.000
84.58169 515.000
84.60164 545.000
84.62158 580.000
84.64153 563.000
84.66148 544.000
84.68142 545.000
84.70137 557.000
84.72132 543.000
84.74127 560.000
84.76121 539.000
84.78116 590.000
84.80111 576.000
84.82105 547.000
84.84100 568.000
84.86095 559.000
84.88089 558.000
84.90084 536.000
84.92079 539.000
84.94074 616.000
84.96068 537.000
84.98063 547.000
85.00058 519.000
85.02052 543.000
85.04047 549.000
85.06042 583.000
85.08036 575.000
85.10031 587.000
85.12026 560.000
85.14021 537.000
85.16015 546.000
85.18010 497.000
85.20005 556.000
85.21999 575.000
85.23994 577.000
85.25989 538.000
85.27983 524.000
85.29978 571.000
85.31973 573.000
85.33967 591.000
85.35962 548.000
85.37957 526.000
85.39952 516.000
85.41946 559.000
85.43941 555.000
85.45936 489.000
85.47930 561.000
85.49925 568.000
85.51920 575.000
85.53914 606.000
85.55909 536.000
85.57904 551.000
85.59899 616.000
85.61893 596.000
85.63888 570.000
85.65883 571.000
85.67877 526.000
85.69872 580.000
85.71867 563.000
85.73861 568.000
85.75856 567.000
85.77851 570.000
85.79845 549.000
85.81840 577.000
85.83835 549.000
85.85830 571.000
85.87824 612.000
85.89819 558.000
85.91814 559.000
85.93808 569.000
85.95803 547.000
85.97798 535.000
85.99792 537.000
86.01787 552.000
86.03782 556.000
86.05777 535.000
86.07771 479.000
86.09766 524.000
86.11761 578.000
86.13755 573.000
86.15750 552.000
86.17745 537.000
86.19739 545.000
86.21734 589.000
86.23729 564.000
86.25723 545.000
86.27718 598.000
86.29713 560.000
86.31708 607.000
86.33702 585.000
86.35697 557.000
86.37692 572.000
86.39686 580.000
86.41681 527.000
86.43676 515.000
86.45670 576.000
86.47665 562.000
86.49660 543.000
86.51655 555.000
86.53649 570.000
86.55644 540.000
86.57639 569.000
86.59633 569.000
86.61628 586.000
86.63623 578.000
86.65617 540.000
86.67612 560.000
86.69607 577.000
86.71602 582.000
86.73596 558.000
86.75591 600.000
86.77586 554.000
86.79580 620.000
86.81575 621.000
86.83570 628.000
86.85564 588.000
86.87559 605.000
86.89554 606.000
86.91548 558.000
86.93543 581.000
86.95538 620.000
86.97533 573.000
86.99527 605.000
87.01522 600.000
87.03517 618.000
87.05511 628.000
87.07506 538.000
87.09501 565.000
87.11495 595.000
87.13490 596.000
87.15485 606.000
87.17480 604.000
87.19474 589.000
87.21469 537.000
87.23464 569.000
87.25458 609.000
87.27453 617.000
87.29448 588.000
87.31442 594.000
87.33437 610.000
87.35432 599.000
87.37426 590.000
87.39421 526.000
87.41416 614.000
87.43411 538.000
87.45405 607.000
87.47400 611.000
87.49395 577.000
87.51389 576.000
87.53384 561.000
87.55379 601.000
87.57373 545.000
87.59368 592.000
87.61363 573.000
87.63358 547.000
87.65352 549.000
87.67347 561.000
87.69342 575.000
87.71336 553.000
87.73331 559.000
87.75326 544.000
87.77320 519.000
87.79315 543.000
87.81310 593.000
87.83304 522.000
87.85299 551.000
87.87294 619.000
87.89289 551.000
87.91283 575.000
87.93278 576.000
87.95273 594.000
87.97267 583.000
87.99262 569.000
88.01257 537.000
88.03251 573.000
88.05246 556.000
88.07241 588.000
88.09236 522.000
88.11230 569.000
88.13225 593.000
88.15220 544.000
88.17214 607.000
88.19209 539.000
88.21204 590.000
88.23198 571.000
88.25193 552.000
88.27188 582.000
88.29183 606.000
88.31177 624.000
88.33172 552.000
88.35167 586.000
88.37161 571.000
88.39156 586.000
88.41151 600.000
88.43145 552.000
88.45140 553.000
88.47135 561.000
88.49129 540.000
88.51124 578.000
88.53119 523.000
88.55114 594.000
88.57108 584.000
88.59103 633.000
88.61098 553.000
88.63092 583.000
88.65087 508.000
88.67082 543.000
88.69076 546.000
88.71071 547.000
88.73066 556.000
88.75061 567.000
88.77055 580.000
88.79050 581.000
88.81045 544.000
88.83039 567.000
88.85034 572.000
88.87029 569.000
88.89023 547.000
88.91018 612.000
88.93013 625.000
88.95007 593.000
88.97002 563.000
88.98997 555.000
89.00992 606.000
89.02986 598.000
89.04981 568.000
89.06976 608.000
89.08970 615.000
89.10965 600.000
89.12960 679.000
89.14954 595.000
89.16949 666.000
89.18944 585.000
89.20939 615.000
89.22933 578.000
89.24928 612.000
89.26923 607.000
89.28917 569.000
89.30912 618.000
89.32907 633.000
89.34901 663.000
89.36896 680.000
89.38891 633.000
89.40885 648.000
89.42880 656.000
89.44875 632.000
89.46870 596.000
89.48864 641.000
89.50859 658.000
89.52854 666.000
89.54848 656.000
89.56843 684.000
89.58838 649.000
89.60832 624.000
89.62827 628.000
89.64822 624.000
89.66817 659.000
89.68811 603.000
89.70806 624.000
89.72801 640.000
89.74795 653.000
89.76790 637.000
89.78785 622.000
89.80779 642.000
89.82774 631.000
89.84769 612.000
89.86764 593.000
89.88758 589.000
89.90753 599.000
89.92748 668.000
89.94742 595.000
89.96737 614.000
89.98732 616.000
90.00726 649.000
