10.00000 158.000
10.01995 154.000
10.03989 144.000
10.05984 184.000
10.07979 163.000
10.09973 161.000
10.11968 162.000
10.13963 145.000
10.15958 149.000
10.17952 146.000
10.19947 178.000
10.21942 163.000
10.23936 147.000
10.25931 163.000
10.27926 180.000
10.29920 163.000
10.31915 137.000
10.33910 160.000
10.35905 144.000
10.37899 151.000
10.39894 177.000
10.41889 163.000
10.43883 159.000
10.45878 156.000
10.47873 158.000
10.49867 158.000
10.51862 188.000
10.53857 172.000
10.55851 168.000
10.57846 150.000
10.59841 141.000
10.61836 141.000
10.63830 166.000
10.65825 157.000
10.67820 162.000
10.69814 160.000
10.71809 157.000
10.73804 165.000
10.75798 143.000
10.77793 179.000
10.79788 152.000
10.81783 178.000
10.83777 151.000
10.85772 140.000
10.87767 157.000
10.89761 153.000
10.91756 160.000
10.93751 145.000
10.95745 164.000
10.97740 179.000
10.99735 171.000
11.01730 167.000
11.03724 179.000
11.05719 141.000
11.07714 172.000
11.09708 159.000
11.11703 147.000
11.13698 172.000
11.15692 146.000
11.17687 137.000
11.19682 144.000
11.21676 176.000
11.23671 142.000
11.25666 158.000
11.27661 149.000
11.29655 151.000
11.31650 162.000
11.33645 140.000
11.35639 164.000
11.37634 162.000
11.39629 152.000
11.41623 154.000
11.43618 145.000
11.45613 145.000
11.47608 151.000
11.49602 159.000
11.51597 154.000
11.53592 156.000
11.55586 136.000
11.57581 160.000
11.59576 155.000
11.61570 172.000
11.63565 159.000
11.65560 163.000
11.67554 150.000
11.69549 178.000
11.71544 147.000
11.73539 167.000
11.75533 126.000
11.77528 157.000
11.79523 177.000
11.81517 189.000
11.83512 144.000
11.85507 152.000
11.87501 172.000
11.89496 182.000
11.91491 154.000
11.93486 157.000
11.95480 150.000
11.97475 148.000
11.99470 162.000
12.01464 146.000
12.03459 160.000
12.05454 172.000
12.07448 161.000
12.09443 159.000
12.11438 162.000
12.13432 144.000
12.15427 155.000
12.17422 146.000
12.19417 169.000
12.21411 176.000
12.23406 170.000
12.25401 135.000
12.27395 155.000
12.29390 151.000
12.31385 173.000
12.33379 156.000
12.35374 182.000
12.37369 170.000
12.39364 152.000
12.41358 166.000
12.43353 153.000
12.45348 145.000
12.47342 145.000
12.49337 185.000
12.51332 178.000
12.53326 155.000
12.55321 177.000
12.57316 165.000
12.59311 156.000
12.61305 160.000
12.63300 180.000
12.65295 148.000
12.67289 178.000
12.69284 167.000
12.71279 169.000
12.73273 169.000
12.75268 176.000
12.77263 138.000
12.79257 163.000
12.81252 152.000
12.83247 166.000
12.85242 125.000
12.87236 154.000
12.89231 156.000
12.91226 153.000
12.93220 139.000
12.95215 165.000
12.97210 174.000
12.99204 150.000
13.01199 149.000
13.03194 135.000
13.05189 167.000
13.07183 180.000
13.09178 144.000
13.11173 148.000
13.13167 139.000
13.15162 141.000
13.17157 162.000
13.19151 160.000
13.21146 138.000
13.23141 155.000
13.25135 170.000
13.27130 151.000
13.29125 152.000
13.31120 158.000
13.33114 143.000
13.35109 170.000
13.37104 166.000
13.39098 176.000
13.41093 167.000
13.43088 176.000
13.45082 156.000
13.47077 167.000
13.49072 149.000
13.51067 158.000
13.53061 155.000
13.55056 167.000
13.57051 156.000
13.59045 157.000
13.61040 153.000
13.63035 167.000
13.65029 140.000
13.67024 179.000
13.69019 174.000
13.71013 149.000
13.73008 145.000
13.75003 166.000
13.76998 172.000
13.78992 142.000
13.80987 172.000
13.82982 162.000
13.84976 174.000
13.86971 154.000
13.88966 169.000
13.90960 156.000
13.92955 162.000
13.94950 163.000
13.96945 153.000
13.98939 155.000
14.00934 162.000
14.02929 162.000
14.04923 154.000
14.06918 164.000
14.08913 162.000
14.10907 150.000
14.12902 133.000
14.14897 173.000
14.16892 178.000
14.18886 173.000
14.20881 177.000
14.22876 161.000
14.24870 160.000
14.26865 171.000
14.28860 164.000
14.30854 157.000
14.32849 176.000
14.34844 151.000
14.36838 143.000
14.38833 167.000
14.40828 169.000
14.42823 162.000
14.44817 160.000
14.46812 139.000
14.48807 141.000
14.50801 182.000
14.52796 165.000
14.54791 156.000
14.56785 178.000
14.58780 172.000
14.60775 169.000
14.62770 160.000
14.64764 160.000
14.66759 160.000
14.68754 145.000
14.70748 165.000
14.72743 177.000
14.74738 189.000
14.76732 163.000
14.78727 170.000
14.80722 159.000
14.82716 161.000
14.84711 183.000
14.86706 168.000
14.88701 162.000
14.90695 168.000
14.92690 165.000
14.94685 193.000
14.96679 189.000
14.98674 177.000
15.00669 188.000
15.02663 186.000
15.04658 181.000
15.06653 165.000
15.08648 172.000
15.10642 190.000
15.12637 187.000
15.14632 187.000
15.16626 188.000
15.18621 197.000
15.20616 163.000
15.22610 167.000
15.24605 174.000
15.26600 190.000
15.28594 175.000
15.30589 208.000
15.32584 194.000
15.34579 168.000
15.36573 186.000
15.38568 228.000
15.40563 194.000
15.42557 223.000
15.44552 212.000
15.46547 254.000
15.48541 214.000
15.50536 233.000
15.52531 261.000
15.54526 227.000
15.56520 244.000
15.58515 249.000
15.60510 259.000
15.62504 278.000
15.64499 316.000
15.66494 362.000
15.68488 399.000
15.70483 453.000
15.72478 538.000
15.74472 742.000
15.76467 1007.000
15.78462 1395.000
15.80457 1798.000
15.82451 2365.000
15.84446 2794.000
15.86441 2982.000
15.88435 2847.000
15.90430 2193.000
15.92425 1457.000
15.94419 921.000
15.96414 703.000
15.98409 568.000
16.00404 544.000
16.02398 512.000
16.04393 646.000
16.06388 657.000
16.08382 714.000
16.10377 864.000
16.12372 941.000
16.14366 941.000
16.16361 853.000
16.18356 711.000
16.20351 618.000
16.22345 453.000
16.24340 407.000
16.26335 335.000
16.28329 261.000
16.30324 259.000
16.32319 257.000
16.34313 230.000
16.36308 220.000
16.38303 262.000
16.40297 247.000
16.42292 243.000
16.44287 186.000
16.46282 197.000
16.48276 216.000
16.50271 180.000
16.52266 198.000
16.54260 180.000
16.56255 194.000
16.58250 202.000
16.60244 189.000
16.62239 191.000
16.64234 194.000
16.66229 200.000
16.68223 189.000
16.70218 208.000
16.72213 202.000
16.74207 195.000
16.76202 201.000
16.78197 219.000
16.80191 216.000
16.82186 202.000
16.84181 218.000
16.86175 224.000
16.88170 199.000
16.90165 200.000
16.92160 176.000
16.94154 175.000
16.96149 175.000
16.98144 178.000
17.00138 176.000
17.02133 162.000
17.04128 186.000
17.06122 167.000
17.08117 164.000
17.10112 180.000
17.12107 189.000
17.14101 140.000
17.16096 182.000
17.18091 169.000
17.20085 166.000
17.22080 169.000
17.24075 153.000
17.26069 157.000
17.28064 158.000
17.30059 186.000
17.32053 177.000
17.34048 169.000
17.36043 187.000
17.38038 189.000
17.40032 168.000
17.42027 174.000
17.44022 156.000
17.46016 179.000
17.48011 146.000
17.50006 155.000
17.52000 160.000
17.53995 156.000
17.55990 180.000
17.57985 150.000
17.59979 169.000
17.61974 190.000
17.63969 174.000
17.65963 158.000
17.67958 169.000
17.69953 142.000
17.71947 158.000
17.73942 160.000
17.75937 166.000
17.77932 167.000
17.79926 158.000
17.81921 136.000
17.83916 157.000
17.85910 153.000
17.87905 166.000
17.89900 181.000
17.91894 168.000
17.93889 169.000
17.95884 159.000
17.97878 168.000
17.99873 174.000
18.01868 169.000
18.03863 178.000
18.05857 158.000
18.07852 156.000
18.09847 157.000
18.11841 166.000
18.13836 153.000
18.15831 160.000
18.17825 199.000
18.19820 185.000
18.21815 177.000
18.23810 176.000
18.25804 169.000
18.27799 185.000
18.29794 184.000
18.31788 231.000
18.33783 256.000
18.35778 343.000
18.37772 378.000
18.39767 363.000
18.41762 362.000
18.43756 307.000
18.45751 253.000
18.47746 234.000
18.49741 182.000
18.51735 203.000
18.53730 190.000
18.55725 163.000
18.57719 171.000
18.59714 165.000
18.61709 219.000
18.63703 171.000
18.65698 173.000
18.67693 174.000
18.69688 160.000
18.71682 153.000
18.73677 166.000
18.75672 189.000
18.77666 162.000
18.79661 181.000
18.81656 156.000
18.83650 157.000
18.85645 146.000
18.87640 162.000
18.89634 159.000
18.91629 157.000
18.93624 156.000
18.95619 167.000
18.97613 150.000
18.99608 163.000
19.01603 164.000
19.03597 151.000
19.05592 164.000
19.07587 153.000
19.09581 144.000
19.11576 164.000
19.13571 177.000
19.15566 164.000
19.17560 169.000
19.19555 183.000
19.21550 149.000
19.23544 176.000
19.25539 152.000
19.27534 173.000
19.29528 145.000
19.31523 154.000
19.33518 172.000
19.35513 152.000
19.37507 176.000
19.39502 165.000
19.41497 150.000
19.43491 156.000
19.45486 157.000
19.47481 154.000
19.49475 158.000
19.51470 170.000
19.53465 170.000
19.55459 154.000
19.57454 159.000
19.59449 165.000
19.61444 160.000
19.63438 190.000
19.65433 160.000
19.67428 150.000
19.69422 149.000
19.71417 191.000
19.73412 183.000
19.75406 163.000
19.77401 169.000
19.79396 176.000
19.81391 161.000
19.83385 156.000
19.85380 178.000
19.87375 154.000
19.89369 161.000
19.91364 148.000
19.93359 197.000
19.95353 163.000
19.97348 167.000
19.99343 161.000
20.01337 173.000
20.03332 164.000
20.05327 169.000
20.07322 162.000
20.09316 199.000
20.11311 161.000
20.13306 142.000
20.15300 174.000
20.17295 178.000
20.19290 157.000
20.21284 162.000
20.23279 172.000
20.25274 172.000
20.27269 157.000
20.29263 162.000
20.31258 155.000
20.33253 161.000
20.35247 159.000
20.37242 157.000
20.39237 146.000
20.41231 199.000
20.43226 169.000
20.45221 172.000
20.47215 178.000
20.49210 172.000
20.51205 172.000
20.53200 177.000
20.55194 168.000
20.57189 165.000
20.59184 184.000
20.61178 160.000
20.63173 171.000
20.65168 161.000
20.67162 186.000
20.69157 175.000
20.71152 190.000
20.73147 209.000
20.75141 190.000
20.77136 214.000
20.79131 217.000
20.81125 195.000
20.83120 231.000
20.85115 222.000
20.87109 219.000
20.89104 200.000
20.91099 226.000
20.93094 222.000
20.95088 258.000
20.97083 226.000
20.99078 235.000
21.01072 228.000
21.03067 223.000
21.05062 221.000
21.07056 196.000
21.09051 210.000
21.11046 197.000
21.13040 216.000
21.15035 208.000
21.17030 171.000
21.19025 158.000
21.21019 172.000
21.23014 158.000
21.25009 185.000
21.27003 180.000
21.28998 178.000
21.30993 165.000
21.32987 195.000
21.34982 174.000
21.36977 182.000
21.38972 145.000
21.40966 154.000
21.42961 175.000
21.44956 168.000
21.46950 168.000
21.48945 170.000
21.50940 170.000
21.52934 180.000
21.54929 170.000
21.56924 134.000
21.58918 158.000
21.60913 153.000
21.62908 184.000
21.64903 168.000
21.66897 135.000
21.68892 157.000
21.70887 142.000
21.72881 179.000
21.74876 204.000
21.76871 155.000
21.78865 172.000
21.80860 167.000
21.82855 177.000
21.84850 176.000
21.86844 184.000
21.88839 174.000
21.90834 164.000
21.92828 152.000
21.94823 148.000
21.96818 174.000
21.98812 138.000
22.00807 159.000
22.02802 188.000
22.04796 177.000
22.06791 161.000
22.08786 153.000
22.10781 167.000
22.12775 183.000
22.14770 170.000
22.16765 161.000
22.18759 148.000
22.20754 163.000
22.22749 174.000
22.24743 175.000
22.26738 170.000
22.28733 161.000
22.30728 152.000
22.32722 193.000
22.34717 190.000
22.36712 168.000
22.38706 139.000
22.40701 164.000
22.42696 159.000
22.44690 184.000
22.46685 154.000
22.48680 182.000
22.50675 160.000
22.52669 156.000
22.54664 169.000
22.56659 166.000
22.58653 151.000
22.60648 176.000
22.62643 190.000
22.64637 171.000
22.66632 144.000
22.68627 194.000
22.70621 163.000
22.72616 167.000
22.74611 145.000
22.76606 179.000
22.78600 163.000
22.80595 177.000
22.82590 153.000
22.84584 165.000
22.86579 185.000
22.88574 188.000
22.90568 171.000
22.92563 147.000
22.94558 178.000
22.96553 176.000
22.98547 154.000
23.00542 177.000
23.02537 176.000
23.04531 163.000
23.06526 155.000
23.08521 163.000
23.10515 162.000
23.12510 176.000
23.14505 159.000
23.16499 165.000
23.18494 154.000
23.20489 169.000
23.22484 137.000
23.24478 178.000
23.26473 177.000
23.28468 160.000
23.30462 164.000
23.32457 185.000
23.34452 196.000
23.36446 172.000
23.38441 178.000
23.40436 179.000
23.42431 173.000
23.44425 162.000
23.46420 199.000
23.48415 172.000
23.50409 147.000
23.52404 159.000
23.54399 171.000
23.56393 164.000
23.58388 187.000
23.60383 172.000
23.62377 176.000
23.64372 159.000
23.66367 199.000
23.68362 170.000
23.70356 169.000
23.72351 176.000
23.74346 163.000
23.76340 178.000
23.78335 168.000
23.80330 158.000
23.82324 166.000
23.84319 159.000
23.86314 177.000
23.88309 177.000
23.90303 167.000
23.92298 177.000
23.94293 181.000
23.96287 167.000
23.98282 170.000
24.00277 187.000
24.02271 147.000
24.04266 166.000
24.06261 170.000
24.08256 183.000
24.10250 182.000
24.12245 181.000
24.14240 166.000
24.16234 154.000
24.18229 141.000
24.20224 152.000
24.22218 176.000
24.24213 161.000
24.26208 177.000
24.28202 173.000
24.30197 182.000
24.32192 176.000
24.34187 167.000
24.36181 173.000
24.38176 162.000
24.40171 171.000
24.42165 161.000
24.44160 184.000
24.46155 151.000
24.48149 206.000
24.50144 162.000
24.52139 160.000
24.54134 192.000
24.56128 185.000
24.58123 202.000
24.60118 170.000
24.62112 192.000
24.64107 159.000
24.66102 160.000
24.68096 178.000
24.70091 180.000
24.72086 147.000
24.74080 179.000
24.76075 190.000
24.78070 191.000
24.80065 177.000
24.82059 184.000
24.84054 187.000
24.86049 162.000
24.88043 185.000
24.90038 198.000
24.92033 191.000
24.94027 191.000
24.96022 224.000
24.98017 179.000
25.00012 204.000
25.02006 187.000
25.04001 192.000
25.05996 165.000
25.07990 170.000
25.09985 171.000
25.11980 175.000
25.13974 160.000
25.15969 188.000
25.17964 171.000
25.19958 170.000
25.21953 171.000
25.23948 154.000
25.25943 186.000
25.27937 186.000
25.29932 190.000
25.31927 163.000
25.33921 161.000
25.35916 161.000
25.37911 169.000
25.39905 153.000
25.41900 202.000
25.43895 173.000
25.45890 196.000
25.47884 163.000
25.49879 193.000
25.51874 175.000
25.53868 164.000
25.55863 187.000
25.57858 191.000
25.59852 177.000
25.61847 186.000
25.63842 171.000
25.65837 182.000
25.67831 168.000
25.69826 172.000
25.71821 189.000
25.73815 172.000
25.75810 160.000
25.77805 195.000
25.79799 195.000
25.81794 163.000
25.83789 174.000
25.85783 177.000
25.87778 181.000
25.89773 177.000
25.91768 183.000
25.93762 165.000
25.95757 163.000
25.97752 191.000
25.99746 180.000
26.01741 171.000
26.03736 188.000
26.05730 165.000
26.07725 209.000
26.09720 163.000
26.11715 182.000
26.13709 175.000
26.15704 193.000
26.17699 181.000
26.19693 177.000
26.21688 163.000
26.23683 177.000
26.25677 194.000
26.27672 142.000
26.29667 210.000
26.31661 157.000
26.33656 182.000
26.35651 159.000
26.37646 200.000
26.39640 204.000
26.41635 208.000
26.43630 155.000
26.45624 176.000
26.47619 184.000
26.49614 196.000
26.51608 166.000
26.53603 212.000
26.55598 163.000
26.57593 182.000
26.59587 172.000
26.61582 166.000
26.63577 172.000
26.65571 156.000
26.67566 175.000
26.69561 182.000
26.71555 147.000
26.73550 187.000
26.75545 182.000
26.77539 186.000
26.79534 180.000
26.81529 193.000
26.83524 168.000
26.85518 199.000
26.87513 180.000
26.89508 161.000
26.91502 173.000
26.93497 173.000
26.95492 191.000
26.97486 192.000
26.99481 198.000
27.01476 185.000
27.03471 212.000
27.05465 165.000
27.07460 175.000
27.09455 191.000
27.11449 183.000
27.13444 172.000
27.15439 184.000
27.17433 178.000
27.19428 201.000
27.21423 153.000
27.23417 176.000
27.25412 158.000
27.27407 149.000
27.29402 178.000
27.31396 184.000
27.33391 210.000
27.35386 197.000
27.37380 178.000
27.39375 180.000
27.41370 188.000
27.43364 173.000
27.45359 167.000
27.47354 165.000
27.49349 181.000
27.51343 202.000
27.53338 157.000
27.55333 190.000
27.57327 195.000
27.59322 205.000
27.61317 187.000
27.63311 177.000
27.65306 175.000
27.67301 174.000
27.69296 210.000
27.71290 179.000
27.73285 201.000
27.75280 181.000
27.77274 179.000
27.79269 170.000
27.81264 192.000
27.83258 174.000
27.85253 194.000
27.87248 197.000
27.89242 198.000
27.91237 207.000
27.93232 182.000
27.95227 167.000
27.97221 173.000
27.99216 191.000
28.01211 179.000
28.03205 190.000
28.05200 175.000
28.07195 174.000
28.09189 194.000
28.11184 200.000
28.13179 154.000
28.15174 185.000
28.17168 175.000
28.19163 183.000
28.21158 178.000
28.23152 183.000
28.25147 183.000
28.27142 201.000
28.29136 167.000
28.31131 191.000
28.33126 204.000
28.35120 175.000
28.37115 182.000
28.39110 182.000
28.41105 204.000
28.43099 187.000
28.45094 206.000
28.47089 197.000
28.49083 189.000
28.51078 195.000
28.53073 187.000
28.55067 188.000
28.57062 166.000
28.59057 183.000
28.61052 221.000
28.63046 190.000
28.65041 189.000
28.67036 178.000
28.69030 178.000
28.71025 171.000
28.73020 208.000
28.75014 177.000
28.77009 200.000
28.79004 190.000
28.80998 194.000
28.82993 215.000
28.84988 177.000
28.86983 188.000
28.88977 184.000
28.90972 164.000
28.92967 183.000
28.94961 172.000
28.96956 198.000
28.98951 183.000
29.00945 183.000
29.02940 186.000
29.04935 183.000
29.06930 198.000
29.08924 190.000
29.10919 210.000
29.12914 214.000
29.14908 176.000
29.16903 202.000
29.18898 208.000
29.20892 187.000
29.22887 217.000
29.24882 223.000
29.26877 212.000
29.28871 239.000
29.30866 232.000
29.32861 287.000
29.34855 257.000
29.36850 267.000
29.38845 261.000
29.40839 278.000
29.42834 269.000
29.44829 240.000
29.46823 226.000
29.48818 251.000
29.50813 223.000
29.52808 208.000
29.54802 213.000
29.56797 228.000
29.58792 178.000
29.60786 214.000
29.62781 207.000
29.64776 209.000
29.66770 190.000
29.68765 208.000
29.70760 204.000
29.72755 225.000
29.74749 212.000
29.76744 220.000
29.78739 197.000
29.80733 204.000
29.82728 185.000
29.84723 222.000
29.86717 228.000
29.88712 227.000
29.90707 189.000
29.92701 220.000
29.94696 217.000
29.96691 233.000
29.98686 181.000
30.00680 206.000
30.02675 180.000
30.04670 211.000
30.06664 211.000
30.08659 234.000
30.10654 251.000
30.12648 231.000
30.14643 269.000
30.16638 294.000
30.18633 362.000
30.20627 417.000
30.22622 466.000
30.24617 550.000
30.26611 599.000
30.28606 615.000
30.30601 577.000
30.32595 502.000
30.34590 518.000
30.36585 450.000
30.38579 418.000
30.40574 320.000
30.42569 292.000
30.44564 276.000
30.46558 252.000
30.48553 238.000
30.50548 236.000
30.52542 216.000
30.54537 223.000
30.56532 207.000
30.58526 203.000
30.60521 201.000
30.62516 191.000
30.64511 201.000
30.66505 218.000
30.68500 220.000
30.70495 189.000
30.72489 180.000
30.74484 209.000
30.76479 185.000
30.78473 188.000
30.80468 202.000
30.82463 183.000
30.84458 185.000
30.86452 199.000
30.88447 203.000
30.90442 214.000
30.92436 186.000
30.94431 197.000
30.96426 198.000
30.98420 193.000
31.00415 198.000
31.02410 192.000
31.04404 197.000
31.06399 211.000
31.08394 190.000
31.10389 205.000
31.12383 183.000
31.14378 194.000
31.16373 178.000
31.18367 195.000
31.20362 207.000
31.22357 176.000
31.24351 177.000
31.26346 201.000
31.28341 189.000
31.30336 183.000
31.32330 194.000
31.34325 221.000
31.36320 184.000
31.38314 179.000
31.40309 187.000
31.42304 179.000
31.44298 193.000
31.46293 185.000
31.48288 202.000
31.50282 177.000
31.52277 188.000
31.54272 191.000
31.56267 164.000
31.58261 157.000
31.60256 208.000
31.62251 176.000
31.64245 199.000
31.66240 206.000
31.68235 207.000
31.70229 207.000
31.72224 192.000
31.74219 230.000
31.76214 195.000
31.78208 203.000
31.80203 179.000
31.82198 201.000
31.84192 211.000
31.86187 213.000
31.88182 230.000
31.90176 240.000
31.92171 248.000
31.94166 267.000
31.96160 290.000
31.98155 323.000
32.00150 343.000
32.02145 357.000
32.04139 343.000
32.06134 358.000
32.08129 431.000
32.10123 394.000
32.12118 371.000
32.14113 329.000
32.16107 311.000
32.18102 280.000
32.20097 246.000
32.22092 241.000
32.24086 227.000
32.26081 213.000
32.28076 224.000
32.30070 202.000
32.32065 202.000
32.34060 224.000
32.36054 226.000
32.38049 203.000
32.40044 194.000
32.42039 218.000
32.44033 182.000
32.46028 216.000
32.48023 233.000
32.50017 223.000
32.52012 223.000
32.54007 255.000
32.56001 265.000
32.57996 234.000
32.59991 252.000
32.61985 245.000
32.63980 233.000
32.65975 238.000
32.67970 271.000
32.69964 250.000
32.71959 228.000
32.73954 217.000
32.75948 237.000
32.77943 193.000
32.79938 216.000
32.81932 227.000
32.83927 203.000
32.85922 202.000
32.87917 191.000
32.89911 192.000
32.91906 183.000
32.93901 214.000
32.95895 183.000
32.97890 196.000
32.99885 189.000
33.01879 202.000
33.03874 181.000
33.05869 186.000
33.07863 195.000
33.09858 205.000
33.11853 183.000
33.13848 175.000
33.15842 162.000
33.17837 178.000
33.19832 172.000
33.21826 182.000
33.23821 213.000
33.25816 181.000
33.27810 182.000
33.29805 179.000
33.31800 179.000
33.33795 196.000
33.35789 206.000
33.37784 173.000
33.39779 194.000
33.41773 176.000
33.43768 197.000
33.45763 185.000
33.47757 206.000
33.49752 201.000
33.51747 200.000
33.53741 199.000
33.55736 197.000
33.57731 179.000
33.59726 204.000
33.61720 210.000
33.63715 184.000
33.65710 207.000
33.67704 193.000
33.69699 183.000
33.71694 190.000
33.73688 184.000
33.75683 187.000
33.77678 194.000
33.79673 201.000
33.81667 196.000
33.83662 197.000
33.85657 186.000
33.87651 199.000
33.89646 203.000
33.91641 196.000
33.93635 178.000
33.95630 183.000
33.97625 185.000
33.99620 211.000
34.01614 186.000
34.03609 204.000
34.05604 208.000
34.07598 217.000
34.09593 214.000
34.11588 209.000
34.13582 199.000
34.15577 234.000
34.17572 233.000
34.19566 193.000
34.21561 217.000
34.23556 216.000
34.25551 209.000
34.27545 201.000
34.29540 222.000
34.31535 224.000
34.33529 249.000
34.35524 257.000
34.37519 238.000
34.39513 241.000
34.41508 230.000
34.43503 236.000
34.45498 262.000
34.47492 210.000
34.49487 230.000
34.51482 239.000
34.53476 225.000
34.55471 262.000
34.57466 211.000
34.59460 267.000
34.61455 238.000
34.63450 263.000
34.65444 249.000
34.67439 241.000
34.69434 248.000
34.71429 268.000
34.73423 247.000
34.75418 255.000
34.77413 245.000
34.79407 259.000
34.81402 260.000
34.83397 261.000
34.85391 229.000
34.87386 225.000
34.89381 230.000
34.91376 203.000
34.93370 228.000
34.95365 216.000
34.97360 226.000
34.99354 231.000
35.01349 223.000
35.03344 207.000
35.05338 209.000
35.07333 228.000
35.09328 225.000
35.11322 230.000
35.13317 228.000
35.15312 215.000
35.17307 203.000
35.19301 233.000
35.21296 218.000
35.23291 237.000
35.25285 255.000
35.27280 278.000
35.29275 242.000
35.31269 239.000
35.33264 260.000
35.35259 291.000
35.37254 288.000
35.39248 292.000
35.41243 281.000
35.43238 337.000
35.45232 311.000
35.47227 370.000
35.49222 454.000
35.51216 501.000
35.53211 630.000
35.55206 759.000
35.57201 900.000
35.59195 1109.000
35.61190 1191.000
35.63185 1463.000
35.65179 1577.000
35.67174 1725.000
35.69169 1712.000
35.71163 1470.000
35.73158 1393.000
35.75153 1244.000
35.77147 1089.000
35.79142 937.000
35.81137 796.000
35.83132 676.000
35.85126 588.000
35.87121 574.000
35.89116 437.000
35.91110 413.000
35.93105 359.000
35.95100 365.000
35.97094 351.000
35.99089 295.000
36.01084 259.000
36.03079 255.000
36.05073 277.000
36.07068 287.000
36.09063 244.000
36.11057 247.000
36.13052 257.000
36.15047 255.000
36.17041 254.000
36.19036 256.000
36.21031 236.000
36.23025 240.000
36.25020 215.000
36.27015 217.000
36.29010 233.000
36.31004 234.000
36.32999 233.000
36.34994 239.000
36.36988 239.000
36.38983 241.000
36.40978 236.000
36.42972 239.000
36.44967 235.000
36.46962 266.000
36.48957 231.000
36.50951 275.000
36.52946 265.000
36.54941 270.000
36.56935 231.000
36.58930 244.000
36.60925 278.000
36.62919 238.000
36.64914 240.000
36.66909 261.000
36.68903 257.000
36.70898 265.000
36.72893 273.000
36.74888 247.000
36.76882 242.000
36.78877 292.000
36.80872 263.000
36.82866 283.000
36.84861 308.000
36.86856 315.000
36.88850 374.000
36.90845 406.000
36.92840 386.000
36.94835 452.000
36.96829 473.000
36.98824 499.000
37.00819 543.000
37.02813 546.000
37.04808 652.000
37.06803 694.000
37.08797 887.000
37.10792 1186.000
37.12787 1548.000
37.14781 2299.000
37.16776 2858.000
37.18771 3526.000
37.20766 3496.000
37.22760 3331.000
37.24755 2975.000
37.26750 2811.000
37.28744 2523.000
37.30739 2279.000
37.32734 1844.000
37.34728 1461.000
37.36723 1088.000
37.38718 795.000
37.40713 683.000
37.42707 538.000
37.44702 434.000
37.46697 401.000
37.48691 359.000
37.50686 328.000
37.52681 300.000
37.54675 289.000
37.56670 270.000
37.58665 268.000
37.60660 233.000
37.62654 270.000
37.64649 217.000
37.66644 258.000
37.68638 213.000
37.70633 224.000
37.72628 224.000
37.74622 227.000
37.76617 192.000
37.78612 216.000
37.80606 205.000
37.82601 207.000
37.84596 185.000
37.86591 227.000
37.88585 219.000
37.90580 218.000
37.92575 213.000
37.94569 204.000
37.96564 198.000
37.98559 226.000
38.00553 193.000
38.02548 206.000
38.04543 200.000
38.06538 219.000
38.08532 192.000
38.10527 211.000
38.12522 215.000
38.14516 219.000
38.16511 175.000
38.18506 204.000
38.20500 194.000
38.22495 201.000
38.24490 199.000
38.26484 186.000
38.28479 215.000
38.30474 196.000
38.32469 183.000
38.34463 206.000
38.36458 195.000
38.38453 182.000
38.40447 198.000
38.42442 190.000
38.44437 182.000
38.46431 197.000
38.48426 197.000
38.50421 206.000
38.52416 211.000
38.54410 205.000
38.56405 211.000
38.58400 201.000
38.60394 211.000
38.62389 175.000
38.64384 213.000
38.66378 214.000
38.68373 206.000
38.70368 198.000
38.72362 202.000
38.74357 204.000
38.76352 188.000
38.78347 229.000
38.80341 206.000
38.82336 199.000
38.84331 208.000
38.86325 212.000
38.88320 196.000
38.90315 225.000
38.92309 220.000
38.94304 219.000
38.96299 225.000
38.98294 274.000
39.00288 253.000
39.02283 264.000
39.04278 271.000
39.06272 298.000
39.08267 347.000
39.10262 372.000
39.12256 389.000
39.14251 525.000
39.16246 569.000
39.18241 621.000
39.20235 585.000
39.22230 575.000
39.24225 583.000
39.26219 521.000
39.28214 506.000
39.30209 513.000
39.32203 419.000
39.34198 411.000
39.36193 381.000
39.38187 407.000
39.40182 408.000
39.42177 442.000
39.44172 348.000
39.46166 379.000
39.48161 353.000
39.50156 336.000
39.52150 329.000
39.54145 295.000
39.56140 258.000
39.58134 235.000
39.60129 222.000
39.62124 195.000
39.64119 210.000
39.66113 202.000
39.68108 205.000
39.70103 192.000
39.72097 201.000
39.74092 188.000
39.76087 194.000
39.78081 195.000
39.80076 200.000
39.82071 170.000
39.84065 199.000
39.86060 193.000
39.88055 157.000
39.90050 177.000
39.92044 180.000
39.94039 183.000
39.96034 192.000
39.98028 165.000
40.00023 169.000
40.02018 149.000
40.04012 179.000
40.06007 195.000
40.08002 185.000
40.09997 181.000
40.11991 185.000
40.13986 184.000
40.15981 175.000
40.17975 187.000
40.19970 190.000
40.21965 190.000
40.23959 157.000
40.25954 184.000
40.27949 196.000
40.29943 180.000
40.31938 180.000
40.33933 179.000
40.35928 186.000
40.37922 193.000
40.39917 179.000
40.41912 165.000
40.43906 168.000
40.45901 168.000
40.47896 158.000
40.49890 185.000
40.51885 169.000
40.53880 187.000
40.55875 184.000
40.57869 182.000
40.59864 171.000
40.61859 167.000
40.63853 182.000
40.65848 180.000
40.67843 174.000
40.69837 177.000
40.71832 205.000
40.73827 187.000
40.75822 208.000
40.77816 157.000
40.79811 202.000
40.81806 180.000
40.83800 189.000
40.85795 173.000
40.87790 163.000
40.89784 203.000
40.91779 182.000
40.93774 201.000
40.95768 204.000
40.97763 199.000
40.99758 182.000
41.01753 176.000
41.03747 196.000
41.05742 183.000
41.07737 195.000
41.09731 173.000
41.11726 181.000
41.13721 199.000
41.15715 211.000
41.17710 177.000
41.19705 196.000
41.21700 190.000
41.23694 188.000
41.25689 214.000
41.27684 184.000
41.29678 204.000
41.31673 180.000
41.33668 194.000
41.35662 163.000
41.37657 189.000
41.39652 229.000
41.41646 226.000
41.43641 238.000
41.45636 216.000
41.47631 260.000
41.49625 232.000
41.51620 234.000
41.53615 234.000
41.55609 242.000
41.57604 249.000
41.59599 291.000
41.61593 310.000
41.63588 365.000
41.65583 395.000
41.67578 454.000
41.69572 523.000
41.71567 616.000
41.73562 576.000
41.75556 585.000
41.77551 552.000
41.79546 535.000
41.81540 494.000
41.83535 489.000
41.85530 449.000
41.87524 420.000
41.89519 349.000
41.91514 321.000
41.93509 276.000
41.95503 228.000
41.97498 264.000
41.99493 245.000
42.01487 273.000
42.03482 242.000
42.05477 227.000
42.07471 217.000
42.09466 220.000
42.11461 216.000
42.13456 214.000
42.15450 204.000
42.17445 211.000
42.19440 193.000
42.21434 201.000
42.23429 222.000
42.25424 230.000
42.27418 238.000
42.29413 199.000
42.31408 218.000
42.33403 221.000
42.35397 198.000
42.37392 216.000
42.39387 227.000
42.41381 229.000
42.43376 219.000
42.45371 242.000
42.47365 221.000
42.49360 267.000
42.51355 250.000
42.53349 250.000
42.55344 227.000
42.57339 235.000
42.59334 250.000
42.61328 250.000
42.63323 236.000
42.65318 290.000
42.67312 232.000
42.69307 267.000
42.71302 270.000
42.73296 278.000
42.75291 245.000
42.77286 275.000
42.79281 272.000
42.81275 284.000
42.83270 317.000
42.85265 312.000
42.87259 304.000
42.89254 316.000
42.91249 327.000
42.93243 422.000
42.95238 431.000
42.97233 431.000
42.99227 483.000
43.01222 620.000
43.03217 607.000
43.05212 662.000
43.07206 781.000
43.09201 885.000
43.11196 1144.000
43.13190 1421.000
43.15185 2200.000
43.17180 3252.000
43.19174 4226.000
43.21169 5163.000
43.23164 5745.000
43.25159 5449.000
43.27153 4956.000
43.29148 4200.000
43.31143 3989.000
43.33137 3865.000
43.35132 3701.000
43.37127 3107.000
43.39121 2397.000
43.41116 1795.000
43.43111 1370.000
43.45105 1114.000
43.47100 896.000
43.49095 748.000
43.51090 683.000
43.53084 598.000
43.55079 527.000
43.57074 451.000
43.59068 427.000
43.61063 363.000
43.63058 345.000
43.65052 367.000
43.67047 345.000
43.69042 289.000
43.71037 283.000
43.73031 283.000
43.75026 243.000
43.77021 253.000
43.79015 262.000
43.81010 246.000
43.83005 251.000
43.84999 224.000
43.86994 226.000
43.88989 245.000
43.90984 217.000
43.92978 216.000
43.94973 230.000
43.96968 187.000
43.98962 222.000
44.00957 201.000
44.02952 187.000
44.04946 230.000
44.06941 213.000
44.08936 228.000
44.10930 178.000
44.12925 199.000
44.14920 196.000
44.16915 223.000
44.18909 219.000
44.20904 198.000
44.22899 194.000
44.24893 191.000
44.26888 214.000
44.28883 184.000
44.30877 189.000
44.32872 183.000
44.34867 201.000
44.36862 178.000
44.38856 193.000
44.40851 198.000
44.42846 195.000
44.44840 168.000
44.46835 198.000
44.48830 208.000
44.50824 200.000
44.52819 178.000
44.54814 194.000
44.56808 194.000
44.58803 175.000
44.60798 179.000
44.62793 202.000
44.64787 200.000
44.66782 196.000
44.68777 202.000
44.70771 217.000
44.72766 172.000
44.74761 172.000
44.76755 170.000
44.78750 212.000
44.80745 165.000
44.82740 190.000
44.84734 178.000
44.86729 186.000
44.88724 201.000
44.90718 190.000
44.92713 181.000
44.94708 197.000
44.96702 210.000
44.98697 203.000
45.00692 205.000
45.02686 195.000
45.04681 183.000
45.06676 208.000
45.08671 207.000
45.10665 209.000
45.12660 159.000
45.14655 224.000
45.16649 223.000
45.18644 199.000
45.20639 192.000
45.22633 191.000
45.24628 177.000
45.26623 188.000
45.28618 197.000
45.30612 180.000
45.32607 161.000
45.34602 180.000
45.36596 190.000
45.38591 189.000
45.40586 184.000
45.42580 164.000
45.44575 181.000
45.46570 172.000
45.48565 161.000
45.50559 170.000
45.52554 184.000
45.54549 180.000
45.56543 169.000
45.58538 194.000
45.60533 187.000
45.62527 173.000
45.64522 181.000
45.66517 174.000
45.68511 180.000
45.70506 198.000
45.72501 159.000
45.74496 164.000
45.76490 182.000
45.78485 163.000
45.80480 172.000
45.82474 172.000
45.84469 179.000
45.86464 166.000
45.88458 188.000
45.90453 168.000
45.92448 165.000
45.94443 194.000
45.96437 183.000
45.98432 162.000
46.00427 167.000
46.02421 150.000
46.04416 184.000
46.06411 162.000
46.08405 161.000
46.10400 181.000
46.12395 152.000
46.14389 173.000
46.16384 180.000
46.18379 162.000
46.20374 164.000
46.22368 177.000
46.24363 156.000
46.26358 154.000
46.28352 161.000
46.30347 151.000
46.32342 171.000
46.34336 160.000
46.36331 192.000
46.38326 163.000
46.40321 187.000
46.42315 170.000
46.44310 154.000
46.46305 190.000
46.48299 179.000
46.50294 188.000
46.52289 190.000
46.54283 161.000
46.56278 166.000
46.58273 198.000
46.60267 162.000
46.62262 169.000
46.64257 171.000
46.66252 174.000
46.68246 168.000
46.70241 158.000
46.72236 163.000
46.74230 173.000
46.76225 184.000
46.78220 166.000
46.80214 182.000
46.82209 183.000
46.84204 149.000
46.86199 159.000
46.88193 163.000
46.90188 186.000
46.92183 145.000
46.94177 165.000
46.96172 159.000
46.98167 164.000
47.00161 167.000
47.02156 175.000
47.04151 194.000
47.06146 163.000
47.08140 171.000
47.10135 206.000
47.12130 175.000
47.14124 158.000
47.16119 152.000
47.18114 169.000
47.20108 183.000
47.22103 162.000
47.24098 164.000
47.26092 167.000
47.28087 167.000
47.30082 174.000
47.32077 161.000
47.34071 178.000
47.36066 180.000
47.38061 186.000
47.40055 172.000
47.42050 165.000
47.44045 177.000
47.46039 169.000
47.48034 151.000
47.50029 195.000
47.52024 178.000
47.54018 195.000
47.56013 198.000
47.58008 163.000
47.60002 156.000
47.61997 173.000
47.63992 172.000
47.65986 155.000
47.67981 158.000
47.69976 165.000
47.71970 191.000
47.73965 178.000
47.75960 197.000
47.77955 180.000
47.79949 164.000
47.81944 168.000
47.83939 156.000
47.85933 180.000
47.87928 178.000
47.89923 181.000
47.91917 207.000
47.93912 162.000
47.95907 177.000
47.97902 189.000
47.99896 206.000
48.01891 211.000
48.03886 208.000
48.05880 181.000
48.07875 172.000
48.09870 216.000
48.11864 191.000
48.13859 200.000
48.15854 224.000
48.17848 228.000
48.19843 200.000
48.21838 194.000
48.23833 176.000
48.25827 198.000
48.27822 188.000
48.29817 180.000
48.31811 192.000
48.33806 187.000
48.35801 197.000
48.37795 217.000
48.39790 188.000
48.41785 197.000
48.43780 222.000
48.45774 225.000
48.47769 237.000
48.49764 220.000
48.51758 252.000
48.53753 282.000
48.55748 281.000
48.57742 318.000
48.59737 378.000
48.61732 424.000
48.63726 426.000
48.65721 494.000
48.67716 481.000
48.69711 492.000
48.71705 490.000
48.73700 474.000
48.75695 500.000
48.77689 488.000
48.79684 529.000
48.81679 481.000
48.83673 428.000
48.85668 392.000
48.87663 391.000
48.89658 336.000
48.91652 320.000
48.93647 304.000
48.95642 269.000
48.97636 265.000
48.99631 242.000
49.01626 235.000
49.03620 219.000
49.05615 234.000
49.07610 208.000
49.09605 174.000
49.11599 191.000
49.13594 193.000
49.15589 188.000
49.17583 181.000
49.19578 207.000
49.21573 168.000
49.23567 195.000
49.25562 161.000
49.27557 191.000
49.29551 202.000
49.31546 164.000
49.33541 208.000
49.35536 183.000
49.37530 165.000
49.39525 202.000
49.41520 177.000
49.43514 186.000
49.45509 172.000
49.47504 176.000
49.49498 171.000
49.51493 190.000
49.53488 188.000
49.55483 174.000
49.57477 193.000
49.59472 172.000
49.61467 169.000
49.63461 186.000
49.65456 175.000
49.67451 152.000
49.69445 160.000
49.71440 206.000
49.73435 157.000
49.75429 192.000
49.77424 199.000
49.79419 146.000
49.81414 174.000
49.83408 170.000
49.85403 189.000
49.87398 167.000
49.89392 173.000
49.91387 184.000
49.93382 153.000
49.95376 158.000
49.97371 162.000
49.99366 162.000
50.01361 173.000
50.03355 174.000
50.05350 182.000
50.07345 189.000
50.09339 160.000
50.11334 189.000
50.13329 157.000
50.15323 163.000
50.17318 152.000
50.19313 151.000
50.21307 155.000
50.23302 152.000
50.25297 160.000
50.27292 135.000
50.29286 171.000
50.31281 178.000
50.33276 180.000
50.35270 167.000
50.37265 181.000
50.39260 161.000
50.41254 174.000
50.43249 162.000
50.45244 177.000
50.47239 166.000
50.49233 148.000
50.51228 157.000
50.53223 154.000
50.55217 166.000
50.57212 163.000
50.59207 154.000
50.61201 146.000
50.63196 153.000
50.65191 180.000
50.67186 198.000
50.69180 178.000
50.71175 157.000
50.73170 163.000
50.75164 183.000
50.77159 179.000
50.79154 148.000
50.81148 154.000
50.83143 162.000
50.85138 162.000
50.87132 145.000
50.89127 175.000
50.91122 165.000
50.93117 162.000
50.95111 175.000
50.97106 168.000
50.99101 167.000
51.01095 175.000
51.03090 174.000
51.05085 191.000
51.07079 165.000
51.09074 167.000
51.11069 157.000
51.13064 176.000
51.15058 188.000
51.17053 151.000
51.19048 188.000
51.21042 156.000
51.23037 173.000
51.25032 154.000
51.27026 155.000
51.29021 158.000
51.31016 147.000
51.33010 173.000
51.35005 173.000
51.37000 149.000
51.38995 176.000
51.40989 172.000
51.42984 161.000
51.44979 177.000
51.46973 168.000
51.48968 177.000
51.50963 150.000
51.52957 168.000
51.54952 165.000
51.56947 150.000
51.58942 143.000
51.60936 182.000
51.62931 141.000
51.64926 165.000
51.66920 176.000
51.68915 166.000
51.70910 163.000
51.72904 158.000
51.74899 162.000
51.76894 158.000
51.78888 177.000
51.80883 187.000
51.82878 198.000
51.84873 166.000
51.86867 161.000
51.88862 150.000
51.90857 199.000
51.92851 180.000
51.94846 193.000
51.96841 187.000
51.98835 181.000
52.00830 181.000
52.02825 182.000
52.04820 169.000
52.06814 203.000
52.08809 182.000
52.10804 167.000
52.12798 188.000
52.14793 151.000
52.16788 199.000
52.18782 187.000
52.20777 206.000
52.22772 168.000
52.24767 179.000
52.26761 155.000
52.28756 185.000
52.30751 146.000
52.32745 156.000
52.34740 180.000
52.36735 176.000
52.38729 179.000
52.40724 172.000
52.42719 183.000
52.44713 163.000
52.46708 186.000
52.48703 174.000
52.50698 166.000
52.52692 171.000
52.54687 169.000
52.56682 171.000
52.58676 155.000
52.60671 164.000
52.62666 168.000
52.64660 175.000
52.66655 185.000
52.68650 162.000
52.70645 188.000
52.72639 189.000
52.74634 192.000
52.76629 178.000
52.78623 164.000
52.80618 167.000
52.82613 171.000
52.84607 165.000
52.86602 187.000
52.88597 179.000
52.90591 192.000
52.92586 204.000
52.94581 196.000
52.96576 204.000
52.98570 222.000
53.00565 235.000
53.02560 237.000
53.04554 212.000
53.06549 232.000
53.08544 211.000
53.10538 239.000
53.12533 226.000
53.14528 195.000
53.16523 218.000
53.18517 210.000
53.20512 190.000
53.22507 196.000
53.24501 204.000
53.26496 195.000
53.28491 157.000
53.30485 190.000
53.32480 192.000
53.34475 183.000
53.36469 189.000
53.38464 198.000
53.40459 196.000
53.42454 180.000
53.44448 168.000
53.46443 210.000
53.48438 150.000
53.50432 173.000
53.52427 191.000
53.54422 191.000
53.56416 164.000
53.58411 214.000
53.60406 206.000
53.62401 170.000
53.64395 212.000
53.66390 219.000
53.68385 201.000
53.70379 206.000
53.72374 211.000
53.74369 213.000
53.76363 238.000
53.78358 230.000
53.80353 253.000
53.82348 264.000
53.84342 226.000
53.86337 266.000
53.88332 229.000
53.90326 214.000
53.92321 216.000
53.94316 209.000
53.96310 222.000
53.98305 221.000
54.00300 198.000
54.02294 182.000
54.04289 198.000
54.06284 197.000
54.08279 172.000
54.10273 179.000
54.12268 162.000
54.14263 178.000
54.16257 200.000
54.18252 181.000
54.20247 181.000
54.22241 172.000
54.24236 178.000
54.26231 178.000
54.28226 180.000
54.30220 168.000
54.32215 160.000
54.34210 160.000
54.36204 177.000
54.38199 175.000
54.40194 154.000
54.42188 182.000
54.44183 180.000
54.46178 152.000
54.48172 182.000
54.50167 175.000
54.52162 155.000
54.54157 165.000
54.56151 185.000
54.58146 189.000
54.60141 177.000
54.62135 158.000
54.64130 172.000
54.66125 182.000
54.68119 158.000
54.70114 153.000
54.72109 158.000
54.74104 144.000
54.76098 164.000
54.78093 161.000
54.80088 158.000
54.82082 155.000
54.84077 171.000
54.86072 184.000
54.88066 180.000
54.90061 169.000
54.92056 166.000
54.94050 160.000
54.96045 170.000
54.98040 169.000
55.00035 157.000
55.02029 151.000
55.04024 153.000
55.06019 154.000
55.08013 175.000
55.10008 161.000
55.12003 151.000
55.13997 170.000
55.15992 151.000
55.17987 158.000
55.19982 160.000
55.21976 167.000
55.23971 182.000
55.25966 158.000
55.27960 162.000
55.29955 172.000
55.31950 176.000
55.33944 162.000
55.35939 155.000
55.37934 150.000
55.39929 152.000
55.41923 181.000
55.43918 167.000
55.45913 148.000
55.47907 167.000
55.49902 197.000
55.51897 200.000
55.53891 165.000
55.55886 158.000
55.57881 168.000
55.59875 166.000
55.61870 158.000
55.63865 173.000
55.65860 171.000
55.67854 150.000
55.69849 169.000
55.71844 151.000
55.73838 158.000
55.75833 176.000
55.77828 173.000
55.79822 176.000
55.81817 168.000
55.83812 169.000
55.85807 174.000
55.87801 174.000
55.89796 169.000
55.91791 149.000
55.93785 170.000
55.95780 151.000
55.97775 190.000
55.99769 173.000
56.01764 169.000
56.03759 165.000
56.05753 151.000
56.07748 166.000
56.09743 173.000
56.11738 168.000
56.13732 161.000
56.15727 181.000
56.17722 162.000
56.19716 172.000
56.21711 156.000
56.23706 176.000
56.25700 208.000
56.27695 152.000
56.29690 163.000
56.31685 171.000
56.33679 190.000
56.35674 171.000
56.37669 170.000
56.39663 186.000
56.41658 164.000
56.43653 176.000
56.45647 207.000
56.47642 174.000
56.49637 176.000
56.51631 141.000
56.53626 178.000
56.55621 164.000
56.57616 159.000
56.59610 179.000
56.61605 162.000
56.63600 155.000
56.65594 178.000
56.67589 182.000
56.69584 176.000
56.71578 165.000
56.73573 176.000
56.75568 162.000
56.77563 178.000
56.79557 177.000
56.81552 167.000
56.83547 149.000
56.85541 174.000
56.87536 184.000
56.89531 168.000
56.91525 187.000
56.93520 183.000
56.95515 211.000
56.97510 188.000
56.99504 198.000
57.01499 216.000
57.03494 194.000
57.05488 198.000
57.07483 184.000
57.09478 210.000
57.11472 227.000
57.13467 212.000
57.15462 228.000
57.17456 248.000
57.19451 251.000
57.21446 297.000
57.23441 290.000
57.25435 330.000
57.27430 354.000
57.29425 374.000
57.31419 399.000
57.33414 399.000
57.35409 456.000
57.37403 467.000
57.39398 444.000
57.41393 416.000
57.43388 386.000
57.45382 373.000
57.47377 406.000
57.49372 383.000
57.51366 384.000
57.53361 358.000
57.55356 373.000
57.57350 342.000
57.59345 316.000
57.61340 308.000
57.63334 300.000
57.65329 277.000
57.67324 295.000
57.69319 262.000
57.71313 243.000
57.73308 241.000
57.75303 247.000
57.77297 222.000
57.79292 214.000
57.81287 214.000
57.83281 234.000
57.85276 217.000
57.87271 202.000
57.89266 194.000
57.91260 211.000
57.93255 192.000
57.95250 195.000
57.97244 172.000
57.99239 182.000
58.01234 190.000
58.03228 184.000
58.05223 169.000
58.07218 176.000
58.09212 190.000
58.11207 158.000
58.13202 162.000
58.15197 200.000
58.17191 177.000
58.19186 186.000
58.21181 164.000
58.23175 176.000
58.25170 172.000
58.27165 168.000
58.29159 172.000
58.31154 150.000
58.33149 180.000
58.35144 161.000
58.37138 156.000
58.39133 178.000
58.41128 166.000
58.43122 169.000
58.45117 155.000
58.47112 175.000
58.49106 172.000
58.51101 155.000
58.53096 181.000
58.55090 153.000
58.57085 172.000
58.59080 179.000
58.61075 197.000
58.63069 176.000
58.65064 159.000
58.67059 175.000
58.69053 178.000
58.71048 160.000
58.73043 179.000
58.75037 158.000
58.77032 171.000
58.79027 161.000
58.81022 196.000
58.83016 170.000
58.85011 170.000
58.87006 159.000
58.89000 172.000
58.90995 164.000
58.92990 182.000
58.94984 164.000
58.96979 171.000
58.98974 170.000
59.00969 152.000
59.02963 167.000
59.04958 177.000
59.06953 194.000
59.08947 154.000
59.10942 163.000
59.12937 145.000
59.14931 158.000
59.16926 157.000
59.18921 152.000
59.20915 161.000
59.22910 168.000
59.24905 202.000
59.26900 180.000
59.28894 165.000
59.30889 163.000
59.32884 137.000
59.34878 152.000
59.36873 168.000
59.38868 182.000
59.40862 164.000
59.42857 183.000
59.44852 160.000
59.46847 170.000
59.48841 193.000
59.50836 162.000
59.52831 172.000
59.54825 201.000
59.56820 178.000
59.58815 183.000
59.60809 175.000
59.62804 189.000
59.64799 171.000
59.66793 172.000
59.68788 164.000
59.70783 167.000
59.72778 175.000
59.74772 156.000
59.76767 181.000
59.78762 175.000
59.80756 174.000
59.82751 171.000
59.84746 134.000
59.86740 189.000
59.88735 163.000
59.90730 160.000
59.92725 166.000
59.94719 161.000
59.96714 190.000
59.98709 155.000
60.00703 166.000
60.02698 158.000
60.04693 152.000
60.06687 167.000
60.08682 172.000
60.10677 165.000
60.12671 153.000
60.14666 157.000
60.16661 175.000
60.18656 163.000
60.20650 172.000
60.22645 172.000
60.24640 171.000
60.26634 168.000
60.28629 179.000
60.30624 142.000
60.32618 169.000
60.34613 153.000
60.36608 159.000
60.38603 189.000
60.40597 153.000
60.42592 175.000
60.44587 182.000
60.46581 150.000
60.48576 181.000
60.50571 183.000
60.52565 180.000
60.54560 188.000
60.56555 170.000
60.58550 176.000
60.60544 158.000
60.62539 162.000
60.64534 134.000
60.66528 155.000
60.68523 151.000
60.70518 166.000
60.72512 171.000
60.74507 175.000
60.76502 171.000
60.78496 193.000
60.80491 174.000
60.82486 173.000
60.84481 178.000
60.86475 161.000
60.88470 182.000
60.90465 163.000
60.92459 192.000
60.94454 180.000
60.96449 181.000
60.98443 190.000
61.00438 175.000
61.02433 188.000
61.04428 186.000
61.06422 196.000
61.08417 203.000
61.10412 193.000
61.12406 175.000
61.14401 177.000
61.16396 178.000
61.18390 192.000
61.20385 172.000
61.22380 198.000
61.24374 184.000
61.26369 186.000
61.28364 191.000
61.30359 192.000
61.32353 171.000
61.34348 201.000
61.36343 171.000
61.38337 179.000
61.40332 186.000
61.42327 198.000
61.44321 191.000
61.46316 211.000
61.48311 170.000
61.50306 184.000
61.52300 180.000
61.54295 178.000
61.56290 200.000
61.58284 198.000
61.60279 205.000
61.62274 196.000
61.64268 182.000
61.66263 192.000
61.68258 195.000
61.70252 204.000
61.72247 238.000
61.74242 191.000
61.76237 204.000
61.78231 201.000
61.80226 212.000
61.82221 172.000
61.84215 210.000
61.86210 253.000
61.88205 238.000
61.90199 249.000
61.92194 271.000
61.94189 274.000
61.96184 338.000
61.98178 305.000
62.00173 357.000
62.02168 335.000
62.04162 386.000
62.06157 358.000
62.08152 358.000
62.10146 290.000
62.12141 311.000
62.14136 307.000
62.16131 368.000
62.18125 328.000
62.20120 316.000
62.22115 306.000
62.24109 292.000
62.26104 297.000
62.28099 287.000
62.30093 267.000
62.32088 259.000
62.34083 276.000
62.36077 266.000
62.38072 276.000
62.40067 294.000
62.42062 316.000
62.44056 326.000
62.46051 283.000
62.48046 321.000
62.50040 333.000
62.52035 371.000
62.54030 417.000
62.56024 368.000
62.58019 424.000
62.60014 455.000
62.62009 543.000
62.64003 613.000
62.65998 744.000
62.67993 826.000
62.69987 1071.000
62.71982 1299.000
62.73977 1537.000
62.75971 1785.000
62.77966 1987.000
62.79961 2030.000
62.81955 1973.000
62.83950 1990.000
62.85945 1984.000
62.87940 1868.000
62.89934 1707.000
62.91929 1659.000
62.93924 1638.000
62.95918 1621.000
62.97913 1592.000
62.99908 1525.000
63.01902 1381.000
63.03897 1280.000
63.05892 1079.000
63.07887 992.000
63.09881 828.000
63.11876 721.000
63.13871 678.000
63.15865 597.000
63.17860 601.000
63.19855 554.000
63.21849 484.000
63.23844 411.000
63.25839 469.000
63.27833 409.000
63.29828 428.000
63.31823 369.000
63.33818 338.000
63.35812 324.000
63.37807 314.000
63.39802 308.000
63.41796 304.000
63.43791 277.000
63.45786 261.000
63.47780 263.000
63.49775 253.000
63.51770 242.000
63.53765 233.000
63.55759 263.000
63.57754 234.000
63.59749 252.000
63.61743 226.000
63.63738 221.000
63.65733 226.000
63.67727 212.000
63.69722 233.000
63.71717 234.000
63.73712 241.000
63.75706 224.000
63.77701 223.000
63.79696 264.000
63.81690 256.000
63.83685 274.000
63.85680 259.000
63.87674 262.000
63.89669 268.000
63.91664 271.000
63.93658 272.000
63.95653 274.000
63.97648 228.000
63.99643 251.000
64.01637 278.000
64.03632 269.000
64.05627 251.000
64.07621 208.000
64.09616 247.000
64.11611 240.000
64.13605 243.000
64.15600 260.000
64.17595 208.000
64.19590 219.000
64.21584 220.000
64.23579 216.000
64.25574 206.000
64.27568 200.000
64.29563 219.000
64.31558 213.000
64.33552 234.000
64.35547 221.000
64.37542 229.000
64.39536 225.000
64.41531 209.000
64.43526 214.000
64.45521 240.000
64.47515 205.000
64.49510 196.000
64.51505 198.000
64.53499 222.000
64.55494 229.000
64.57489 190.000
64.59483 201.000
64.61478 203.000
64.63473 229.000
64.65468 186.000
64.67462 208.000
64.69457 177.000
64.71452 210.000
64.73446 199.000
64.75441 178.000
64.77436 190.000
64.79430 157.000
64.81425 186.000
64.83420 189.000
64.85414 184.000
64.87409 181.000
64.89404 190.000
64.91399 202.000
64.93393 180.000
64.95388 181.000
64.97383 175.000
64.99377 206.000
65.01372 155.000
65.03367 186.000
65.05361 184.000
65.07356 159.000
65.09351 172.000
65.11346 176.000
65.13340 163.000
65.15335 180.000
65.17330 156.000
65.19324 168.000
65.21319 164.000
65.23314 176.000
65.25308 189.000
65.27303 171.000
65.29298 173.000
65.31293 165.000
65.33287 181.000
65.35282 184.000
65.37277 153.000
65.39271 175.000
65.41266 167.000
65.43261 162.000
65.45255 188.000
65.47250 185.000
65.49245 200.000
65.51239 194.000
65.53234 175.000
65.55229 191.000
65.57224 199.000
65.59218 192.000
65.61213 188.000
65.63208 196.000
65.65202 190.000
65.67197 208.000
65.69192 208.000
65.71186 207.000
65.73181 218.000
65.75176 218.000
65.77171 217.000
65.79165 219.000
65.81160 215.000
65.83155 228.000
65.85149 219.000
65.87144 202.000
65.89139 226.000
65.91133 211.000
65.93128 202.000
65.95123 204.000
65.97117 202.000
65.99112 203.000
66.01107 226.000
66.03102 188.000
66.05096 212.000
66.07091 195.000
66.09086 180.000
66.11080 203.000
66.13075 190.000
66.15070 196.000
66.17064 194.000
66.19059 216.000
66.21054 210.000
66.23049 203.000
66.25043 232.000
66.27038 230.000
66.29033 262.000
66.31027 227.000
66.33022 242.000
66.35017 192.000
66.37011 237.000
66.39006 217.000
66.41001 219.000
66.42995 224.000
66.44990 223.000
66.46985 207.000
66.48980 228.000
66.50974 218.000
66.52969 197.000
66.54964 190.000
66.56958 188.000
66.58953 212.000
66.60948 199.000
66.62942 211.000
66.64937 213.000
66.66932 193.000
66.68927 208.000
66.70921 178.000
66.72916 198.000
66.74911 224.000
66.76905 203.000
66.78900 182.000
66.80895 210.000
66.82889 196.000
66.84884 183.000
66.86879 199.000
66.88874 215.000
66.90868 210.000
66.92863 203.000
66.94858 187.000
66.96852 193.000
66.98847 180.000
67.00842 197.000
67.02836 203.000
67.04831 174.000
67.06826 174.000
67.08820 222.000
67.10815 213.000
67.12810 199.000
67.14805 177.000
67.16799 197.000
67.18794 178.000
67.20789 177.000
67.22783 175.000
67.24778 177.000
67.26773 195.000
67.28767 185.000
67.30762 146.000
67.32757 170.000
67.34752 181.000
67.36746 176.000
67.38741 168.000
67.40736 159.000
67.42730 181.000
67.44725 173.000
67.46720 189.000
67.48714 172.000
67.50709 163.000
67.52704 162.000
67.54698 173.000
67.56693 177.000
67.58688 185.000
67.60683 163.000
67.62677 159.000
67.64672 180.000
67.66667 176.000
67.68661 154.000
67.70656 166.000
67.72651 170.000
67.74645 167.000
67.76640 163.000
67.78635 183.000
67.80630 196.000
67.82624 172.000
67.84619 172.000
67.86614 162.000
67.88608 201.000
67.90603 171.000
67.92598 171.000
67.94592 202.000
67.96587 167.000
67.98582 185.000
68.00576 187.000
68.02571 167.000
68.04566 189.000
68.06561 178.000
68.08555 179.000
68.10550 173.000
68.12545 171.000
68.14539 159.000
68.16534 187.000
68.18529 173.000
68.20523 179.000
68.22518 161.000
68.24513 154.000
68.26508 208.000
68.28502 166.000
68.30497 166.000
68.32492 175.000
68.34486 170.000
68.36481 157.000
68.38476 191.000
68.40470 150.000
68.42465 154.000
68.44460 161.000
68.46455 142.000
68.48449 205.000
68.50444 195.000
68.52439 182.000
68.54433 167.000
68.56428 170.000
68.58423 154.000
68.60417 169.000
68.62412 165.000
68.64407 162.000
68.66401 172.000
68.68396 176.000
68.70391 152.000
68.72386 167.000
68.74380 166.000
68.76375 163.000
68.78370 150.000
68.80364 151.000
68.82359 176.000
68.84354 166.000
68.86348 191.000
68.88343 169.000
68.90338 153.000
68.92333 157.000
68.94327 144.000
68.96322 146.000
68.98317 182.000
69.00311 153.000
69.02306 157.000
69.04301 156.000
69.06295 152.000
69.08290 173.000
69.10285 187.000
69.12279 149.000
69.14274 167.000
69.16269 157.000
69.18264 169.000
69.20258 165.000
69.22253 165.000
69.24248 186.000
69.26242 165.000
69.28237 184.000
69.30232 153.000
69.32226 187.000
69.34221 162.000
69.36216 173.000
69.38211 164.000
69.40205 142.000
69.42200 158.000
69.44195 164.000
69.46189 183.000
69.48184 170.000
69.50179 148.000
69.52173 153.000
69.54168 170.000
69.56163 157.000
69.58157 162.000
69.60152 175.000
69.62147 164.000
69.64142 170.000
69.66136 171.000
69.68131 185.000
69.70126 168.000
69.72120 171.000
69.74115 166.000
69.76110 166.000
69.78104 158.000
69.80099 184.000
69.82094 180.000
69.84089 154.000
69.86083 155.000
69.88078 163.000
69.90073 162.000
69.92067 146.000
69.94062 167.000
69.96057 169.000
69.98051 158.000
70.00046 169.000
70.02041 164.000
70.04035 160.000
70.06030 166.000
70.08025 158.000
70.10020 146.000
70.12014 170.000
70.14009 137.000
70.16004 147.000
70.17998 151.000
70.19993 178.000
70.21988 162.000
70.23982 165.000
70.25977 162.000
70.27972 136.000
70.29967 153.000
70.31961 175.000
70.33956 175.000
70.35951 197.000
70.37945 183.000
70.39940 161.000
70.41935 167.000
70.43929 151.000
70.45924 160.000
70.47919 132.000
70.49914 166.000
70.51908 171.000
70.53903 157.000
70.55898 165.000
70.57892 168.000
70.59887 177.000
70.61882 162.000
70.63876 165.000
70.65871 143.000
70.67866 168.000
70.69860 150.000
70.71855 174.000
70.73850 163.000
70.75845 175.000
70.77839 146.000
70.79834 174.000
70.81829 145.000
70.83823 158.000
70.85818 171.000
70.87813 163.000
70.89807 170.000
70.91802 154.000
70.93797 181.000
70.95792 163.000
70.97786 156.000
70.99781 155.000
71.01776 166.000
71.03770 180.000
71.05765 158.000
71.07760 182.000
71.09754 142.000
71.11749 153.000
71.13744 170.000
71.15738 167.000
71.17733 171.000
71.19728 150.000
71.21723 183.000
71.23717 153.000
71.25712 168.000
71.27707 163.000
71.29701 171.000
71.31696 168.000
71.33691 180.000
71.35685 168.000
71.37680 184.000
71.39675 169.000
71.41670 165.000
71.43664 189.000
71.45659 153.000
71.47654 187.000
71.49648 202.000
71.51643 200.000
71.53638 164.000
71.55632 150.000
71.57627 185.000
71.59622 199.000
71.61616 167.000
71.63611 189.000
71.65606 188.000
71.67601 183.000
71.69595 165.000
71.71590 196.000
71.73585 197.000
71.75579 172.000
71.77574 162.000
71.79569 198.000
71.81563 180.000
71.83558 157.000
71.85553 175.000
71.87548 160.000
71.89542 165.000
71.91537 155.000
71.93532 160.000
71.95526 156.000
71.97521 149.000
71.99516 145.000
72.01510 165.000
72.03505 164.000
72.05500 156.000
72.07495 179.000
72.09489 182.000
72.11484 163.000
72.13479 172.000
72.15473 164.000
72.17468 166.000
72.19463 181.000
72.21457 129.000
72.23452 180.000
72.25447 167.000
72.27441 169.000
72.29436 172.000
72.31431 144.000
72.33426 157.000
72.35420 152.000
72.37415 148.000
72.39410 165.000
72.41404 145.000
72.43399 171.000
72.45394 180.000
72.47388 159.000
72.49383 151.000
72.51378 156.000
72.53373 154.000
72.55367 152.000
72.57362 179.000
72.59357 174.000
72.61351 168.000
72.63346 159.000
72.65341 178.000
72.67335 155.000
72.69330 170.000
72.71325 200.000
72.73319 164.000
72.75314 173.000
72.77309 136.000
72.79304 159.000
72.81298 180.000
72.83293 174.000
72.85288 192.000
72.87282 165.000
72.89277 182.000
72.91272 162.000
72.93266 163.000
72.95261 171.000
72.97256 179.000
72.99251 184.000
73.01245 180.000
73.03240 156.000
73.05235 189.000
73.07229 181.000
73.09224 164.000
73.11219 183.000
73.13213 188.000
73.15208 183.000
73.17203 177.000
73.19197 182.000
73.21192 192.000
73.23187 180.000
73.25182 192.000
73.27176 217.000
73.29171 205.000
73.31166 189.000
73.33160 195.000
73.35155 188.000
73.37150 193.000
73.39144 210.000
73.41139 194.000
73.43134 187.000
73.45129 220.000
73.47123 222.000
73.49118 219.000
73.51113 205.000
73.53107 204.000
73.55102 212.000
73.57097 191.000
73.59091 203.000
73.61086 201.000
73.63081 202.000
73.65076 180.000
73.67070 209.000
73.69065 177.000
73.71060 162.000
73.73054 161.000
73.75049 207.000
73.77044 184.000
73.79038 169.000
73.81033 194.000
73.83028 196.000
73.85022 172.000
73.87017 193.000
73.89012 172.000
73.91007 164.000
73.93001 182.000
73.94996 184.000
73.96991 201.000
73.98985 184.000
74.00980 167.000
74.02975 157.000
74.04969 160.000
74.06964 176.000
74.08959 174.000
74.10954 144.000
74.12948 198.000
74.14943 171.000
74.16938 172.000
74.18932 177.000
74.20927 151.000
74.22922 194.000
74.24916 181.000
74.26911 159.000
74.28906 184.000
74.30900 194.000
74.32895 165.000
74.34890 199.000
74.36885 175.000
74.38879 187.000
74.40874 214.000
74.42869 216.000
74.44863 230.000
74.46858 203.000
74.48853 214.000
74.50847 211.000
74.52842 219.000
74.54837 214.000
74.56832 219.000
74.58826 231.000
74.60821 194.000
74.62816 213.000
74.64810 229.000
74.66805 224.000
74.68800 214.000
74.70794 220.000
74.72789 223.000
74.74784 214.000
74.76778 233.000
74.78773 197.000
74.80768 202.000
74.82763 221.000
74.84757 232.000
74.86752 217.000
74.88747 216.000
74.90741 213.000
74.92736 231.000
74.94731 198.000
74.96725 216.000
74.98720 247.000
75.00715 237.000
75.02710 220.000
75.04704 271.000
75.06699 223.000
75.08694 256.000
75.10688 305.000
75.12683 293.000
75.14678 329.000
75.16672 337.000
75.18667 424.000
75.20662 423.000
75.22657 503.000
75.24651 601.000
75.26646 656.000
75.28641 678.000
75.30635 682.000
75.32630 728.000
75.34625 725.000
75.36619 715.000
75.38614 681.000
75.40609 632.000
75.42603 626.000
75.44598 590.000
75.46593 562.000
75.48588 534.000
75.50582 558.000
75.52577 534.000
75.54572 500.000
75.56566 510.000
75.58561 493.000
75.60556 487.000
75.62550 394.000
75.64545 366.000
75.66540 322.000
75.68535 328.000
75.70529 284.000
75.72524 271.000
75.74519 231.000
75.76513 256.000
75.78508 276.000
75.80503 219.000
75.82497 209.000
75.84492 212.000
75.86487 223.000
75.88481 195.000
75.90476 187.000
75.92471 182.000
75.94466 203.000
75.96460 191.000
75.98455 200.000
76.00450 188.000
76.02444 187.000
76.04439 172.000
76.06434 160.000
76.08428 207.000
76.10423 199.000
76.12418 171.000
76.14413 170.000
76.16407 196.000
76.18402 167.000
76.20397 188.000
76.22391 178.000
76.24386 180.000
76.26381 156.000
76.28375 148.000
76.30370 162.000
76.32365 187.000
76.34359 153.000
76.36354 166.000
76.38349 166.000
76.40344 173.000
76.42338 187.000
76.44333 177.000
76.46328 160.000
76.48322 164.000
76.50317 171.000
76.52312 200.000
76.54306 172.000
76.56301 169.000
76.58296 167.000
76.60291 197.000
76.62285 141.000
76.64280 164.000
76.66275 155.000
76.68269 189.000
76.70264 189.000
76.72259 162.000
76.74253 196.000
76.76248 169.000
76.78243 174.000
76.80238 155.000
76.82232 157.000
76.84227 156.000
76.86222 150.000
76.88216 163.000
76.90211 157.000
76.92206 173.000
76.94200 159.000
76.96195 172.000
76.98190 173.000
77.00184 160.000
77.02179 176.000
77.04174 149.000
77.06169 177.000
77.08163 181.000
77.10158 150.000
77.12153 167.000
77.14147 166.000
77.16142 159.000
77.18137 161.000
77.20131 185.000
77.22126 176.000
77.24121 168.000
77.26116 163.000
77.28110 153.000
77.30105 163.000
77.32100 147.000
77.34094 167.000
77.36089 177.000
77.38084 147.000
77.40078 176.000
77.42073 162.000
77.44068 180.000
77.46062 145.000
77.48057 178.000
77.50052 185.000
77.52047 162.000
77.54041 177.000
77.56036 169.000
77.58031 195.000
77.60025 193.000
77.62020 181.000
77.64015 201.000
77.66009 197.000
77.68004 169.000
77.69999 201.000
77.71994 208.000
77.73988 186.000
77.75983 195.000
77.77978 181.000
77.79972 170.000
77.81967 194.000
77.83962 197.000
77.85956 189.000
77.87951 181.000
77.89946 198.000
77.91940 180.000
77.93935 177.000
77.95930 178.000
77.97925 183.000
77.99919 171.000
78.01914 176.000
78.03909 199.000
78.05903 163.000
78.07898 190.000
78.09893 168.000
78.11887 174.000
78.13882 190.000
78.15877 168.000
78.17872 196.000
78.19866 178.000
78.21861 193.000
78.23856 202.000
78.25850 231.000
78.27845 214.000
78.29840 231.000
78.31834 210.000
78.33829 198.000
78.35824 226.000
78.37819 230.000
78.39813 219.000
78.41808 202.000
78.43803 221.000
78.45797 221.000
78.47792 213.000
78.49787 200.000
78.51781 189.000
78.53776 211.000
78.55771 213.000
78.57765 187.000
78.59760 198.000
78.61755 204.000
78.63750 183.000
78.65744 211.000
78.67739 208.000
78.69734 216.000
78.71728 200.000
78.73723 187.000
78.75718 203.000
78.77712 201.000
78.79707 222.000
78.81702 197.000
78.83697 190.000
78.85691 195.000
78.87686 194.000
78.89681 215.000
78.91675 209.000
78.93670 190.000
78.95665 245.000
78.97659 197.000
78.99654 252.000
79.01649 217.000
79.03643 204.000
79.05638 239.000
79.07633 253.000
79.09628 226.000
79.11622 280.000
79.13617 305.000
79.15612 307.000
79.17606 367.000
79.19601 406.000
79.21596 425.000
79.23590 448.000
79.25585 495.000
79.27580 506.000
79.29575 547.000
79.31569 594.000
79.33564 575.000
79.35559 512.000
79.37553 507.000
79.39548 482.000
79.41543 473.000
79.43537 446.000
79.45532 443.000
79.47527 428.000
79.49521 435.000
79.51516 441.000
79.53511 397.000
79.55506 393.000
79.57500 382.000
79.59495 380.000
79.61490 351.000
79.63484 339.000
79.65479 320.000
79.67474 290.000
79.69468 261.000
79.71463 241.000
79.73458 250.000
79.75453 210.000
79.77447 218.000
79.79442 198.000
79.81437 209.000
79.83431 202.000
79.85426 195.000
79.87421 182.000
79.89415 186.000
79.91410 192.000
79.93405 177.000
79.95399 186.000
79.97394 170.000
79.99389 176.000
80.01384 186.000
80.03378 157.000
80.05373 182.000
80.07368 159.000
80.09362 187.000
80.11357 159.000
80.13352 158.000
80.15346 175.000
80.17341 179.000
80.19336 164.000
80.21331 161.000
80.23325 169.000
80.25320 174.000
80.27315 167.000
80.29309 172.000
80.31304 165.000
80.33299 175.000
80.35293 166.000
80.37288 166.000
80.39283 182.000
80.41278 186.000
80.43272 155.000
80.45267 182.000
80.47262 166.000
80.49256 157.000
80.51251 172.000
80.53246 156.000
80.55240 150.000
80.57235 173.000
80.59230 185.000
80.61224 163.000
80.63219 156.000
80.65214 173.000
80.67209 186.000
80.69203 151.000
80.71198 188.000
80.73193 158.000
80.75187 149.000
80.77182 182.000
80.79177 153.000
80.81171 159.000
80.83166 169.000
80.85161 153.000
80.87156 157.000
80.89150 177.000
80.91145 139.000
80.93140 165.000
80.95134 171.000
80.97129 163.000
80.99124 160.000
81.01118 198.000
81.03113 139.000
81.05108 163.000
81.07102 157.000
81.09097 167.000
81.11092 168.000
81.13087 165.000
81.15081 166.000
81.17076 181.000
81.19071 176.000
81.21065 162.000
81.23060 136.000
81.25055 156.000
81.27049 157.000
81.29044 157.000
81.31039 160.000
81.33034 149.000
81.35028 172.000
81.37023 145.000
81.39018 151.000
81.41012 150.000
81.43007 171.000
81.45002 129.000
81.46996 151.000
81.48991 147.000
81.50986 160.000
81.52980 176.000
81.54975 146.000
81.56970 163.000
81.58965 137.000
81.60959 160.000
81.62954 150.000
81.64949 163.000
81.66943 156.000
81.68938 156.000
81.70933 156.000
81.72927 138.000
81.74922 151.000
81.76917 139.000
81.78912 155.000
81.80906 154.000
81.82901 157.000
81.84896 144.000
81.86890 156.000
81.88885 172.000
81.90880 152.000
81.92874 171.000
81.94869 161.000
81.96864 142.000
81.98859 170.000
82.00853 172.000
82.02848 170.000
82.04843 157.000
82.06837 155.000
82.08832 154.000
82.10827 183.000
82.12821 153.000
82.14816 148.000
82.16811 133.000
82.18805 163.000
82.20800 184.000
82.22795 132.000
82.24790 169.000
82.26784 165.000
82.28779 178.000
82.30774 148.000
82.32768 169.000
82.34763 184.000
82.36758 158.000
82.38752 140.000
82.40747 156.000
82.42742 158.000
82.44737 159.000
82.46731 137.000
82.48726 163.000
82.50721 186.000
82.52715 155.000
82.54710 149.000
82.56705 173.000
82.58699 159.000
82.60694 159.000
82.62689 164.000
82.64683 166.000
82.66678 175.000
82.68673 150.000
82.70668 156.000
82.72662 158.000
82.74657 157.000
82.76652 151.000
82.78646 169.000
82.80641 164.000
82.82636 179.000
82.84630 158.000
82.86625 153.000
82.88620 151.000
82.90615 131.000
82.92609 153.000
82.94604 159.000
82.96599 159.000
82.98593 157.000
83.00588 157.000
83.02583 166.000
83.04577 151.000
83.06572 164.000
83.08567 144.000
83.10561 166.000
83.12556 155.000
83.14551 167.000
83.16546 155.000
83.18540 152.000
83.20535 143.000
83.22530 155.000
83.24524 185.000
83.26519 135.000
83.28514 165.000
83.30508 147.000
83.32503 140.000
83.34498 184.000
83.36493 156.000
83.38487 162.000
83.40482 175.000
83.42477 188.000
83.44471 145.000
83.46466 151.000
83.48461 152.000
83.50455 168.000
83.52450 167.000
83.54445 169.000
83.56440 165.000
83.58434 161.000
83.60429 169.000
83.62424 134.000
83.64418 168.000
83.66413 153.000
83.68408 145.000
83.70402 161.000
83.72397 142.000
83.74392 163.000
83.76386 184.000
83.78381 140.000
83.80376 164.000
83.82371 162.000
83.84365 139.000
83.86360 170.000
83.88355 165.000
83.90349 173.000
83.92344 183.000
83.94339 166.000
83.96333 151.000
83.98328 137.000
84.00323 155.000
84.02318 170.000
84.04312 163.000
84.06307 157.000
84.08302 172.000
84.10296 178.000
84.12291 175.000
84.14286 186.000
84.16280 177.000
84.18275 199.000
84.20270 183.000
84.22264 171.000
84.24259 189.000
84.26254 187.000
84.28249 189.000
84.30243 156.000
84.32238 193.000
84.34233 194.000
84.36227 175.000
84.38222 172.000
84.40217 193.000
84.42211 181.000
84.44206 192.000
84.46201 208.000
84.48196 167.000
84.50190 192.000
84.52185 166.000
84.54180 170.000
84.56174 210.000
84.58169 173.000
84.60164 161.000
84.62158 158.000
84.64153 173.000
84.66148 167.000
84.68142 167.000
84.70137 192.000
84.72132 166.000
84.74127 168.000
84.76121 168.000
84.78116 175.000
84.80111 185.000
84.82105 192.000
84.84100 172.000
84.86095 192.000
84.88089 175.000
84.90084 167.000
84.92079 165.000
84.94074 156.000
84.96068 151.000
84.98063 168.000
85.00058 172.000
85.02052 161.000
85.04047 176.000
85.06042 150.000
85.08036 152.000
85.10031 174.000
85.12026 169.000
85.14021 143.000
85.16015 161.000
85.18010 156.000
85.20005 152.000
85.21999 155.000
85.23994 148.000
85.25989 149.000
85.27983 168.000
85.29978 163.000
85.31973 157.000
85.33967 165.000
85.35962 169.000
85.37957 139.000
85.39952 159.000
85.41946 155.000
85.43941 156.000
85.45936 171.000
85.47930 170.000
85.49925 155.000
85.51920 178.000
85.53914 156.000
85.55909 135.000
85.57904 148.000
85.59899 160.000
85.61893 160.000
85.63888 152.000
85.65883 167.000
85.67877 158.000
85.69872 163.000
85.71867 157.000
85.73861 158.000
85.75856 153.000
85.77851 149.000
85.79845 169.000
85.81840 142.000
85.83835 145.000
85.85830 146.000
85.87824 165.000
85.89819 169.000
85.91814 176.000
85.93808 146.000
85.95803 150.000
85.97798 143.000
85.99792 148.000
86.01787 161.000
86.03782 118.000
86.05777 165.000
86.07771 154.000
86.09766 166.000
86.11761 136.000
86.13755 152.000
86.15750 148.000
86.17745 155.000
86.19739 184.000
86.21734 150.000
86.23729 148.000
86.25723 136.000
86.27718 138.000
86.29713 159.000
86.31708 155.000
86.33702 168.000
86.35697 150.000
86.37692 180.000
86.39686 171.000
86.41681 161.000
86.43676 144.000
86.45670 159.000
86.47665 137.000
86.49660 168.000
86.51655 162.000
86.53649 168.000
86.55644 148.000
86.57639 169.000
86.59633 177.000
86.61628 165.000
86.63623 152.000
86.65617 158.000
86.67612 172.000
86.69607 159.000
86.71602 168.000
86.73596 174.000
86.75591 154.000
86.77586 150.000
86.79580 175.000
86.81575 191.000
86.83570 156.000
86.85564 164.000
86.87559 162.000
86.89554 164.000
86.91548 158.000
86.93543 135.000
86.95538 162.000
86.97533 164.000
86.99527 166.000
87.01522 177.000
87.03517 182.000
87.05511 190.000
87.07506 152.000
87.09501 149.000
87.11495 175.000
87.13490 181.000
87.15485 185.000
87.17480 193.000
87.19474 159.000
87.21469 184.000
87.23464 188.000
87.25458 186.000
87.27453 185.000
87.29448 193.000
87.31442 185.000
87.33437 200.000
87.35432 168.000
87.37426 187.000
87.39421 219.000
87.41416 159.000
87.43411 199.000
87.45405 181.000
87.47400 171.000
87.49395 177.000
87.51389 161.000
87.53384 175.000
87.55379 190.000
87.57373 181.000
87.59368 187.000
87.61363 169.000
87.63358 157.000
87.65352 174.000
87.67347 179.000
87.69342 168.000
87.71336 167.000
87.73331 204.000
87.75326 153.000
87.77320 158.000
87.79315 206.000
87.81310 209.000
87.83304 176.000
87.85299 167.000
87.87294 170.000
87.89289 163.000
87.91283 164.000
87.93278 149.000
87.95273 167.000
87.97267 160.000
87.99262 159.000
88.01257 160.000
88.03251 160.000
88.05246 161.000
88.07241 166.000
88.09236 155.000
88.11230 159.000
88.13225 155.000
88.15220 146.000
88.17214 155.000
88.19209 149.000
88.21204 161.000
88.23198 153.000
88.25193 166.000
88.27188 142.000
88.29183 155.000
88.31177 161.000
88.33172 175.000
88.35167 158.000
88.37161 157.000
88.39156 137.000
88.41151 145.000
88.43145 158.000
88.45140 165.000
88.47135 158.000
88.49129 142.000
88.51124 143.000
88.53119 161.000
88.55114 155.000
88.57108 177.000
88.59103 155.000
88.61098 163.000
88.63092 157.000
88.65087 163.000
88.67082 173.000
88.69076 140.000
88.71071 160.000
88.73066 168.000
88.75061 131.000
88.77055 162.000
88.79050 180.000
88.81045 165.000
88.83039 164.000
88.85034 155.000
88.87029 139.000
88.89023 173.000
88.91018 148.000
88.93013 135.000
88.95007 169.000
88.97002 141.000
88.98997 165.000
89.00992 153.000
89.02986 152.000
89.04981 159.000
89.06976 153.000
89.08970 155.000
89.10965 148.000
89.12960 179.000
89.14954 151.000
89.16949 129.000
89.18944 181.000
89.20939 154.000
89.22933 181.000
89.24928 158.000
89.26923 148.000
89.28917 167.000
89.30912 182.000
89.32907 150.000
89.34901 177.000
89.36896 170.000
89.38891 157.000
89.40885 174.000
89.42880 178.000
89.44875 147.000
89.46870 151.000
89.48864 169.000
89.50859 139.000
89.52854 158.000
89.54848 177.000
89.56843 131.000
89.58838 179.000
89.60832 144.000
89.62827 167.000
89.64822 172.000
89.66817 154.000
89.68811 164.000
89.70806 176.000
89.72801 147.000
89.74795 159.000
89.76790 141.000
89.78785 157.000
89.80779 174.000
89.82774 186.000
89.84769 153.000
89.86764 178.000
89.88758 180.000
89.90753 176.000
89.92748 155.000
89.94742 157.000
89.96737 189.000
89.98732 153.000
90.00726 150.000
