10.00000 103.000
10.01995 77.000
10.03989 95.000
10.05984 96.000
10.07979 113.000
10.09973 108.000
10.11968 81.000
10.13963 84.000
10.15958 81.000
10.17952 80.000
10.19947 98.000
10.21942 91.000
10.23936 91.000
10.25931 96.000
10.27926 101.000
10.29920 112.000
10.31915 106.000
10.33910 96.000
10.35905 110.000
10.37899 114.000
10.39894 115.000
10.41889 81.000
10.43883 95.000
10.45878 84.000
10.47873 96.000
10.49867 101.000
10.51862 98.000
10.53857 104.000
10.55851 115.000
10.57846 94.000
10.59841 106.000
10.61836 83.000
10.63830 110.000
10.65825 106.000
10.67820 112.000
10.69814 120.000
10.71809 96.000
10.73804 107.000
10.75798 108.000
10.77793 106.000
10.79788 113.000
10.81783 110.000
10.83777 105.000
10.85772 91.000
10.87767 99.000
10.89761 92.000
10.91756 116.000
10.93751 94.000
10.95745 101.000
10.97740 103.000
10.99735 107.000
11.01730 108.000
11.03724 98.000
11.05719 103.000
11.07714 96.000
11.09708 93.000
11.11703 115.000
11.13698 113.000
11.15692 109.000
11.17687 106.000
11.19682 102.000
11.21676 119.000
11.23671 101.000
11.25666 105.000
11.27661 96.000
11.29655 106.000
11.31650 112.000
11.33645 105.000
11.35639 99.000
11.37634 108.000
11.39629 121.000
11.41623 89.000
11.43618 93.000
11.45613 117.000
11.47608 98.000
11.49602 94.000
11.51597 115.000
11.53592 100.000
11.55586 117.000
11.57581 98.000
11.59576 95.000
11.61570 106.000
11.63565 103.000
11.65560 124.000
11.67554 101.000
11.69549 105.000
11.71544 115.000
11.73539 117.000
11.75533 97.000
11.77528 110.000
11.79523 106.000
11.81517 96.000
11.83512 125.000
11.85507 112.000
11.87501 111.000
11.89496 103.000
11.91491 129.000
11.93486 121.000
11.95480 105.000
11.97475 90.000
11.99470 104.000
12.01464 128.000
12.03459 115.000
12.05454 96.000
12.07448 116.000
12.09443 105.000
12.11438 80.000
12.13432 106.000
12.15427 104.000
12.17422 129.000
12.19417 107.000
12.21411 103.000
12.23406 122.000
12.25401 123.000
12.27395 95.000
12.29390 116.000
12.31385 101.000
12.33379 136.000
12.35374 99.000
12.37369 108.000
12.39364 118.000
12.41358 115.000
12.43353 101.000
12.45348 102.000
12.47342 134.000
12.49337 119.000
12.51332 103.000
12.53326 131.000
12.55321 106.000
12.57316 112.000
12.59311 102.000
12.61305 116.000
12.63300 115.000
12.65295 103.000
12.67289 127.000
12.69284 112.000
12.71279 98.000
12.73273 126.000
12.75268 119.000
12.77263 109.000
12.79257 112.000
12.81252 129.000
12.83247 117.000
12.85242 116.000
12.87236 121.000
12.89231 106.000
12.91226 141.000
12.93220 110.000
12.95215 106.000
12.97210 110.000
12.99204 139.000
13.01199 104.000
13.03194 107.000
13.05189 124.000
13.07183 123.000
13.09178 116.000
13.11173 107.000
13.13167 123.000
13.15162 118.000
13.17157 117.000
13.19151 114.000
13.21146 129.000
13.23141 106.000
13.25135 139.000
13.27130 129.000
13.29125 113.000
13.31120 116.000
13.33114 121.000
13.35109 127.000
13.37104 111.000
13.39098 124.000
13.41093 118.000
13.43088 98.000
13.45082 121.000
13.47077 118.000
13.49072 138.000
13.51067 135.000
13.53061 115.000
13.55056 145.000
13.57051 133.000
13.59045 137.000
13.61040 150.000
13.63035 124.000
13.65029 142.000
13.67024 136.000
13.69019 124.000
13.71013 116.000
13.73008 114.000
13.75003 127.000
13.76998 114.000
13.78992 144.000
13.80987 107.000
13.82982 138.000
13.84976 123.000
13.86971 123.000
13.88966 130.000
13.90960 111.000
13.92955 129.000
13.94950 147.000
13.96945 143.000
13.98939 113.000
14.00934 152.000
14.02929 143.000
14.04923 148.000
14.06918 103.000
14.08913 130.000
14.10907 146.000
14.12902 117.000
14.14897 136.000
14.16892 127.000
14.18886 132.000
14.20881 114.000
14.22876 128.000
14.24870 141.000
14.26865 146.000
14.28860 146.000
14.30854 148.000
14.32849 131.000
14.34844 133.000
14.36838 121.000
14.38833 148.000
14.40828 160.000
14.42823 143.000
14.44817 133.000
14.46812 161.000
14.48807 133.000
14.50801 141.000
14.52796 135.000
14.54791 135.000
14.56785 170.000
14.58780 134.000
14.60775 155.000
14.62770 136.000
14.64764 139.000
14.66759 128.000
14.68754 150.000
14.70748 147.000
14.72743 159.000
14.74738 146.000
14.76732 130.000
14.78727 162.000
14.80722 167.000
14.82716 151.000
14.84711 139.000
14.86706 152.000
14.88701 165.000
14.90695 162.000
14.92690 159.000
14.94685 150.000
14.96679 148.000
14.98674 135.000
15.00669 156.000
15.02663 149.000
15.04658 176.000
15.06653 186.000
15.08648 176.000
15.10642 160.000
15.12637 167.000
15.14632 167.000
15.16626 166.000
15.18621 158.000
15.20616 135.000
15.22610 161.000
15.24605 181.000
15.26600 164.000
15.28594 175.000
15.30589 193.000
15.32584 182.000
15.34579 191.000
15.36573 190.000
15.38568 172.000
15.40563 192.000
15.42557 155.000
15.44552 174.000
15.46547 182.000
15.48541 173.000
15.50536 181.000
15.52531 185.000
15.54526 189.000
15.56520 158.000
15.58515 177.000
15.60510 174.000
15.62504 178.000
15.64499 169.000
15.66494 179.000
15.68488 214.000
15.70483 188.000
15.72478 168.000
15.74472 193.000
15.76467 186.000
15.78462 194.000
15.80457 159.000
15.82451 168.000
15.84446 178.000
15.86441 196.000
15.88435 211.000
15.90430 183.000
15.92425 184.000
15.94419 160.000
15.96414 173.000
15.98409 190.000
16.00404 168.000
16.02398 196.000
16.04393 199.000
16.06388 190.000
16.08382 213.000
16.10377 197.000
16.12372 192.000
16.14366 203.000
16.16361 219.000
16.18356 214.000
16.20351 223.000
16.22345 201.000
16.24340 186.000
16.26335 194.000
16.28329 203.000
16.30324 203.000
16.32319 238.000
16.34313 217.000
16.36308 231.000
16.38303 200.000
16.40297 219.000
16.42292 218.000
16.44287 230.000
16.46282 207.000
16.48276 220.000
16.50271 225.000
16.52266 216.000
16.54260 219.000
16.56255 198.000
16.58250 206.000
16.60244 209.000
16.62239 248.000
16.64234 210.000
16.66229 182.000
16.68223 203.000
16.70218 231.000
16.72213 209.000
16.74207 245.000
16.76202 242.000
16.78197 212.000
16.80191 242.000
16.82186 218.000
16.84181 217.000
16.86175 242.000
16.88170 228.000
16.90165 217.000
16.92160 226.000
16.94154 249.000
16.96149 251.000
16.98144 246.000
17.00138 269.000
17.02133 233.000
17.04128 238.000
17.06122 221.000
17.08117 210.000
17.10112 225.000
17.12107 214.000
17.14101 249.000
17.16096 236.000
17.18091 254.000
17.20085 213.000
17.22080 243.000
17.24075 242.000
17.26069 246.000
17.28064 284.000
17.30059 250.000
17.32053 257.000
17.34048 262.000
17.36043 263.000
17.38038 263.000
17.40032 264.000
17.42027 245.000
17.44022 261.000
17.46016 258.000
17.48011 259.000
17.50006 254.000
17.52000 265.000
17.53995 257.000
17.55990 260.000
17.57985 290.000
17.59979 267.000
17.61974 269.000
17.63969 278.000
17.65963 262.000
17.67958 246.000
17.69953 262.000
17.71947 248.000
17.73942 257.000
17.75937 275.000
17.77932 268.000
17.79926 267.000
17.81921 256.000
17.83916 307.000
17.85910 320.000
17.87905 324.000
17.89900 288.000
17.91894 306.000
17.93889 300.000
17.95884 307.000
17.97878 316.000
17.99873 308.000
18.01868 310.000
18.03863 284.000
18.05857 326.000
18.07852 285.000
18.09847 297.000
18.11841 277.000
18.13836 268.000
18.15831 291.000
18.17825 286.000
18.19820 260.000
18.21815 267.000
18.23810 269.000
18.25804 288.000
18.27799 287.000
18.29794 290.000
18.31788 278.000
18.33783 299.000
18.35778 277.000
18.37772 277.000
18.39767 290.000
18.41762 291.000
18.43756 333.000
18.45751 273.000
18.47746 292.000
18.49741 277.000
18.51735 295.000
18.53730 312.000
18.55725 315.000
18.57719 309.000
18.59714 302.000
18.61709 300.000
18.63703 320.000
18.65698 326.000
18.67693 327.000
18.69688 294.000
18.71682 312.000
18.73677 281.000
18.75672 309.000
18.77666 311.000
18.79661 293.000
18.81656 300.000
18.83650 328.000
18.85645 340.000
18.87640 311.000
18.89634 327.000
18.91629 331.000
18.93624 352.000
18.95619 339.000
18.97613 299.000
18.99608 327.000
19.01603 358.000
19.03597 352.000
19.05592 341.000
19.07587 324.000
19.09581 292.000
19.11576 301.000
19.13571 330.000
19.15566 315.000
19.17560 331.000
19.19555 332.000
19.21550 369.000
19.23544 312.000
19.25539 334.000
19.27534 331.000
19.29528 338.000
19.31523 339.000
19.33518 374.000
19.35513 366.000
19.37507 320.000
19.39502 357.000
19.41497 321.000
19.43491 312.000
19.45486 348.000
19.47481 354.000
19.49475 351.000
19.51470 355.000
19.53465 333.000
19.55459 353.000
19.57454 358.000
19.59449 357.000
19.61444 365.000
19.63438 335.000
19.65433 407.000
19.67428 361.000
19.69422 339.000
19.71417 325.000
19.73412 347.000
19.75406 378.000
19.77401 371.000
19.79396 327.000
19.81391 372.000
19.83385 370.000
19.85380 377.000
19.87375 376.000
19.89369 366.000
19.91364 363.000
19.93359 374.000
19.95353 389.000
19.97348 385.000
19.99343 374.000
20.01337 355.000
20.03332 365.000
20.05327 355.000
20.07322 372.000
20.09316 349.000
20.11311 357.000
20.13306 356.000
20.15300 389.000
20.17295 378.000
20.19290 379.000
20.21284 349.000
20.23279 354.000
20.25274 394.000
20.27269 368.000
20.29263 400.000
20.31258 362.000
20.33253 437.000
20.35247 404.000
20.37242 385.000
20.39237 404.000
20.41231 421.000
20.43226 403.000
20.45221 431.000
20.47215 408.000
20.49210 418.000
20.51205 418.000
20.53200 450.000
20.55194 466.000
20.57189 473.000
20.59184 468.000
20.61178 507.000
20.63173 458.000
20.65168 470.000
20.67162 504.000
20.69157 492.000
20.71152 517.000
20.73147 458.000
20.75141 470.000
20.77136 457.000
20.79131 427.000
20.81125 407.000
20.83120 448.000
20.85115 452.000
20.87109 369.000
20.89104 427.000
20.91099 436.000
20.93094 409.000
20.95088 414.000
20.97083 418.000
20.99078 418.000
21.01072 385.000
21.03067 426.000
21.05062 409.000
21.07056 435.000
21.09051 421.000
21.11046 430.000
21.13040 405.000
21.15035 449.000
21.17030 448.000
21.19025 405.000
21.21019 407.000
21.23014 396.000
21.25009 405.000
21.27003 366.000
21.28998 401.000
21.30993 412.000
21.32987 421.000
21.34982 389.000
21.36977 401.000
21.38972 395.000
21.40966 421.000
21.42961 391.000
21.44956 408.000
21.46950 419.000
21.48945 413.000
21.50940 436.000
21.52934 413.000
21.54929 429.000
21.56924 444.000
21.58918 434.000
21.60913 411.000
21.62908 462.000
21.64903 421.000
21.66897 437.000
21.68892 417.000
21.70887 396.000
21.72881 418.000
21.74876 458.000
21.76871 437.000
21.78865 441.000
21.80860 459.000
21.82855 452.000
21.84850 417.000
21.86844 435.000
21.88839 429.000
21.90834 467.000
21.92828 468.000
21.94823 468.000
21.96818 433.000
21.98812 445.000
22.00807 471.000
22.02802 462.000
22.04796 439.000
22.06791 470.000
22.08786 444.000
22.10781 437.000
22.12775 434.000
22.14770 423.000
22.16765 459.000
22.18759 405.000
22.20754 423.000
22.22749 444.000
22.24743 457.000
22.26738 449.000
22.28733 453.000
22.30728 445.000
22.32722 489.000
22.34717 488.000
22.36712 452.000
22.38706 438.000
22.40701 450.000
22.42696 449.000
22.44690 434.000
22.46685 466.000
22.48680 475.000
22.50675 513.000
22.52669 524.000
22.54664 469.000
22.56659 440.000
22.58653 440.000
22.60648 469.000
22.62643 441.000
22.64637 501.000
22.66632 501.000
22.68627 430.000
22.70621 487.000
22.72616 442.000
22.74611 453.000
22.76606 467.000
22.78600 483.000
22.80595 473.000
22.82590 477.000
22.84584 468.000
22.86579 471.000
22.88574 459.000
22.90568 489.000
22.92563 491.000
22.94558 456.000
22.96553 450.000
22.98547 488.000
23.00542 481.000
23.02537 471.000
23.04531 462.000
23.06526 471.000
23.08521 474.000
23.10515 474.000
23.12510 429.000
23.14505 509.000
23.16499 486.000
23.18494 470.000
23.20489 466.000
23.22484 456.000
23.24478 503.000
23.26473 511.000
23.28468 492.000
23.30462 454.000
23.32457 493.000
23.34452 507.000
23.36446 472.000
23.38441 489.000
23.40436 481.000
23.42431 499.000
23.44425 493.000
23.46420 518.000
23.48415 464.000
23.50409 459.000
23.52404 493.000
23.54399 514.000
23.56393 507.000
23.58388 531.000
23.60383 472.000
23.62377 463.000
23.64372 525.000
23.66367 511.000
23.68362 479.000
23.70356 484.000
23.72351 532.000
23.74346 482.000
23.76340 513.000
23.78335 495.000
23.80330 514.000
23.82324 500.000
23.84319 482.000
23.86314 494.000
23.88309 508.000
23.90303 542.000
23.92298 525.000
23.94293 497.000
23.96287 509.000
23.98282 457.000
24.00277 510.000
24.02271 500.000
24.04266 523.000
24.06261 539.000
24.08256 475.000
24.10250 524.000
24.12245 539.000
24.14240 457.000
24.16234 504.000
24.18229 580.000
24.20224 548.000
24.22218 568.000
24.24213 544.000
24.26208 484.000
24.28202 540.000
24.30197 545.000
24.32192 494.000
24.34187 540.000
24.36181 533.000
24.38176 533.000
24.40171 511.000
24.42165 466.000
24.44160 467.000
24.46155 520.000
24.48149 564.000
24.50144 476.000
24.52139 562.000
24.54134 545.000
24.56128 503.000
24.58123 526.000
24.60118 531.000
24.62112 516.000
24.64107 526.000
24.66102 575.000
24.68096 526.000
24.70091 565.000
24.72086 573.000
24.74080 512.000
24.76075 550.000
24.78070 535.000
24.80065 524.000
24.82059 547.000
24.84054 588.000
24.86049 538.000
24.88043 558.000
24.90038 580.000
24.92033 561.000
24.94027 576.000
24.96022 563.000
24.98017 576.000
25.00012 552.000
25.02006 576.000
25.04001 543.000
25.05996 571.000
25.07990 587.000
25.09985 582.000
25.11980 548.000
25.13974 553.000
25.15969 571.000
25.17964 560.000
25.19958 556.000
25.21953 567.000
25.23948 606.000
25.25943 571.000
25.27937 613.000
25.29932 545.000
25.31927 521.000
25.33921 584.000
25.35916 564.000
25.37911 557.000
25.39905 577.000
25.41900 585.000
25.43895 568.000
25.45890 523.000
25.47884 594.000
25.49879 579.000
25.51874 597.000
25.53868 553.000
25.55863 528.000
25.57858 564.000
25.59852 597.000
25.61847 571.000
25.63842 621.000
25.65837 567.000
25.67831 563.000
25.69826 591.000
25.71821 561.000
25.73815 594.000
25.75810 597.000
25.77805 641.000
25.79799 568.000
25.81794 603.000
25.83789 620.000
25.85783 587.000
25.87778 600.000
25.89773 589.000
25.91768 565.000
25.93762 623.000
25.95757 596.000
25.97752 642.000
25.99746 631.000
26.01741 599.000
26.03736 634.000
26.05730 625.000
26.07725 617.000
26.09720 618.000
26.11715 591.000
26.13709 573.000
26.15704 589.000
26.17699 606.000
26.19693 597.000
26.21688 578.000
26.23683 595.000
26.25677 622.000
26.27672 624.000
26.29667 626.000
26.31661 641.000
26.33656 639.000
26.35651 585.000
26.37646 632.000
26.39640 619.000
26.41635 604.000
26.43630 625.000
26.45624 616.000
26.47619 588.000
26.49614 584.000
26.51608 620.000
26.53603 584.000
26.55598 636.000
26.57593 588.000
26.59587 623.000
26.61582 609.000
26.63577 656.000
26.65571 608.000
26.67566 617.000
26.69561 615.000
26.71555 607.000
26.73550 623.000
26.75545 581.000
26.77539 590.000
26.79534 689.000
26.81529 638.000
26.83524 633.000
26.85518 599.000
26.87513 598.000
26.89508 605.000
26.91502 595.000
26.93497 618.000
26.95492 616.000
26.97486 605.000
26.99481 663.000
27.01476 648.000
27.03471 615.000
27.05465 654.000
27.07460 596.000
27.09455 580.000
27.11449 642.000
27.13444 611.000
27.15439 647.000
27.17433 667.000
27.19428 650.000
27.21423 663.000
27.23417 682.000
27.25412 601.000
27.27407 648.000
27.29402 665.000
27.31396 721.000
27.33391 682.000
27.35386 684.000
27.37380 687.000
27.39375 633.000
27.41370 643.000
27.43364 640.000
27.45359 663.000
27.47354 666.000
27.49349 642.000
27.51343 659.000
27.53338 663.000
27.55333 648.000
27.57327 651.000
27.59322 687.000
27.61317 657.000
27.63311 672.000
27.65306 647.000
27.67301 597.000
27.69296 651.000
27.71290 658.000
27.73285 643.000
27.75280 649.000
27.77274 627.000
27.79269 628.000
27.81264 652.000
27.83258 626.000
27.85253 726.000
27.87248 662.000
27.89242 650.000
27.91237 686.000
27.93232 642.000
27.95227 651.000
27.97221 681.000
27.99216 663.000
28.01211 695.000
28.03205 684.000
28.05200 695.000
28.07195 629.000
28.09189 649.000
28.11184 637.000
28.13179 669.000
28.15174 729.000
28.17168 669.000
28.19163 670.000
28.21158 662.000
28.23152 657.000
28.25147 651.000
28.27142 676.000
28.29136 705.000
28.31131 672.000
28.33126 699.000
28.35120 657.000
28.37115 651.000
28.39110 678.000
28.41105 668.000
28.43099 673.000
28.45094 678.000
28.47089 731.000
28.49083 660.000
28.51078 692.000
28.53073 683.000
28.55067 656.000
28.57062 698.000
28.59057 722.000
28.61052 696.000
28.63046 664.000
28.65041 675.000
28.67036 646.000
28.69030 709.000
28.71025 670.000
28.73020 690.000
28.75014 637.000
28.77009 662.000
28.79004 716.000
28.80998 679.000
28.82993 695.000
28.84988 653.000
28.86983 699.000
28.88977 685.000
28.90972 638.000
28.92967 681.000
28.94961 704.000
28.96956 669.000
28.98951 687.000
29.00945 710.000
29.02940 688.000
29.04935 640.000
29.06930 709.000
29.08924 671.000
29.10919 727.000
29.12914 689.000
29.14908 668.000
29.16903 720.000
29.18898 662.000
29.20892 724.000
29.22887 686.000
29.24882 718.000
29.26877 689.000
29.28871 692.000
29.30866 685.000
29.32861 684.000
29.34855 685.000
29.36850 689.000
29.38845 648.000
29.40839 698.000
29.42834 708.000
29.44829 704.000
29.46823 705.000
29.48818 729.000
29.50813 683.000
29.52808 746.000
29.54802 690.000
29.56797 738.000
29.58792 674.000
29.60786 728.000
29.62781 711.000
29.64776 729.000
29.66770 801.000
29.68765 799.000
29.70760 752.000
29.72755 829.000
29.74749 867.000
29.76744 889.000
29.78739 996.000
29.80733 998.000
29.82728 958.000
29.84723 1018.000
29.86717 1034.000
29.88712 972.000
29.90707 930.000
29.92701 911.000
29.94696 822.000
29.96691 837.000
29.98686 827.000
30.00680 786.000
30.02675 783.000
30.04670 707.000
30.06664 731.000
30.08659 691.000
30.10654 769.000
30.12648 748.000
30.14643 677.000
30.16638 728.000
30.18633 728.000
30.20627 736.000
30.22622 677.000
30.24617 693.000
30.26611 670.000
30.28606 703.000
30.30601 740.000
30.32595 687.000
30.34590 700.000
30.36585 710.000
30.38579 687.000
30.40574 678.000
30.42569 666.000
30.44564 686.000
30.46558 677.000
30.48553 706.000
30.50548 762.000
30.52542 672.000
30.54537 711.000
30.56532 728.000
30.58526 713.000
30.60521 742.000
30.62516 681.000
30.64511 666.000
30.66505 687.000
30.68500 687.000
30.70495 719.000
30.72489 690.000
30.74484 725.000
30.76479 689.000
30.78473 736.000
30.80468 729.000
30.82463 732.000
30.84458 655.000
30.86452 724.000
30.88447 765.000
30.90442 714.000
30.92436 733.000
30.94431 713.000
30.96426 750.000
30.98420 730.000
31.00415 655.000
31.02410 687.000
31.04404 693.000
31.06399 716.000
31.08394 710.000
31.10389 698.000
31.12383 726.000
31.14378 702.000
31.16373 725.000
31.18367 658.000
31.20362 686.000
31.22357 693.000
31.24351 715.000
31.26346 716.000
31.28341 722.000
31.30336 697.000
31.32330 676.000
31.34325 737.000
31.36320 732.000
31.38314 710.000
31.40309 709.000
31.42304 664.000
31.44298 696.000
31.46293 692.000
31.48288 692.000
31.50282 678.000
31.52277 670.000
31.54272 736.000
31.56267 655.000
31.58261 728.000
31.60256 723.000
31.62251 686.000
31.64245 687.000
31.66240 694.000
31.68235 712.000
31.70229 740.000
31.72224 776.000
31.74219 758.000
31.76214 701.000
31.78208 762.000
31.80203 736.000
31.82198 729.000
31.84192 764.000
31.86187 755.000
31.88182 794.000
31.90176 841.000
31.92171 864.000
31.94166 858.000
31.96160 894.000
31.98155 882.000
32.00150 956.000
32.02145 919.000
32.04139 975.000
32.06134 925.000
32.08129 895.000
32.10123 904.000
32.12118 863.000
32.14113 832.000
32.16107 775.000
32.18102 748.000
32.20097 773.000
32.22092 748.000
32.24086 744.000
32.26081 710.000
32.28076 757.000
32.30070 719.000
32.32065 676.000
32.34060 709.000
32.36054 671.000
32.38049 666.000
32.40044 710.000
32.42039 655.000
32.44033 703.000
32.46028 683.000
32.48023 666.000
32.50017 687.000
32.52012 678.000
32.54007 706.000
32.56001 706.000
32.57996 699.000
32.59991 625.000
32.61985 707.000
32.63980 660.000
32.65975 653.000
32.67970 667.000
32.69964 722.000
32.71959 690.000
32.73954 669.000
32.75948 643.000
32.77943 688.000
32.79938 681.000
32.81932 671.000
32.83927 708.000
32.85922 664.000
32.87917 682.000
32.89911 677.000
32.91906 650.000
32.93901 684.000
32.95895 685.000
32.97890 667.000
32.99885 685.000
33.01879 696.000
33.03874 703.000
33.05869 696.000
33.07863 653.000
33.09858 622.000
33.11853 667.000
33.13848 682.000
33.15842 698.000
33.17837 647.000
33.19832 686.000
33.21826 646.000
33.23821 697.000
33.25816 665.000
33.27810 660.000
33.29805 632.000
33.31800 706.000
33.33795 621.000
33.35789 665.000
33.37784 660.000
33.39779 645.000
33.41773 650.000
33.43768 681.000
33.45763 659.000
33.47757 661.000
33.49752 671.000
33.51747 658.000
33.53741 664.000
33.55736 689.000
33.57731 652.000
33.59726 625.000
33.61720 713.000
33.63715 667.000
33.65710 686.000
33.67704 679.000
33.69699 630.000
33.71694 731.000
33.73688 699.000
33.75683 645.000
33.77678 655.000
33.79673 682.000
33.81667 642.000
33.83662 686.000
33.85657 709.000
33.87651 683.000
33.89646 710.000
33.91641 635.000
33.93635 689.000
33.95630 658.000
33.97625 657.000
33.99620 651.000
34.01614 727.000
34.03609 695.000
34.05604 675.000
34.07598 740.000
34.09593 710.000
34.11588 744.000
34.13582 806.000
34.15577 736.000
34.17572 788.000
34.19566 797.000
34.21561 794.000
34.23556 799.000
34.25551 773.000
34.27545 790.000
34.29540 810.000
34.31535 850.000
34.33529 836.000
34.35524 800.000
34.37519 829.000
34.39513 817.000
34.41508 789.000
34.43503 856.000
34.45498 750.000
34.47492 811.000
34.49487 767.000
34.51482 779.000
34.53476 810.000
34.55471 734.000
34.57466 793.000
34.59460 758.000
34.61455 831.000
34.63450 859.000
34.65444 844.000
34.67439 859.000
34.69434 893.000
34.71429 875.000
34.73423 955.000
34.75418 953.000
34.77413 1051.000
34.79407 1136.000
34.81402 1160.000
34.83397 1267.000
34.85391 1346.000
34.87386 1496.000
34.89381 1685.000
34.91376 1906.000
34.93370 2156.000
34.95365 2444.000
34.97360 2641.000
34.99354 2891.000
35.01349 3239.000
35.03344 3411.000
35.05338 3521.000
35.07333 3591.000
35.09328 3677.000
35.11322 3789.000
35.13317 3861.000
35.15312 3909.000
35.17307 3739.000
35.19301 3697.000
35.21296 3401.000
35.23291 3198.000
35.25285 3049.000
35.27280 2664.000
35.29275 2406.000
35.31269 2179.000
35.33264 1831.000
35.35259 1647.000
35.37254 1488.000
35.39248 1246.000
35.41243 1125.000
35.43238 1073.000
35.45232 885.000
35.47227 899.000
35.49222 834.000
35.51216 777.000
35.53211 787.000
35.55206 723.000
35.57201 695.000
35.59195 741.000
35.61190 767.000
35.63185 715.000
35.65179 700.000
35.67174 723.000
35.69169 719.000
35.71163 715.000
35.73158 701.000
35.75153 697.000
35.77147 644.000
35.79142 678.000
35.81137 680.000
35.83132 619.000
35.85126 706.000
35.87121 647.000
35.89116 691.000
35.91110 669.000
35.93105 666.000
35.95100 699.000
35.97094 691.000
35.99089 668.000
36.01084 675.000
36.03079 627.000
36.05073 658.000
36.07068 678.000
36.09063 673.000
36.11057 651.000
36.13052 648.000
36.15047 620.000
36.17041 647.000
36.19036 639.000
36.21031 668.000
36.23025 664.000
36.25020 690.000
36.27015 719.000
36.29010 694.000
36.31004 672.000
36.32999 625.000
36.34994 645.000
36.36988 641.000
36.38983 625.000
36.40978 662.000
36.42972 671.000
36.44967 643.000
36.46962 667.000
36.48957 688.000
36.50951 677.000
36.52946 718.000
36.54941 707.000
36.56935 746.000
36.58930 763.000
36.60925 858.000
36.62919 899.000
36.64914 855.000
36.66909 981.000
36.68903 1072.000
36.70898 1072.000
36.72893 1111.000
36.74888 1169.000
36.76882 1173.000
36.78877 1161.000
36.80872 1080.000
36.82866 1082.000
36.84861 1018.000
36.86856 960.000
36.88850 944.000
36.90845 845.000
36.92840 806.000
36.94835 747.000
36.96829 768.000
36.98824 764.000
37.00819 715.000
37.02813 711.000
37.04808 743.000
37.06803 621.000
37.08797 661.000
37.10792 652.000
37.12787 647.000
37.14781 676.000
37.16776 617.000
37.18771 698.000
37.20766 656.000
37.22760 712.000
37.24755 648.000
37.26750 664.000
37.28744 667.000
37.30739 684.000
37.32734 645.000
37.34728 641.000
37.36723 688.000
37.38718 693.000
37.40713 720.000
37.42707 702.000
37.44702 635.000
37.46697 684.000
37.48691 714.000
37.50686 727.000
37.52681 700.000
37.54675 702.000
37.56670 726.000
37.58665 769.000
37.60660 659.000
37.62654 714.000
37.64649 783.000
37.66644 770.000
37.68638 749.000
37.70633 750.000
37.72628 832.000
37.74622 825.000
37.76617 810.000
37.78612 842.000
37.80606 866.000
37.82601 867.000
37.84596 935.000
37.86591 906.000
37.88585 981.000
37.90580 1063.000
37.92575 1043.000
37.94569 1073.000
37.96564 1150.000
37.98559 1177.000
38.00553 1251.000
38.02548 1448.000
38.04543 1504.000
38.06538 1742.000
38.08532 1975.000
38.10527 2198.000
38.12522 2567.000
38.14516 2719.000
38.16511 2889.000
38.18506 3024.000
38.20500 3171.000
38.22495 3134.000
38.24490 3173.000
38.26484 3127.000
38.28479 2966.000
38.30474 2724.000
38.32469 2518.000
38.34463 2181.000
38.36458 2022.000
38.38453 1874.000
38.40447 1614.000
38.42442 1460.000
38.44437 1445.000
38.46431 1338.000
38.48426 1245.000
38.50421 1299.000
38.52416 1291.000
38.54410 1295.000
38.56405 1265.000
38.58400 1306.000
38.60394 1343.000
38.62389 1331.000
38.64384 1229.000
38.66378 1245.000
38.68373 1245.000
38.70368 1207.000
38.72362 1141.000
38.74357 1116.000
38.76352 997.000
38.78347 971.000
38.80341 889.000
38.82336 834.000
38.84331 779.000
38.86325 737.000
38.88320 825.000
38.90315 757.000
38.92309 723.000
38.94304 703.000
38.96299 671.000
38.98294 689.000
39.00288 710.000
39.02283 669.000
39.04278 654.000
39.06272 675.000
39.08267 677.000
39.10262 688.000
39.12256 626.000
39.14251 633.000
39.16246 633.000
39.18241 603.000
39.20235 579.000
39.22230 618.000
39.24225 666.000
39.26219 609.000
39.28214 621.000
39.30209 601.000
39.32203 612.000
39.34198 613.000
39.36193 643.000
39.38187 637.000
39.40182 644.000
39.42177 622.000
39.44172 634.000
39.46166 581.000
39.48161 644.000
39.50156 635.000
39.52150 648.000
39.54145 609.000
39.56140 596.000
39.58134 583.000
39.60129 609.000
39.62124 610.000
39.64119 610.000
39.66113 609.000
39.68108 579.000
39.70103 546.000
39.72097 611.000
39.74092 603.000
39.76087 590.000
39.78081 620.000
39.80076 565.000
39.82071 607.000
39.84065 549.000
39.86060 605.000
39.88055 614.000
39.90050 638.000
39.92044 659.000
39.94039 595.000
39.96034 586.000
39.98028 635.000
40.00023 561.000
40.02018 601.000
40.04012 580.000
40.06007 638.000
40.08002 594.000
40.09997 562.000
40.11991 605.000
40.13986 610.000
40.15981 586.000
40.17975 612.000
40.19970 556.000
40.21965 598.000
40.23959 627.000
40.25954 591.000
40.27949 595.000
40.29943 628.000
40.31938 650.000
40.33933 592.000
40.35928 573.000
40.37922 547.000
40.39917 577.000
40.41912 601.000
40.43906 626.000
40.45901 566.000
40.47896 628.000
40.49890 608.000
40.51885 575.000
40.53880 601.000
40.55875 583.000
40.57869 616.000
40.59864 552.000
40.61859 588.000
40.63853 635.000
40.65848 602.000
40.67843 577.000
40.69837 611.000
40.71832 597.000
40.73827 609.000
40.75822 577.000
40.77816 568.000
40.79811 619.000
40.81806 616.000
40.83800 643.000
40.85795 582.000
40.87790 632.000
40.89784 572.000
40.91779 613.000
40.93774 608.000
40.95768 592.000
40.97763 607.000
40.99758 571.000
41.01753 565.000
41.03747 589.000
41.05742 595.000
41.07737 554.000
41.09731 574.000
41.11726 598.000
41.13721 588.000
41.15715 638.000
41.17710 584.000
41.19705 529.000
41.21700 598.000
41.23694 565.000
41.25689 596.000
41.27684 566.000
41.29678 568.000
41.31673 592.000
41.33668 557.000
41.35662 578.000
41.37657 582.000
41.39652 579.000
41.41646 589.000
41.43641 580.000
41.45636 604.000
41.47631 627.000
41.49625 614.000
41.51620 597.000
41.53615 570.000
41.55609 543.000
41.57604 588.000
41.59599 547.000
41.61593 618.000
41.63588 618.000
41.65583 583.000
41.67578 603.000
41.69572 604.000
41.71567 608.000
41.73562 590.000
41.75556 549.000
41.77551 565.000
41.79546 600.000
41.81540 584.000
41.83535 584.000
41.85530 538.000
41.87524 577.000
41.89519 616.000
41.91514 609.000
41.93509 580.000
41.95503 583.000
41.97498 592.000
41.99493 624.000
42.01487 600.000
42.03482 624.000
42.05477 599.000
42.07471 578.000
42.09466 577.000
42.11461 597.000
42.13456 613.000
42.15450 616.000
42.17445 575.000
42.19440 581.000
42.21434 536.000
42.23429 622.000
42.25424 590.000
42.27418 585.000
42.29413 602.000
42.31408 577.000
42.33403 603.000
42.35397 607.000
42.37392 624.000
42.39387 657.000
42.41381 626.000
42.43376 695.000
42.45371 633.000
42.47365 698.000
42.49360 670.000
42.51355 696.000
42.53349 722.000
42.55344 716.000
42.57339 710.000
42.59334 769.000
42.61328 848.000
42.63323 856.000
42.65318 941.000
42.67312 980.000
42.69307 1059.000
42.71302 1108.000
42.73296 1216.000
42.75291 1205.000
42.77286 1243.000
42.79281 1251.000
42.81275 1278.000
42.83270 1351.000
42.85265 1248.000
42.87259 1280.000
42.89254 1274.000
42.91249 1140.000
42.93243 1147.000
42.95238 1078.000
42.97233 1062.000
42.99227 1013.000
43.01222 853.000
43.03217 871.000
43.05212 800.000
43.07206 790.000
43.09201 734.000
43.11196 736.000
43.13190 642.000
43.15185 606.000
43.17180 656.000
43.19174 657.000
43.21169 625.000
43.23164 607.000
43.25159 571.000
43.27153 587.000
43.29148 558.000
43.31143 584.000
43.33137 573.000
43.35132 575.000
43.37127 552.000
43.39121 620.000
43.41116 579.000
43.43111 572.000
43.45105 595.000
43.47100 600.000
43.49095 557.000
43.51090 588.000
43.53084 562.000
43.55079 618.000
43.57074 629.000
43.59068 577.000
43.61063 606.000
43.63058 543.000
43.65052 582.000
43.67047 551.000
43.69042 581.000
43.71037 587.000
43.73031 551.000
43.75026 553.000
43.77021 534.000
43.79015 588.000
43.81010 562.000
43.83005 606.000
43.84999 635.000
43.86994 583.000
43.88989 567.000
43.90984 580.000
43.92978 578.000
43.94973 582.000
43.96968 560.000
43.98962 590.000
44.00957 600.000
44.02952 561.000
44.04946 555.000
44.06941 587.000
44.08936 526.000
44.10930 562.000
44.12925 573.000
44.14920 537.000
44.16915 565.000
44.18909 604.000
44.20904 582.000
44.22899 559.000
44.24893 582.000
44.26888 587.000
44.28883 594.000
44.30877 562.000
44.32872 575.000
44.34867 529.000
44.36862 596.000
44.38856 516.000
44.40851 554.000
44.42846 515.000
44.44840 576.000
44.46835 590.000
44.48830 572.000
44.50824 566.000
44.52819 535.000
44.54814 558.000
44.56808 587.000
44.58803 568.000
44.60798 553.000
44.62793 576.000
44.64787 581.000
44.66782 559.000
44.68777 552.000
44.70771 540.000
44.72766 566.000
44.74761 546.000
44.76755 578.000
44.78750 556.000
44.80745 543.000
44.82740 559.000
44.84734 568.000
44.86729 528.000
44.88724 558.000
44.90718 550.000
44.92713 561.000
44.94708 587.000
44.96702 554.000
44.98697 535.000
45.00692 591.000
45.02686 500.000
45.04681 537.000
45.06676 538.000
45.08671 549.000
45.10665 567.000
45.12660 539.000
45.14655 541.000
45.16649 526.000
45.18644 577.000
45.20639 498.000
45.22633 554.000
45.24628 576.000
45.26623 518.000
45.28618 571.000
45.30612 543.000
45.32607 550.000
45.34602 569.000
45.36596 569.000
45.38591 575.000
45.40586 511.000
45.42580 563.000
45.44575 557.000
45.46570 525.000
45.48565 621.000
45.50559 485.000
45.52554 550.000
45.54549 588.000
45.56543 529.000
45.58538 538.000
45.60533 533.000
45.62527 556.000
45.64522 590.000
45.66517 601.000
45.68511 544.000
45.70506 506.000
45.72501 535.000
45.74496 633.000
45.76490 600.000
45.78485 576.000
45.80480 617.000
45.82474 593.000
45.84469 620.000
45.86464 627.000
45.88458 632.000
45.90453 568.000
45.92448 572.000
45.94443 586.000
45.96437 593.000
45.98432 571.000
46.00427 563.000
46.02421 614.000
46.04416 536.000
46.06411 576.000
46.08405 542.000
46.10400 509.000
46.12395 530.000
46.14389 556.000
46.16384 519.000
46.18379 518.000
46.20374 490.000
46.22368 544.000
46.24363 517.000
46.26358 523.000
46.28352 536.000
46.30347 490.000
46.32342 556.000
46.34336 523.000
46.36331 535.000
46.38326 572.000
46.40321 516.000
46.42315 527.000
46.44310 528.000
46.46305 537.000
46.48299 513.000
46.50294 545.000
46.52289 539.000
46.54283 532.000
46.56278 560.000
46.58273 551.000
46.60267 559.000
46.62262 529.000
46.64257 511.000
46.66252 557.000
46.68246 549.000
46.70241 500.000
46.72236 558.000
46.74230 530.000
46.76225 543.000
46.78220 569.000
46.80214 548.000
46.82209 543.000
46.84204 522.000
46.86199 532.000
46.88193 552.000
46.90188 509.000
46.92183 534.000
46.94177 556.000
46.96172 499.000
46.98167 583.000
47.00161 530.000
47.02156 491.000
47.04151 563.000
47.06146 581.000
47.08140 507.000
47.10135 530.000
47.12130 542.000
47.14124 545.000
47.16119 534.000
47.18114 598.000
47.20108 522.000
47.22103 555.000
47.24098 556.000
47.26092 563.000
47.28087 545.000
47.30082 594.000
47.32077 523.000
47.34071 566.000
47.36066 552.000
47.38061 552.000
47.40055 526.000
47.42050 502.000
47.44045 511.000
47.46039 534.000
47.48034 555.000
47.50029 562.000
47.52024 517.000
47.54018 596.000
47.56013 558.000
47.58008 552.000
47.60002 570.000
47.61997 533.000
47.63992 548.000
47.65986 525.000
47.67981 615.000
47.69976 556.000
47.71970 550.000
47.73965 571.000
47.75960 548.000
47.77955 534.000
47.79949 543.000
47.81944 498.000
47.83939 559.000
47.85933 518.000
47.87928 562.000
47.89923 560.000
47.91917 512.000
47.93912 555.000
47.95907 551.000
47.97902 570.000
47.99896 587.000
48.01891 569.000
48.03886 529.000
48.05880 562.000
48.07875 557.000
48.09870 580.000
48.11864 600.000
48.13859 580.000
48.15854 592.000
48.17848 566.000
48.19843 678.000
48.21838 641.000
48.23833 607.000
48.25827 644.000
48.27822 671.000
48.29817 689.000
48.31811 693.000
48.33806 718.000
48.35801 800.000
48.37795 879.000
48.39790 874.000
48.41785 997.000
48.43780 1058.000
48.45774 1111.000
48.47769 1128.000
48.49764 1237.000
48.51758 1243.000
48.53753 1287.000
48.55748 1275.000
48.57742 1304.000
48.59737 1271.000
48.61732 1212.000
48.63726 1157.000
48.65721 1109.000
48.67716 993.000
48.69711 962.000
48.71705 904.000
48.73700 857.000
48.75695 860.000
48.77689 826.000
48.79684 739.000
48.81679 698.000
48.83673 651.000
48.85668 663.000
48.87663 591.000
48.89658 627.000
48.91652 644.000
48.93647 620.000
48.95642 594.000
48.97636 585.000
48.99631 593.000
49.01626 601.000
49.03620 595.000
49.05615 582.000
49.07610 532.000
49.09605 580.000
49.11599 585.000
49.13594 548.000
49.15589 561.000
49.17583 542.000
49.19578 539.000
49.21573 574.000
49.23567 616.000
49.25562 558.000
49.27557 571.000
49.29551 545.000
49.31546 554.000
49.33541 555.000
49.35536 523.000
49.37530 564.000
49.39525 556.000
49.41520 514.000
49.43514 515.000
49.45509 538.000
49.47504 513.000
49.49498 579.000
49.51493 536.000
49.53488 517.000
49.55483 524.000
49.57477 571.000
49.59472 550.000
49.61467 541.000
49.63461 519.000
49.65456 541.000
49.67451 548.000
49.69445 564.000
49.71440 524.000
49.73435 512.000
49.75429 490.000
49.77424 520.000
49.79419 545.000
49.81414 564.000
49.83408 536.000
49.85403 556.000
49.87398 527.000
49.89392 536.000
49.91387 519.000
49.93382 560.000
49.95376 532.000
49.97371 547.000
49.99366 550.000
50.01361 529.000
50.03355 530.000
50.05350 576.000
50.07345 570.000
50.09339 540.000
50.11334 543.000
50.13329 508.000
50.15323 559.000
50.17318 497.000
50.19313 538.000
50.21307 553.000
50.23302 533.000
50.25297 544.000
50.27292 512.000
50.29286 565.000
50.31281 560.000
50.33276 484.000
50.35270 541.000
50.37265 552.000
50.39260 545.000
50.41254 501.000
50.43249 536.000
50.45244 534.000
50.47239 508.000
50.49233 532.000
50.51228 492.000
50.53223 520.000
50.55217 486.000
50.57212 569.000
50.59207 522.000
50.61201 528.000
50.63196 547.000
50.65191 503.000
50.67186 515.000
50.69180 532.000
50.71175 521.000
50.73170 520.000
50.75164 565.000
50.77159 571.000
50.79154 564.000
50.81148 575.000
50.83143 554.000
50.85138 517.000
50.87132 577.000
50.89127 534.000
50.91122 582.000
50.93117 556.000
50.95111 537.000
50.97106 583.000
50.99101 531.000
51.01095 551.000
51.03090 518.000
51.05085 562.000
51.07079 516.000
51.09074 531.000
51.11069 523.000
51.13064 510.000
51.15058 524.000
51.17053 537.000
51.19048 533.000
51.21042 482.000
51.23037 529.000
51.25032 532.000
51.27026 534.000
51.29021 483.000
51.31016 483.000
51.33010 495.000
51.35005 557.000
51.37000 510.000
51.38995 524.000
51.40989 504.000
51.42984 519.000
51.44979 528.000
51.46973 520.000
51.48968 518.000
51.50963 530.000
51.52957 527.000
51.54952 548.000
51.56947 524.000
51.58942 543.000
51.60936 553.000
51.62931 544.000
51.64926 517.000
51.66920 479.000
51.68915 522.000
51.70910 555.000
51.72904 534.000
51.74899 509.000
51.76894 521.000
51.78888 571.000
51.80883 508.000
51.82878 474.000
51.84873 553.000
51.86867 542.000
51.88862 541.000
51.90857 508.000
51.92851 521.000
51.94846 575.000
51.96841 547.000
51.98835 493.000
52.00830 545.000
52.02825 561.000
52.04820 585.000
52.06814 492.000
52.08809 503.000
52.10804 544.000
52.12798 553.000
52.14793 506.000
52.16788 510.000
52.18782 545.000
52.20777 543.000
52.22772 534.000
52.24767 509.000
52.26761 557.000
52.28756 551.000
52.30751 531.000
52.32745 543.000
52.34740 523.000
52.36735 551.000
52.38729 570.000
52.40724 559.000
52.42719 532.000
52.44713 532.000
52.46708 568.000
52.48703 534.000
52.50698 574.000
52.52692 569.000
52.54687 579.000
52.56682 582.000
52.58676 596.000
52.60671 595.000
52.62666 581.000
52.64660 623.000
52.66655 567.000
52.68650 586.000
52.70645 645.000
52.72639 660.000
52.74634 672.000
52.76629 652.000
52.78623 657.000
52.80618 712.000
52.82613 730.000
52.84607 692.000
52.86602 703.000
52.88597 712.000
52.90591 714.000
52.92586 706.000
52.94581 731.000
52.96576 674.000
52.98570 667.000
53.00565 679.000
53.02560 644.000
53.04554 662.000
53.06549 683.000
53.08544 665.000
53.10538 621.000
53.12533 592.000
53.14528 595.000
53.16523 572.000
53.18517 606.000
53.20512 656.000
53.22507 570.000
53.24501 587.000
53.26496 579.000
53.28491 570.000
53.30485 609.000
53.32480 633.000
53.34475 574.000
53.36469 627.000
53.38464 637.000
53.40459 608.000
53.42454 653.000
53.44448 643.000
53.46443 641.000
53.48438 595.000
53.50432 633.000
53.52427 557.000
53.54422 576.000
53.56416 610.000
53.58411 583.000
53.60406 546.000
53.62401 616.000
53.64395 538.000
53.66390 502.000
53.68385 547.000
53.70379 544.000
53.72374 510.000
53.74369 524.000
53.76363 534.000
53.78358 491.000
53.80353 532.000
53.82348 467.000
53.84342 543.000
53.86337 507.000
53.88332 503.000
53.90326 507.000
53.92321 505.000
53.94316 492.000
53.96310 522.000
53.98305 515.000
54.00300 550.000
54.02294 518.000
54.04289 523.000
54.06284 511.000
54.08279 505.000
54.10273 534.000
54.12268 510.000
54.14263 480.000
54.16257 537.000
54.18252 506.000
54.20247 533.000
54.22241 528.000
54.24236 511.000
54.26231 558.000
54.28226 525.000
54.30220 523.000
54.32215 493.000
54.34210 506.000
54.36204 511.000
54.38199 555.000
54.40194 555.000
54.42188 508.000
54.44183 522.000
54.46178 565.000
54.48172 533.000
54.50167 540.000
54.52162 502.000
54.54157 542.000
54.56151 515.000
54.58146 494.000
54.60141 535.000
54.62135 522.000
54.64130 517.000
54.66125 515.000
54.68119 506.000
54.70114 522.000
54.72109 551.000
54.74104 513.000
54.76098 485.000
54.78093 514.000
54.80088 501.000
54.82082 522.000
54.84077 481.000
54.86072 495.000
54.88066 508.000
54.90061 497.000
54.92056 521.000
54.94050 504.000
54.96045 516.000
54.98040 503.000
55.00035 487.000
55.02029 510.000
55.04024 503.000
55.06019 549.000
55.08013 461.000
55.10008 526.000
55.12003 553.000
55.13997 486.000
55.15992 520.000
55.17987 562.000
55.19982 512.000
55.21976 511.000
55.23971 518.000
55.25966 487.000
55.27960 497.000
55.29955 537.000
55.31950 480.000
55.33944 510.000
55.35939 557.000
55.37934 549.000
55.39929 511.000
55.41923 557.000
55.43918 498.000
55.45913 480.000
55.47907 478.000
55.49902 485.000
55.51897 512.000
55.53891 533.000
55.55886 499.000
55.57881 552.000
55.59875 509.000
55.61870 522.000
55.63865 516.000
55.65860 536.000
55.67854 495.000
55.69849 546.000
55.71844 524.000
55.73838 526.000
55.75833 525.000
55.77828 494.000
55.79822 515.000
55.81817 532.000
55.83812 524.000
55.85807 531.000
55.87801 505.000
55.89796 511.000
55.91791 511.000
55.93785 529.000
55.95780 538.000
55.97775 562.000
55.99769 538.000
56.01764 521.000
56.03759 531.000
56.05753 520.000
56.07748 513.000
56.09743 553.000
56.11738 569.000
56.13732 552.000
56.15727 545.000
56.17722 563.000
56.19716 555.000
56.21711 523.000
56.23706 533.000
56.25700 512.000
56.27695 539.000
56.29690 490.000
56.31685 565.000
56.33679 491.000
56.35674 533.000
56.37669 534.000
56.39663 500.000
56.41658 527.000
56.43653 547.000
56.45647 505.000
56.47642 499.000
56.49637 576.000
56.51631 499.000
56.53626 543.000
56.55621 533.000
56.57616 457.000
56.59610 536.000
56.61605 557.000
56.63600 499.000
56.65594 514.000
56.67589 568.000
56.69584 566.000
56.71578 554.000
56.73573 529.000
56.75568 520.000
56.77563 597.000
56.79557 583.000
56.81552 578.000
56.83547 625.000
56.85541 654.000
56.87536 735.000
56.89531 732.000
56.91525 728.000
56.93520 781.000
56.95515 853.000
56.97510 837.000
56.99504 832.000
57.01499 774.000
57.03494 778.000
57.05488 714.000
57.07483 728.000
57.09478 742.000
57.11472 706.000
57.13467 668.000
57.15462 685.000
57.17456 641.000
57.19451 592.000
57.21446 605.000
57.23441 549.000
57.25435 627.000
57.27430 557.000
57.29425 552.000
57.31419 574.000
57.33414 583.000
57.35409 536.000
57.37403 531.000
57.39398 614.000
57.41393 548.000
57.43388 553.000
57.45382 522.000
57.47377 564.000
57.49372 560.000
57.51366 593.000
57.53361 573.000
57.55356 606.000
57.57350 549.000
57.59345 592.000
57.61340 579.000
57.63334 622.000
57.65329 649.000
57.67324 643.000
57.69319 677.000
57.71313 714.000
57.73308 757.000
57.75303 821.000
57.77297 833.000
57.79292 871.000
57.81287 896.000
57.83281 856.000
57.85276 889.000
57.87271 850.000
57.89266 857.000
57.91260 810.000
57.93255 779.000
57.95250 808.000
57.97244 740.000
57.99239 756.000
58.01234 724.000
58.03228 717.000
58.05223 650.000
58.07218 683.000
58.09212 608.000
58.11207 566.000
58.13202 594.000
58.15197 565.000
58.17191 583.000
58.19186 562.000
58.21181 595.000
58.23175 506.000
58.25170 554.000
58.27165 547.000
58.29159 547.000
58.31154 573.000
58.33149 545.000
58.35144 553.000
58.37138 534.000
58.39133 512.000
58.41128 515.000
58.43122 559.000
58.45117 514.000
58.47112 546.000
58.49106 515.000
58.51101 511.000
58.53096 533.000
58.55090 501.000
58.57085 512.000
58.59080 541.000
58.61075 582.000
58.63069 541.000
58.65064 486.000
58.67059 564.000
58.69053 552.000
58.71048 515.000
58.73043 493.000
58.75037 504.000
58.77032 557.000
58.79027 525.000
58.81022 491.000
58.83016 537.000
58.85011 523.000
58.87006 505.000
58.89000 550.000
58.90995 521.000
58.92990 550.000
58.94984 530.000
58.96979 466.000
58.98974 524.000
59.00969 568.000
59.02963 535.000
59.04958 507.000
59.06953 537.000
59.08947 482.000
59.10942 530.000
59.12937 503.000
59.14931 506.000
59.16926 500.000
59.18921 519.000
59.20915 533.000
59.22910 501.000
59.24905 512.000
59.26900 479.000
59.28894 500.000
59.30889 483.000
59.32884 527.000
59.34878 484.000
59.36873 504.000
59.38868 483.000
59.40862 467.000
59.42857 490.000
59.44852 511.000
59.46847 528.000
59.48841 512.000
59.50836 537.000
59.52831 509.000
59.54825 508.000
59.56820 414.000
59.58815 568.000
59.60809 493.000
59.62804 555.000
59.64799 510.000
59.66793 553.000
59.68788 487.000
59.70783 502.000
59.72778 516.000
59.74772 474.000
59.76767 486.000
59.78762 473.000
59.80756 503.000
59.82751 551.000
59.84746 509.000
59.86740 453.000
59.88735 499.000
59.90730 493.000
59.92725 511.000
59.94719 502.000
59.96714 539.000
59.98709 570.000
60.00703 496.000
60.02698 524.000
60.04693 503.000
60.06687 529.000
60.08682 507.000
60.10677 536.000
60.12671 520.000
60.14666 527.000
60.16661 545.000
60.18656 527.000
60.20650 514.000
60.22645 536.000
60.24640 530.000
60.26634 559.000
60.28629 515.000
60.30624 523.000
60.32618 496.000
60.34613 509.000
60.36608 514.000
60.38603 534.000
60.40597 533.000
60.42592 533.000
60.44587 541.000
60.46581 521.000
60.48576 550.000
60.50571 538.000
60.52565 513.000
60.54560 522.000
60.56555 515.000
60.58550 527.000
60.60544 524.000
60.62539 512.000
60.64534 547.000
60.66528 550.000
60.68523 552.000
60.70518 538.000
60.72512 596.000
60.74507 539.000
60.76502 556.000
60.78496 558.000
60.80491 547.000
60.82486 597.000
60.84481 596.000
60.86475 593.000
60.88470 574.000
60.90465 625.000
60.92459 568.000
60.94454 603.000
60.96449 614.000
60.98443 699.000
61.00438 681.000
61.02433 729.000
61.04428 710.000
61.06422 734.000
61.08417 858.000
61.10412 856.000
61.12406 946.000
61.14401 967.000
61.16396 1058.000
61.18390 1066.000
61.20385 1048.000
61.22380 1030.000
61.24374 1046.000
61.26369 1005.000
61.28364 934.000
61.30359 877.000
61.32353 892.000
61.34348 900.000
61.36343 826.000
61.38337 782.000
61.40332 805.000
61.42327 730.000
61.44321 694.000
61.46316 654.000
61.48311 689.000
61.50306 608.000
61.52300 604.000
61.54295 566.000
61.56290 586.000
61.58284 633.000
61.60279 579.000
61.62274 572.000
61.64268 553.000
61.66263 569.000
61.68258 567.000
61.70252 562.000
61.72247 579.000
61.74242 529.000
61.76237 534.000
61.78231 550.000
61.80226 588.000
61.82221 551.000
61.84215 587.000
61.86210 577.000
61.88205 548.000
61.90199 642.000
61.92194 561.000
61.94189 571.000
61.96184 564.000
61.98178 576.000
62.00173 592.000
62.02168 590.000
62.04162 595.000
62.06157 622.000
62.08152 620.000
62.10146 610.000
62.12141 611.000
62.14136 655.000
62.16131 632.000
62.18125 654.000
62.20120 663.000
62.22115 723.000
62.24109 778.000
62.26104 802.000
62.28099 837.000
62.30093 824.000
62.32088 833.000
62.34083 895.000
62.36077 893.000
62.38072 965.000
62.40067 922.000
62.42062 852.000
62.44056 864.000
62.46051 838.000
62.48046 879.000
62.50040 961.000
62.52035 936.000
62.54030 997.000
62.56024 994.000
62.58019 1076.000
62.60014 1030.000
62.62009 1098.000
62.64003 1052.000
62.65998 957.000
62.67993 894.000
62.69987 847.000
62.71982 841.000
62.73977 786.000
62.75971 795.000
62.77966 761.000
62.79961 780.000
62.81955 712.000
62.83950 721.000
62.85945 630.000
62.87940 610.000
62.89934 616.000
62.91929 554.000
62.93924 598.000
62.95918 551.000
62.97913 510.000
62.99908 537.000
63.01902 549.000
63.03897 530.000
63.05892 505.000
63.07887 537.000
63.09881 557.000
63.11876 555.000
63.13871 490.000
63.15865 543.000
63.17860 535.000
63.19855 511.000
63.21849 502.000
63.23844 531.000
63.25839 540.000
63.27833 516.000
63.29828 521.000
63.31823 506.000
63.33818 525.000
63.35812 496.000
63.37807 520.000
63.39802 508.000
63.41796 500.000
63.43791 524.000
63.45786 498.000
63.47780 557.000
63.49775 539.000
63.51770 522.000
63.53765 510.000
63.55759 533.000
63.57754 517.000
63.59749 505.000
63.61743 513.000
63.63738 484.000
63.65733 512.000
63.67727 511.000
63.69722 497.000
63.71717 538.000
63.73712 526.000
63.75706 516.000
63.77701 525.000
63.79696 577.000
63.81690 538.000
63.83685 514.000
63.85680 548.000
63.87674 515.000
63.89669 481.000
63.91664 492.000
63.93658 517.000
63.95653 508.000
63.97648 561.000
63.99643 531.000
64.01637 498.000
64.03632 484.000
64.05627 543.000
64.07621 519.000
64.09616 491.000
64.11611 509.000
64.13605 483.000
64.15600 479.000
64.17595 514.000
64.19590 502.000
64.21584 558.000
64.23579 504.000
64.25574 537.000
64.27568 535.000
64.29563 532.000
64.31558 513.000
64.33552 479.000
64.35547 488.000
64.37542 511.000
64.39536 553.000
64.41531 513.000
64.43526 527.000
64.45521 512.000
64.47515 539.000
64.49510 515.000
64.51505 511.000
64.53499 592.000
64.55494 561.000
64.57489 530.000
64.59483 530.000
64.61478 512.000
64.63473 538.000
64.65468 545.000
64.67462 533.000
64.69457 563.000
64.71452 561.000
64.73446 525.000
64.75441 553.000
64.77436 539.000
64.79430 516.000
64.81425 559.000
64.83420 569.000
64.85414 552.000
64.87409 579.000
64.89404 568.000
64.91399 585.000
64.93393 613.000
64.95388 567.000
64.97383 578.000
64.99377 600.000
65.01372 611.000
65.03367 679.000
65.05361 658.000
65.07356 623.000
65.09351 684.000
65.11346 766.000
65.13340 719.000
65.15335 761.000
65.17330 716.000
65.19324 814.000
65.21319 819.000
65.23314 756.000
65.25308 765.000
65.27303 810.000
65.29298 773.000
65.31293 807.000
65.33287 806.000
65.35282 782.000
65.37277 757.000
65.39271 769.000
65.41266 737.000
65.43261 726.000
65.45255 661.000
65.47250 687.000
65.49245 659.000
65.51239 654.000
65.53234 625.000
65.55229 653.000
65.57224 618.000
65.59218 578.000
65.61213 663.000
65.63208 628.000
65.65202 617.000
65.67197 609.000
65.69192 599.000
65.71186 624.000
65.73181 574.000
65.75176 619.000
65.77171 650.000
65.79165 625.000
65.81160 589.000
65.83155 658.000
65.85149 676.000
65.87144 633.000
65.89139 664.000
65.91133 696.000
65.93128 688.000
65.95123 785.000
65.97117 865.000
65.99112 853.000
66.01107 838.000
66.03102 895.000
66.05096 918.000
66.07091 934.000
66.09086 880.000
66.11080 861.000
66.13075 870.000
66.15070 810.000
66.17064 788.000
66.19059 857.000
66.21054 819.000
66.23049 783.000
66.25043 737.000
66.27038 762.000
66.29033 730.000
66.31027 675.000
66.33022 692.000
66.35017 643.000
66.37011 668.000
66.39006 627.000
66.41001 595.000
66.42995 549.000
66.44990 607.000
66.46985 557.000
66.48980 644.000
66.50974 538.000
66.52969 599.000
66.54964 586.000
66.56958 548.000
66.58953 580.000
66.60948 578.000
66.62942 620.000
66.64937 558.000
66.66932 561.000
66.68927 544.000
66.70921 532.000
66.72916 562.000
66.74911 564.000
66.76905 535.000
66.78900 510.000
66.80895 552.000
66.82889 521.000
66.84884 540.000
66.86879 524.000
66.88874 572.000
66.90868 541.000
66.92863 544.000
66.94858 558.000
66.96852 555.000
66.98847 587.000
67.00842 579.000
67.02836 551.000
67.04831 578.000
67.06826 590.000
67.08820 596.000
67.10815 594.000
67.12810 590.000
67.14805 599.000
67.16799 610.000
67.18794 583.000
67.20789 661.000
67.22783 653.000
67.24778 659.000
67.26773 654.000
67.28767 711.000
67.30762 727.000
67.32757 737.000
67.34752 796.000
67.36746 782.000
67.38741 832.000
67.40736 823.000
67.42730 843.000
67.44725 840.000
67.46720 828.000
67.48714 814.000
67.50709 877.000
67.52704 943.000
67.54698 934.000
67.56693 945.000
67.58688 943.000
67.60683 936.000
67.62677 885.000
67.64672 844.000
67.66667 847.000
67.68661 854.000
67.70656 818.000
67.72651 798.000
67.74645 829.000
67.76640 795.000
67.78635 772.000
67.80630 755.000
67.82624 704.000
67.84619 702.000
67.86614 685.000
67.88608 648.000
67.90603 665.000
67.92598 660.000
67.94592 574.000
67.96587 552.000
67.98582 595.000
68.00576 544.000
68.02571 559.000
68.04566 533.000
68.06561 508.000
68.08555 518.000
68.10550 535.000
68.12545 518.000
68.14539 517.000
68.16534 512.000
68.18529 562.000
68.20523 535.000
68.22518 465.000
68.24513 515.000
68.26508 525.000
68.28502 481.000
68.30497 508.000
68.32492 524.000
68.34486 501.000
68.36481 526.000
68.38476 513.000
68.40470 523.000
68.42465 508.000
68.44460 515.000
68.46455 494.000
68.48449 457.000
68.50444 481.000
68.52439 504.000
68.54433 491.000
68.56428 494.000
68.58423 480.000
68.60417 516.000
68.62412 514.000
68.64407 506.000
68.66401 535.000
68.68396 512.000
68.70391 564.000
68.72386 553.000
68.74380 543.000
68.76375 532.000
68.78370 482.000
68.80364 538.000
68.82359 559.000
68.84354 504.000
68.86348 513.000
68.88343 564.000
68.90338 442.000
68.92333 533.000
68.94327 513.000
68.96322 480.000
68.98317 500.000
69.00311 527.000
69.02306 469.000
69.04301 461.000
69.06295 498.000
69.08290 494.000
69.10285 459.000
69.12279 496.000
69.14274 550.000
69.16269 506.000
69.18264 536.000
69.20258 499.000
69.22253 492.000
69.24248 514.000
69.26242 486.000
69.28237 509.000
69.30232 484.000
69.32226 516.000
69.34221 499.000
69.36216 492.000
69.38211 501.000
69.40205 465.000
69.42200 489.000
69.44195 524.000
69.46189 541.000
69.48184 462.000
69.50179 487.000
69.52173 520.000
69.54168 517.000
69.56163 507.000
69.58157 497.000
69.60152 526.000
69.62147 453.000
69.64142 489.000
69.66136 504.000
69.68131 516.000
69.70126 509.000
69.72120 504.000
69.74115 505.000
69.76110 491.000
69.78104 509.000
69.80099 515.000
69.82094 487.000
69.84089 515.000
69.86083 516.000
69.88078 467.000
69.90073 491.000
69.92067 455.000
69.94062 473.000
69.96057 474.000
69.98051 469.000
70.00046 490.000
70.02041 502.000
70.04035 546.000
70.06030 525.000
70.08025 522.000
70.10020 498.000
70.12014 461.000
70.14009 531.000
70.16004 479.000
70.17998 514.000
70.19993 501.000
70.21988 526.000
70.23982 477.000
70.25977 494.000
70.27972 482.000
70.29967 474.000
70.31961 439.000
70.33956 499.000
70.35951 491.000
70.37945 499.000
70.39940 506.000
70.41935 497.000
70.43929 511.000
70.45924 469.000
70.47919 507.000
70.49914 473.000
70.51908 476.000
70.53903 468.000
70.55898 492.000
70.57892 498.000
70.59887 490.000
70.61882 498.000
70.63876 496.000
70.65871 464.000
70.67866 485.000
70.69860 530.000
70.71855 469.000
70.73850 475.000
70.75845 517.000
70.77839 523.000
70.79834 512.000
70.81829 502.000
70.83823 507.000
70.85818 457.000
70.87813 513.000
70.89807 490.000
70.91802 474.000
70.93797 513.000
70.95792 514.000
70.97786 511.000
70.99781 539.000
71.01776 547.000
71.03770 538.000
71.05765 527.000
71.07760 555.000
71.09754 560.000
71.11749 551.000
71.13744 530.000
71.15738 496.000
71.17733 536.000
71.19728 508.000
71.21723 549.000
71.23717 560.000
71.25712 485.000
71.27707 516.000
71.29701 528.000
71.31696 511.000
71.33691 513.000
71.35685 520.000
71.37680 504.000
71.39675 517.000
71.41670 530.000
71.43664 507.000
71.45659 506.000
71.47654 529.000
71.49648 513.000
71.51643 513.000
71.53638 511.000
71.55632 476.000
71.57627 564.000
71.59622 493.000
71.61616 489.000
71.63611 496.000
71.65606 516.000
71.67601 530.000
71.69595 497.000
71.71590 551.000
71.73585 559.000
71.75579 524.000
71.77574 566.000
71.79569 503.000
71.81563 559.000
71.83558 561.000
71.85553 533.000
71.87548 574.000
71.89542 564.000
71.91537 619.000
71.93532 559.000
71.95526 578.000
71.97521 603.000
71.99516 636.000
72.01510 648.000
72.03505 633.000
72.05500 657.000
72.07495 615.000
72.09489 660.000
72.11484 664.000
72.13479 600.000
72.15473 600.000
72.17468 584.000
72.19463 625.000
72.21457 636.000
72.23452 602.000
72.25447 632.000
72.27441 633.000
72.29436 610.000
72.31431 544.000
72.33426 534.000
72.35420 565.000
72.37415 540.000
72.39410 523.000
72.41404 507.000
72.43399 515.000
72.45394 547.000
72.47388 483.000
72.49383 503.000
72.51378 546.000
72.53373 482.000
72.55367 508.000
72.57362 480.000
72.59357 519.000
72.61351 536.000
72.63346 493.000
72.65341 546.000
72.67335 552.000
72.69330 479.000
72.71325 493.000
72.73319 518.000
72.75314 456.000
72.77309 487.000
72.79304 488.000
72.81298 508.000
72.83293 486.000
72.85288 538.000
72.87282 508.000
72.89277 506.000
72.91272 460.000
72.93266 507.000
72.95261 497.000
72.97256 487.000
72.99251 536.000
73.01245 466.000
73.03240 517.000
73.05235 536.000
73.07229 483.000
73.09224 513.000
73.11219 471.000
73.13213 519.000
73.15208 504.000
73.17203 508.000
73.19197 491.000
73.21192 520.000
73.23187 516.000
73.25182 506.000
73.27176 486.000
73.29171 522.000
73.31166 494.000
73.33160 454.000
73.35155 499.000
73.37150 486.000
73.39144 512.000
73.41139 518.000
73.43134 466.000
73.45129 493.000
73.47123 482.000
73.49118 490.000
73.51113 496.000
73.53107 520.000
73.55102 493.000
73.57097 499.000
73.59091 492.000
73.61086 521.000
73.63081 440.000
73.65076 475.000
73.67070 473.000
73.69065 496.000
73.71060 510.000
73.73054 479.000
73.75049 538.000
73.77044 455.000
73.79038 533.000
73.81033 479.000
73.83028 496.000
73.85022 525.000
73.87017 472.000
73.89012 507.000
73.91007 515.000
73.93001 492.000
73.94996 505.000
73.96991 510.000
73.98985 500.000
74.00980 518.000
74.02975 566.000
74.04969 554.000
74.06964 550.000
74.08959 597.000
74.10954 567.000
74.12948 549.000
74.14943 566.000
74.16938 577.000
74.18932 575.000
74.20927 594.000
74.22922 627.000
74.24916 609.000
74.26911 577.000
74.28906 572.000
74.30900 540.000
74.32895 536.000
74.34890 571.000
74.36885 594.000
74.38879 594.000
74.40874 609.000
74.42869 601.000
74.44863 589.000
74.46858 632.000
74.48853 708.000
74.50847 709.000
74.52842 623.000
74.54837 671.000
74.56832 715.000
74.58826 675.000
74.60821 715.000
74.62816 635.000
74.64810 697.000
74.66805 646.000
74.68800 670.000
74.70794 731.000
74.72789 734.000
74.74784 720.000
74.76778 797.000
74.78773 733.000
74.80768 778.000
74.82763 816.000
74.84757 787.000
74.86752 807.000
74.88747 779.000
74.90741 756.000
74.92736 718.000
74.94731 722.000
74.96725 738.000
74.98720 693.000
75.00715 709.000
75.02710 678.000
75.04704 709.000
75.06699 644.000
75.08694 660.000
75.10688 624.000
75.12683 633.000
75.14678 667.000
75.16672 616.000
75.18667 622.000
75.20662 660.000
75.22657 618.000
75.24651 583.000
75.26646 576.000
75.28641 537.000
75.30635 543.000
75.32630 542.000
75.34625 540.000
75.36619 506.000
75.38614 519.000
75.40609 532.000
75.42603 522.000
75.44598 515.000
75.46593 507.000
75.48588 566.000
75.50582 474.000
75.52577 501.000
75.54572 480.000
75.56566 485.000
75.58561 467.000
75.60556 513.000
75.62550 493.000
75.64545 482.000
75.66540 503.000
75.68535 543.000
75.70529 507.000
75.72524 524.000
75.74519 479.000
75.76513 483.000
75.78508 465.000
75.80503 506.000
75.82497 478.000
75.84492 460.000
75.86487 477.000
75.88481 502.000
75.90476 486.000
75.92471 474.000
75.94466 464.000
75.96460 537.000
75.98455 481.000
76.00450 468.000
76.02444 483.000
76.04439 496.000
76.06434 500.000
76.08428 507.000
76.10423 463.000
76.12418 481.000
76.14413 488.000
76.16407 500.000
76.18402 502.000
76.20397 533.000
76.22391 487.000
76.24386 485.000
76.26381 516.000
76.28375 510.000
76.30370 509.000
76.32365 503.000
76.34359 496.000
76.36354 476.000
76.38349 498.000
76.40344 474.000
76.42338 507.000
76.44333 467.000
76.46328 488.000
76.48322 465.000
76.50317 497.000
76.52312 488.000
76.54306 459.000
76.56301 496.000
76.58296 462.000
76.60291 511.000
76.62285 530.000
76.64280 462.000
76.66275 486.000
76.68269 510.000
76.70264 473.000
76.72259 473.000
76.74253 490.000
76.76248 477.000
76.78243 494.000
76.80238 502.000
76.82232 485.000
76.84227 469.000
76.86222 529.000
76.88216 482.000
76.90211 467.000
76.92206 504.000
76.94200 495.000
76.96195 483.000
76.98190 500.000
77.00184 519.000
77.02179 501.000
77.04174 494.000
77.06169 513.000
77.08163 492.000
77.10158 502.000
77.12153 501.000
77.14147 512.000
77.16142 454.000
77.18137 483.000
77.20131 510.000
77.22126 442.000
77.24121 474.000
77.26116 527.000
77.28110 461.000
77.30105 478.000
77.32100 514.000
77.34094 533.000
77.36089 482.000
77.38084 467.000
77.40078 468.000
77.42073 468.000
77.44068 493.000
77.46062 467.000
77.48057 477.000
77.50052 527.000
77.52047 507.000
77.54041 488.000
77.56036 450.000
77.58031 464.000
77.60025 494.000
77.62020 469.000
77.64015 449.000
77.66009 505.000
77.68004 531.000
77.69999 446.000
77.71994 488.000
77.73988 492.000
77.75983 469.000
77.77978 463.000
77.79972 499.000
77.81967 478.000
77.83962 484.000
77.85956 474.000
77.87951 496.000
77.89946 469.000
77.91940 507.000
77.93935 454.000
77.95930 510.000
77.97925 458.000
77.99919 484.000
78.01914 515.000
78.03909 450.000
78.05903 512.000
78.07898 474.000
78.09893 502.000
78.11887 484.000
78.13882 504.000
78.15877 485.000
78.17872 498.000
78.19866 497.000
78.21861 461.000
78.23856 530.000
78.25850 504.000
78.27845 482.000
78.29840 506.000
78.31834 516.000
78.33829 504.000
78.35824 489.000
78.37819 527.000
78.39813 530.000
78.41808 486.000
78.43803 473.000
78.45797 468.000
78.47792 478.000
78.49787 482.000
78.51781 488.000
78.53776 447.000
78.55771 498.000
78.57765 509.000
78.59760 488.000
78.61755 445.000
78.63750 504.000
78.65744 503.000
78.67739 493.000
78.69734 494.000
78.71728 556.000
78.73723 541.000
78.75718 562.000
78.77712 595.000
78.79707 516.000
78.81702 567.000
78.83697 545.000
78.85691 552.000
78.87686 574.000
78.89681 543.000
78.91675 579.000
78.93670 531.000
78.95665 562.000
78.97659 530.000
78.99654 553.000
79.01649 526.000
79.03643 562.000
79.05638 550.000
79.07633 587.000
79.09628 505.000
79.11622 541.000
79.13617 539.000
79.15612 540.000
79.17606 569.000
79.19601 563.000
79.21596 514.000
79.23590 514.000
79.25585 542.000
79.27580 498.000
79.29575 516.000
79.31569 483.000
79.33564 489.000
79.35559 526.000
79.37553 466.000
79.39548 498.000
79.41543 512.000
79.43537 471.000
79.45532 522.000
79.47527 491.000
79.49521 476.000
79.51516 493.000
79.53511 444.000
79.55506 479.000
79.57500 502.000
79.59495 485.000
79.61490 461.000
79.63484 504.000
79.65479 493.000
79.67474 510.000
79.69468 474.000
79.71463 492.000
79.73458 445.000
79.75453 487.000
79.77447 488.000
79.79442 516.000
79.81437 475.000
79.83431 544.000
79.85426 490.000
79.87421 497.000
79.89415 529.000
79.91410 546.000
79.93405 472.000
79.95399 541.000
79.97394 508.000
79.99389 502.000
80.01384 545.000
80.03378 542.000
80.05373 534.000
80.07368 494.000
80.09362 533.000
80.11357 515.000
80.13352 520.000
80.15346 468.000
80.17341 534.000
80.19336 511.000
80.21331 493.000
80.23325 581.000
80.25320 527.000
80.27315 493.000
80.29309 509.000
80.31304 498.000
80.33299 506.000
80.35293 475.000
80.37288 549.000
80.39283 494.000
80.41278 492.000
80.43272 496.000
80.45267 496.000
80.47262 468.000
80.49256 478.000
80.51251 508.000
80.53246 484.000
80.55240 481.000
80.57235 450.000
80.59230 489.000
80.61224 442.000
80.63219 495.000
80.65214 489.000
80.67209 467.000
80.69203 480.000
80.71198 481.000
80.73193 473.000
80.75187 481.000
80.77182 477.000
80.79177 480.000
80.81171 511.000
80.83166 484.000
80.85161 465.000
80.87156 501.000
80.89150 465.000
80.91145 474.000
80.93140 527.000
80.95134 507.000
80.97129 488.000
80.99124 470.000
81.01118 482.000
81.03113 529.000
81.05108 471.000
81.07102 487.000
81.09097 501.000
81.11092 505.000
81.13087 461.000
81.15081 481.000
81.17076 500.000
81.19071 497.000
81.21065 521.000
81.23060 480.000
81.25055 478.000
81.27049 492.000
81.29044 455.000
81.31039 487.000
81.33034 505.000
81.35028 489.000
81.37023 484.000
81.39018 481.000
81.41012 491.000
81.43007 433.000
81.45002 452.000
81.46996 505.000
81.48991 478.000
81.50986 518.000
81.52980 535.000
81.54975 471.000
81.56970 483.000
81.58965 475.000
81.60959 525.000
81.62954 508.000
81.64949 505.000
81.66943 505.000
81.68938 523.000
81.70933 461.000
81.72927 504.000
81.74922 505.000
81.76917 501.000
81.78912 498.000
81.80906 540.000
81.82901 489.000
81.84896 517.000
81.86890 527.000
81.88885 491.000
81.90880 501.000
81.92874 458.000
81.94869 461.000
81.96864 479.000
81.98859 568.000
82.00853 518.000
82.02848 500.000
82.04843 530.000
82.06837 533.000
82.08832 517.000
82.10827 508.000
82.12821 516.000
82.14816 524.000
82.16811 505.000
82.18805 578.000
82.20800 570.000
82.22795 576.000
82.24790 584.000
82.26784 596.000
82.28779 588.000
82.30774 572.000
82.32768 589.000
82.34763 588.000
82.36758 663.000
82.38752 655.000
82.40747 578.000
82.42742 628.000
82.44737 586.000
82.46731 565.000
82.48726 626.000
82.50721 639.000
82.52715 607.000
82.54710 632.000
82.56705 627.000
82.58699 633.000
82.60694 638.000
82.62689 569.000
82.64683 576.000
82.66678 622.000
82.68673 572.000
82.70668 603.000
82.72662 562.000
82.74657 556.000
82.76652 551.000
82.78646 512.000
82.80641 496.000
82.82636 568.000
82.84630 508.000
82.86625 494.000
82.88620 528.000
82.90615 494.000
82.92609 488.000
82.94604 507.000
82.96599 488.000
82.98593 500.000
83.00588 549.000
83.02583 517.000
83.04577 497.000
83.06572 463.000
83.08567 558.000
83.10561 490.000
83.12556 466.000
83.14551 511.000
83.16546 518.000
83.18540 532.000
83.20535 504.000
83.22530 526.000
83.24524 528.000
83.26519 521.000
83.28514 534.000
83.30508 538.000
83.32503 583.000
83.34498 546.000
83.36493 532.000
83.38487 555.000
83.40482 524.000
83.42477 553.000
83.44471 568.000
83.46466 530.000
83.48461 521.000
83.50455 524.000
83.52450 509.000
83.54445 557.000
83.56440 565.000
83.58434 558.000
83.60429 512.000
83.62424 503.000
83.64418 555.000
83.66413 546.000
83.68408 514.000
83.70402 560.000
83.72397 567.000
83.74392 541.000
83.76386 555.000
83.78381 538.000
83.80376 513.000
83.82371 531.000
83.84365 506.000
83.86360 544.000
83.88355 537.000
83.90349 538.000
83.92344 495.000
83.94339 517.000
83.96333 510.000
83.98328 506.000
84.00323 518.000
84.02318 534.000
84.04312 508.000
84.06307 489.000
84.08302 491.000
84.10296 504.000
84.12291 501.000
84.14286 459.000
84.16280 490.000
84.18275 497.000
84.20270 510.000
84.22264 491.000
84.24259 503.000
84.26254 507.000
84.28249 524.000
84.30243 486.000
84.32238 469.000
84.34233 479.000
84.36227 528.000
84.38222 469.000
84.40217 513.000
84.42211 545.000
84.44206 505.000
84.46201 455.000
84.48196 490.000
84.50190 498.000
84.52185 505.000
84.54180 464.000
84.56174 443.000
84.58169 458.000
84.60164 474.000
84.62158 477.000
84.64153 493.000
84.66148 452.000
84.68142 546.000
84.70137 482.000
84.72132 472.000
84.74127 469.000
84.76121 468.000
84.78116 467.000
84.80111 479.000
84.82105 486.000
84.84100 490.000
84.86095 480.000
84.88089 479.000
84.90084 489.000
84.92079 459.000
84.94074 517.000
84.96068 478.000
84.98063 469.000
85.00058 464.000
85.02052 449.000
85.04047 477.000
85.06042 488.000
85.08036 495.000
85.10031 463.000
85.12026 484.000
85.14021 476.000
85.16015 477.000
85.18010 522.000
85.20005 470.000
85.21999 501.000
85.23994 455.000
85.25989 531.000
85.27983 513.000
85.29978 439.000
85.31973 481.000
85.33967 487.000
85.35962 481.000
85.37957 484.000
85.39952 499.000
85.41946 488.000
85.43941 532.000
85.45936 539.000
85.47930 460.000
85.49925 480.000
85.51920 450.000
85.53914 472.000
85.55909 449.000
85.57904 463.000
85.59899 459.000
85.61893 493.000
85.63888 514.000
85.65883 454.000
85.67877 514.000
85.69872 490.000
85.71867 433.000
85.73861 514.000
85.75856 492.000
85.77851 438.000
85.79845 453.000
85.81840 477.000
85.83835 518.000
85.85830 486.000
85.87824 449.000
85.89819 495.000
85.91814 452.000
85.93808 499.000
85.95803 481.000
85.97798 510.000
85.99792 493.000
86.01787 523.000
86.03782 481.000
86.05777 470.000
86.07771 468.000
86.09766 506.000
86.11761 489.000
86.13755 538.000
86.15750 503.000
86.17745 494.000
86.19739 495.000
86.21734 498.000
86.23729 504.000
86.25723 482.000
86.27718 495.000
86.29713 468.000
86.31708 462.000
86.33702 435.000
86.35697 538.000
86.37692 515.000
86.39686 512.000
86.41681 505.000
86.43676 485.000
86.45670 438.000
86.47665 507.000
86.49660 480.000
86.51655 495.000
86.53649 514.000
86.55644 561.000
86.57639 531.000
86.59633 516.000
86.61628 483.000
86.63623 542.000
86.65617 497.000
86.67612 504.000
86.69607 531.000
86.71602 517.000
86.73596 531.000
86.75591 475.000
86.77586 537.000
86.79580 492.000
86.81575 524.000
86.83570 489.000
86.85564 462.000
86.87559 524.000
86.89554 499.000
86.91548 510.000
86.93543 514.000
86.95538 507.000
86.97533 524.000
86.99527 495.000
87.01522 531.000
87.03517 496.000
87.05511 552.000
87.07506 551.000
87.09501 540.000
87.11495 538.000
87.13490 520.000
87.15485 485.000
87.17480 510.000
87.19474 481.000
87.21469 452.000
87.23464 533.000
87.25458 525.000
87.27453 485.000
87.29448 490.000
87.31442 514.000
87.33437 506.000
87.35432 506.000
87.37426 514.000
87.39421 492.000
87.41416 475.000
87.43411 465.000
87.45405 464.000
87.47400 517.000
87.49395 502.000
87.51389 500.000
87.53384 504.000
87.55379 515.000
87.57373 509.000
87.59368 473.000
87.61363 476.000
87.63358 499.000
87.65352 476.000
87.67347 460.000
87.69342 496.000
87.71336 467.000
87.73331 502.000
87.75326 485.000
87.77320 489.000
87.79315 493.000
87.81310 473.000
87.83304 477.000
87.85299 471.000
87.87294 457.000
87.89289 483.000
87.91283 459.000
87.93278 522.000
87.95273 488.000
87.97267 458.000
87.99262 499.000
88.01257 469.000
88.03251 506.000
88.05246 475.000
88.07241 495.000
88.09236 453.000
88.11230 495.000
88.13225 492.000
88.15220 491.000
88.17214 472.000
88.19209 496.000
88.21204 523.000
88.23198 460.000
88.25193 500.000
88.27188 482.000
88.29183 479.000
88.31177 467.000
88.33172 531.000
88.35167 498.000
88.37161 478.000
88.39156 461.000
88.41151 529.000
88.43145 465.000
88.45140 468.000
88.47135 511.000
88.49129 452.000
88.51124 473.000
88.53119 523.000
88.55114 521.000
88.57108 539.000
88.59103 510.000
88.61098 535.000
88.63092 452.000
88.65087 508.000
88.67082 498.000
88.69076 501.000
88.71071 518.000
88.73066 496.000
88.75061 515.000
88.77055 500.000
88.79050 547.000
88.81045 520.000
88.83039 543.000
88.85034 483.000
88.87029 563.000
88.89023 523.000
88.91018 530.000
88.93013 547.000
88.95007 528.000
88.97002 562.000
88.98997 568.000
89.00992 567.000
89.02986 567.000
89.04981 546.000
89.06976 518.000
89.08970 528.000
89.10965 524.000
89.12960 560.000
89.14954 572.000
89.16949 583.000
89.18944 534.000
89.20939 522.000
89.22933 571.000
89.24928 556.000
89.26923 556.000
89.28917 515.000
89.30912 541.000
89.32907 572.000
89.34901 547.000
89.36896 521.000
89.38891 531.000
89.40885 475.000
89.42880 520.000
89.44875 507.000
89.46870 551.000
89.48864 538.000
89.50859 557.000
89.52854 509.000
89.54848 539.000
89.56843 505.000
89.58838 507.000
89.60832 523.000
89.62827 544.000
89.64822 535.000
89.66817 479.000
89.68811 488.000
89.70806 522.000
89.72801 518.000
89.74795 514.000
89.76790 520.000
89.78785 496.000
89.80779 513.000
89.82774 502.000
89.84769 539.000
89.86764 526.000
89.88758 517.000
89.90753 507.000
89.92748 554.000
89.94742 505.000
89.96737 527.000
89.98732 543.000
90.00726 561.000
