10.00000 65.000
10.01995 62.000
10.03989 57.000
10.05984 61.000
10.07979 58.000
10.09973 54.000
10.11968 59.000
10.13963 54.000
10.15958 88.000
10.17952 77.000
10.19947 78.000
10.21942 73.000
10.23936 67.000
10.25931 64.000
10.27926 69.000
10.29920 54.000
10.31915 65.000
10.33910 70.000
10.35905 67.000
10.37899 65.000
10.39894 63.000
10.41889 63.000
10.43883 63.000
10.45878 66.000
10.47873 52.000
10.49867 61.000
10.51862 74.000
10.53857 52.000
10.55851 58.000
10.57846 51.000
10.59841 54.000
10.61836 58.000
10.63830 65.000
10.65825 61.000
10.67820 55.000
10.69814 70.000
10.71809 67.000
10.73804 62.000
10.75798 67.000
10.77793 60.000
10.79788 53.000
10.81783 44.000
10.83777 77.000
10.85772 73.000
10.87767 62.000
10.89761 83.000
10.91756 48.000
10.93751 47.000
10.95745 68.000
10.97740 56.000
10.99735 61.000
11.01730 61.000
11.03724 72.000
11.05719 63.000
11.07714 66.000
11.09708 57.000
11.11703 56.000
11.13698 63.000
11.15692 74.000
11.17687 65.000
11.19682 73.000
11.21676 75.000
11.23671 50.000
11.25666 52.000
11.27661 45.000
11.29655 68.000
11.31650 53.000
11.33645 63.000
11.35639 68.000
11.37634 56.000
11.39629 65.000
11.41623 63.000
11.43618 56.000
11.45613 72.000
11.47608 63.000
11.49602 65.000
11.51597 50.000
11.53592 53.000
11.55586 59.000
11.57581 59.000
11.59576 46.000
11.61570 56.000
11.63565 77.000
11.65560 65.000
11.67554 69.000
11.69549 59.000
11.71544 74.000
11.73539 56.000
11.75533 68.000
11.77528 58.000
11.79523 69.000
11.81517 62.000
11.83512 39.000
11.85507 55.000
11.87501 64.000
11.89496 63.000
11.91491 68.000
11.93486 65.000
11.95480 76.000
11.97475 57.000
11.99470 55.000
12.01464 62.000
12.03459 62.000
12.05454 65.000
12.07448 60.000
12.09443 66.000
12.11438 51.000
12.13432 64.000
12.15427 65.000
12.17422 67.000
12.19417 63.000
12.21411 61.000
12.23406 73.000
12.25401 66.000
12.27395 65.000
12.29390 52.000
12.31385 58.000
12.33379 57.000
12.35374 65.000
12.37369 66.000
12.39364 77.000
12.41358 68.000
12.43353 56.000
12.45348 60.000
12.47342 66.000
12.49337 75.000
12.51332 66.000
12.53326 64.000
12.55321 61.000
12.57316 45.000
12.59311 56.000
12.61305 71.000
12.63300 53.000
12.65295 64.000
12.67289 59.000
12.69284 77.000
12.71279 53.000
12.73273 60.000
12.75268 50.000
12.77263 54.000
12.79257 57.000
12.81252 66.000
12.83247 59.000
12.85242 53.000
12.87236 52.000
12.89231 48.000
12.91226 59.000
12.93220 59.000
12.95215 53.000
12.97210 52.000
12.99204 54.000
13.01199 72.000
13.03194 70.000
13.05189 55.000
13.07183 62.000
13.09178 68.000
13.11173 71.000
13.13167 49.000
13.15162 67.000
13.17157 61.000
13.19151 63.000
13.21146 75.000
13.23141 63.000
13.25135 59.000
13.27130 55.000
13.29125 80.000
13.31120 62.000
13.33114 62.000
13.35109 55.000
13.37104 61.000
13.39098 58.000
13.41093 65.000
13.43088 64.000
13.45082 58.000
13.47077 67.000
13.49072 67.000
13.51067 52.000
13.53061 55.000
13.55056 56.000
13.57051 67.000
13.59045 60.000
13.61040 53.000
13.63035 55.000
13.65029 55.000
13.67024 79.000
13.69019 69.000
13.71013 75.000
13.73008 67.000
13.75003 87.000
13.76998 64.000
13.78992 72.000
13.80987 77.000
13.82982 62.000
13.84976 69.000
13.86971 60.000
13.88966 81.000
13.90960 67.000
13.92955 70.000
13.94950 83.000
13.96945 72.000
13.98939 69.000
14.00934 77.000
14.02929 72.000
14.04923 56.000
14.06918 85.000
14.08913 80.000
14.10907 92.000
14.12902 78.000
14.14897 79.000
14.16892 71.000
14.18886 89.000
14.20881 66.000
14.22876 68.000
14.24870 91.000
14.26865 71.000
14.28860 68.000
14.30854 70.000
14.32849 76.000
14.34844 63.000
14.36838 77.000
14.38833 90.000
14.40828 91.000
14.42823 89.000
14.44817 79.000
14.46812 69.000
14.48807 92.000
14.50801 71.000
14.52796 85.000
14.54791 77.000
14.56785 87.000
14.58780 94.000
14.60775 82.000
14.62770 104.000
14.64764 119.000
14.66759 85.000
14.68754 83.000
14.70748 110.000
14.72743 92.000
14.74738 99.000
14.76732 110.000
14.78727 91.000
14.80722 118.000
14.82716 130.000
14.84711 95.000
14.86706 110.000
14.88701 130.000
14.90695 131.000
14.92690 124.000
14.94685 146.000
14.96679 153.000
14.98674 151.000
15.00669 164.000
15.02663 154.000
15.04658 145.000
15.06653 147.000
15.08648 153.000
15.10642 134.000
15.12637 158.000
15.14632 164.000
15.16626 213.000
15.18621 186.000
15.20616 202.000
15.22610 227.000
15.24605 265.000
15.26600 241.000
15.28594 281.000
15.30589 318.000
15.32584 327.000
15.34579 398.000
15.36573 472.000
15.38568 551.000
15.40563 764.000
15.42557 955.000
15.44552 1204.000
15.46547 1695.000
15.48541 2238.000
15.50536 3047.000
15.52531 4142.000
15.54526 5270.000
15.56520 6642.000
15.58515 8229.000
15.60510 9350.000
15.62504 9661.000
15.64499 9322.000
15.66494 8128.000
15.68488 6519.000
15.70483 4534.000
15.72478 2869.000
15.74472 1825.000
15.76467 1139.000
15.78462 705.000
15.80457 558.000
15.82451 408.000
15.84446 326.000
15.86441 294.000
15.88435 284.000
15.90430 257.000
15.92425 241.000
15.94419 203.000
15.96414 163.000
15.98409 150.000
16.00404 178.000
16.02398 166.000
16.04393 165.000
16.06388 141.000
16.08382 137.000
16.10377 118.000
16.12372 139.000
16.14366 146.000
16.16361 111.000
16.18356 120.000
16.20351 134.000
16.22345 131.000
16.24340 94.000
16.26335 112.000
16.28329 102.000
16.30324 85.000
16.32319 97.000
16.34313 105.000
16.36308 94.000
16.38303 98.000
16.40297 83.000
16.42292 105.000
16.44287 103.000
16.46282 91.000
16.48276 85.000
16.50271 86.000
16.52266 97.000
16.54260 102.000
16.56255 88.000
16.58250 75.000
16.60244 75.000
16.62239 69.000
16.64234 84.000
16.66229 71.000
16.68223 87.000
16.70218 76.000
16.72213 75.000
16.74207 68.000
16.76202 81.000
16.78197 66.000
16.80191 79.000
16.82186 62.000
16.84181 68.000
16.86175 68.000
16.88170 65.000
16.90165 64.000
16.92160 64.000
16.94154 59.000
16.96149 65.000
16.98144 56.000
17.00138 54.000
17.02133 69.000
17.04128 59.000
17.06122 48.000
17.08117 56.000
17.10112 77.000
17.12107 58.000
17.14101 65.000
17.16096 56.000
17.18091 53.000
17.20085 59.000
17.22080 61.000
17.24075 60.000
17.26069 57.000
17.28064 65.000
17.30059 63.000
17.32053 45.000
17.34048 61.000
17.36043 66.000
17.38038 63.000
17.40032 53.000
17.42027 57.000
17.44022 70.000
17.46016 52.000
17.48011 65.000
17.50006 58.000
17.52000 41.000
17.53995 45.000
17.55990 53.000
17.57985 72.000
17.59979 78.000
17.61974 46.000
17.63969 56.000
17.65963 56.000
17.67958 63.000
17.69953 41.000
17.71947 51.000
17.73942 66.000
17.75937 59.000
17.77932 53.000
17.79926 54.000
17.81921 52.000
17.83916 59.000
17.85910 55.000
17.87905 64.000
17.89900 57.000
17.91894 59.000
17.93889 65.000
17.95884 52.000
17.97878 52.000
17.99873 61.000
18.01868 64.000
18.03863 86.000
18.05857 64.000
18.07852 79.000
18.09847 68.000
18.11841 78.000
18.13836 79.000
18.15831 67.000
18.17825 79.000
18.19820 76.000
18.21815 72.000
18.23810 76.000
18.25804 82.000
18.27799 89.000
18.29794 69.000
18.31788 70.000
18.33783 57.000
18.35778 70.000
18.37772 50.000
18.39767 54.000
18.41762 50.000
18.43756 59.000
18.45751 49.000
18.47746 56.000
18.49741 69.000
18.51735 53.000
18.53730 61.000
18.55725 65.000
18.57719 49.000
18.59714 56.000
18.61709 49.000
18.63703 67.000
18.65698 44.000
18.67693 55.000
18.69688 58.000
18.71682 56.000
18.73677 60.000
18.75672 63.000
18.77666 59.000
18.79661 51.000
18.81656 46.000
18.83650 55.000
18.85645 52.000
18.87640 57.000
18.89634 52.000
18.91629 66.000
18.93624 56.000
18.95619 55.000
18.97613 56.000
18.99608 58.000
19.01603 47.000
19.03597 69.000
19.05592 60.000
19.07587 59.000
19.09581 52.000
19.11576 57.000
19.13571 56.000
19.15566 63.000
19.17560 52.000
19.19555 53.000
19.21550 66.000
19.23544 50.000
19.25539 41.000
19.27534 58.000
19.29528 54.000
19.31523 59.000
19.33518 73.000
19.35513 55.000
19.37507 47.000
19.39502 51.000
19.41497 55.000
19.43491 56.000
19.45486 62.000
19.47481 61.000
19.49475 51.000
19.51470 55.000
19.53465 53.000
19.55459 51.000
19.57454 50.000
19.59449 53.000
19.61444 42.000
19.63438 55.000
19.65433 54.000
19.67428 52.000
19.69422 53.000
19.71417 47.000
19.73412 44.000
19.75406 48.000
19.77401 49.000
19.79396 43.000
19.81391 53.000
19.83385 48.000
19.85380 54.000
19.87375 63.000
19.89369 57.000
19.91364 51.000
19.93359 47.000
19.95353 55.000
19.97348 52.000
19.99343 55.000
20.01337 57.000
20.03332 49.000
20.05327 49.000
20.07322 61.000
20.09316 49.000
20.11311 55.000
20.13306 51.000
20.15300 63.000
20.17295 57.000
20.19290 62.000
20.21284 39.000
20.23279 51.000
20.25274 56.000
20.27269 67.000
20.29263 56.000
20.31258 60.000
20.33253 64.000
20.35247 53.000
20.37242 58.000
20.39237 63.000
20.41231 54.000
20.43226 56.000
20.45221 50.000
20.47215 44.000
20.49210 65.000
20.51205 61.000
20.53200 48.000
20.55194 56.000
20.57189 67.000
20.59184 55.000
20.61178 68.000
20.63173 59.000
20.65168 55.000
20.67162 62.000
20.69157 62.000
20.71152 59.000
20.73147 71.000
20.75141 57.000
20.77136 56.000
20.79131 54.000
20.81125 65.000
20.83120 68.000
20.85115 68.000
20.87109 79.000
20.89104 72.000
20.91099 63.000
20.93094 60.000
20.95088 58.000
20.97083 78.000
20.99078 67.000
21.01072 64.000
21.03067 71.000
21.05062 60.000
21.07056 65.000
21.09051 66.000
21.11046 59.000
21.13040 76.000
21.15035 54.000
21.17030 70.000
21.19025 52.000
21.21019 55.000
21.23014 47.000
21.25009 63.000
21.27003 50.000
21.28998 54.000
21.30993 59.000
21.32987 60.000
21.34982 64.000
21.36977 64.000
21.38972 59.000
21.40966 52.000
21.42961 48.000
21.44956 63.000
21.46950 65.000
21.48945 66.000
21.50940 48.000
21.52934 46.000
21.54929 60.000
21.56924 52.000
21.58918 52.000
21.60913 53.000
21.62908 53.000
21.64903 53.000
21.66897 58.000
21.68892 56.000
21.70887 52.000
21.72881 50.000
21.74876 53.000
21.76871 52.000
21.78865 53.000
21.80860 60.000
21.82855 60.000
21.84850 54.000
21.86844 54.000
21.88839 54.000
21.90834 55.000
21.92828 48.000
21.94823 64.000
21.96818 73.000
21.98812 46.000
22.00807 55.000
22.02802 56.000
22.04796 57.000
22.06791 57.000
22.08786 57.000
22.10781 47.000
22.12775 55.000
22.14770 51.000
22.16765 46.000
22.18759 50.000
22.20754 61.000
22.22749 54.000
22.24743 65.000
22.26738 58.000
22.28733 54.000
22.30728 61.000
22.32722 52.000
22.34717 51.000
22.36712 54.000
22.38706 55.000
22.40701 53.000
22.42696 61.000
22.44690 56.000
22.46685 51.000
22.48680 42.000
22.50675 49.000
22.52669 57.000
22.54664 59.000
22.56659 42.000
22.58653 47.000
22.60648 58.000
22.62643 46.000
22.64637 50.000
22.66632 67.000
22.68627 50.000
22.70621 64.000
22.72616 71.000
22.74611 62.000
22.76606 49.000
22.78600 54.000
22.80595 51.000
22.82590 49.000
22.84584 50.000
22.86579 63.000
22.88574 55.000
22.90568 46.000
22.92563 50.000
22.94558 52.000
22.96553 48.000
22.98547 57.000
23.00542 43.000
23.02537 50.000
23.04531 50.000
23.06526 74.000
23.08521 49.000
23.10515 59.000
23.12510 47.000
23.14505 42.000
23.16499 54.000
23.18494 51.000
23.20489 57.000
23.22484 61.000
23.24478 52.000
23.26473 64.000
23.28468 59.000
23.30462 63.000
23.32457 54.000
23.34452 57.000
23.36446 61.000
23.38441 51.000
23.40436 45.000
23.42431 59.000
23.44425 57.000
23.46420 51.000
23.48415 57.000
23.50409 54.000
23.52404 70.000
23.54399 79.000
23.56393 49.000
23.58388 60.000
23.60383 63.000
23.62377 60.000
23.64372 57.000
23.66367 65.000
23.68362 53.000
23.70356 55.000
23.72351 56.000
23.74346 71.000
23.76340 52.000
23.78335 67.000
23.80330 59.000
23.82324 78.000
23.84319 66.000
23.86314 71.000
23.88309 55.000
23.90303 56.000
23.92298 63.000
23.94293 52.000
23.96287 60.000
23.98282 74.000
24.00277 57.000
24.02271 41.000
24.04266 71.000
24.06261 66.000
24.08256 64.000
24.10250 50.000
24.12245 52.000
24.14240 43.000
24.16234 65.000
24.18229 56.000
24.20224 42.000
24.22218 56.000
24.24213 45.000
24.26208 65.000
24.28202 61.000
24.30197 60.000
24.32192 55.000
24.34187 54.000
24.36181 64.000
24.38176 65.000
24.40171 54.000
24.42165 71.000
24.44160 53.000
24.46155 43.000
24.48149 57.000
24.50144 59.000
24.52139 46.000
24.54134 71.000
24.56128 70.000
24.58123 55.000
24.60118 56.000
24.62112 59.000
24.64107 51.000
24.66102 51.000
24.68096 49.000
24.70091 58.000
24.72086 73.000
24.74080 65.000
24.76075 58.000
24.78070 44.000
24.80065 61.000
24.82059 52.000
24.84054 57.000
24.86049 67.000
24.88043 74.000
24.90038 62.000
24.92033 55.000
24.94027 57.000
24.96022 74.000
24.98017 66.000
25.00012 55.000
25.02006 55.000
25.04001 75.000
25.05996 57.000
25.07990 51.000
25.09985 55.000
25.11980 56.000
25.13974 69.000
25.15969 69.000
25.17964 74.000
25.19958 71.000
25.21953 59.000
25.23948 70.000
25.25943 59.000
25.27937 66.000
25.29932 60.000
25.31927 62.000
25.33921 53.000
25.35916 58.000
25.37911 59.000
25.39905 59.000
25.41900 66.000
25.43895 60.000
25.45890 58.000
25.47884 56.000
25.49879 68.000
25.51874 66.000
25.53868 64.000
25.55863 58.000
25.57858 60.000
25.59852 58.000
25.61847 63.000
25.63842 54.000
25.65837 69.000
25.67831 48.000
25.69826 59.000
25.71821 61.000
25.73815 88.000
25.75810 57.000
25.77805 66.000
25.79799 54.000
25.81794 48.000
25.83789 65.000
25.85783 64.000
25.87778 75.000
25.89773 54.000
25.91768 59.000
25.93762 77.000
25.95757 56.000
25.97752 65.000
25.99746 60.000
26.01741 60.000
26.03736 59.000
26.05730 57.000
26.07725 52.000
26.09720 59.000
26.11715 59.000
26.13709 66.000
26.15704 48.000
26.17699 64.000
26.19693 44.000
26.21688 60.000
26.23683 73.000
26.25677 67.000
26.27672 57.000
26.29667 53.000
26.31661 64.000
26.33656 62.000
26.35651 56.000
26.37646 58.000
26.39640 52.000
26.41635 58.000
26.43630 55.000
26.45624 62.000
26.47619 70.000
26.49614 62.000
26.51608 80.000
26.53603 62.000
26.55598 73.000
26.57593 62.000
26.59587 68.000
26.61582 63.000
26.63577 70.000
26.65571 52.000
26.67566 66.000
26.69561 60.000
26.71555 65.000
26.73550 60.000
26.75545 51.000
26.77539 51.000
26.79534 59.000
26.81529 67.000
26.83524 54.000
26.85518 49.000
26.87513 64.000
26.89508 66.000
26.91502 64.000
26.93497 57.000
26.95492 53.000
26.97486 65.000
26.99481 57.000
27.01476 50.000
27.03471 60.000
27.05465 55.000
27.07460 65.000
27.09455 52.000
27.11449 64.000
27.13444 61.000
27.15439 70.000
27.17433 57.000
27.19428 56.000
27.21423 60.000
27.23417 65.000
27.25412 63.000
27.27407 60.000
27.29402 55.000
27.31396 48.000
27.33391 75.000
27.35386 68.000
27.37380 58.000
27.39375 64.000
27.41370 58.000
27.43364 68.000
27.45359 68.000
27.47354 71.000
27.49349 66.000
27.51343 53.000
27.53338 65.000
27.55333 60.000
27.57327 70.000
27.59322 67.000
27.61317 50.000
27.63311 64.000
27.65306 58.000
27.67301 63.000
27.69296 77.000
27.71290 54.000
27.73285 68.000
27.75280 60.000
27.77274 65.000
27.79269 61.000
27.81264 57.000
27.83258 56.000
27.85253 70.000
27.87248 57.000
27.89242 83.000
27.91237 68.000
27.93232 58.000
27.95227 54.000
27.97221 63.000
27.99216 49.000
28.01211 58.000
28.03205 69.000
28.05200 48.000
28.07195 59.000
28.09189 57.000
28.11184 69.000
28.13179 53.000
28.15174 61.000
28.17168 53.000
28.19163 55.000
28.21158 62.000
28.23152 42.000
28.25147 58.000
28.27142 72.000
28.29136 50.000
28.31131 48.000
28.33126 72.000
28.35120 58.000
28.37115 59.000
28.39110 49.000
28.41105 64.000
28.43099 62.000
28.45094 60.000
28.47089 67.000
28.49083 64.000
28.51078 53.000
28.53073 66.000
28.55067 57.000
28.57062 66.000
28.59057 55.000
28.61052 69.000
28.63046 38.000
28.65041 56.000
28.67036 67.000
28.69030 60.000
28.71025 71.000
28.73020 66.000
28.75014 72.000
28.77009 65.000
28.79004 58.000
28.80998 67.000
28.82993 61.000
28.84988 59.000
28.86983 67.000
28.88977 62.000
28.90972 66.000
28.92967 53.000
28.94961 58.000
28.96956 61.000
28.98951 67.000
29.00945 67.000
29.02940 51.000
29.04935 82.000
29.06930 60.000
29.08924 72.000
29.10919 64.000
29.12914 61.000
29.14908 69.000
29.16903 54.000
29.18898 91.000
29.20892 65.000
29.22887 82.000
29.24882 82.000
29.26877 69.000
29.28871 88.000
29.30866 73.000
29.32861 93.000
29.34855 73.000
29.36850 76.000
29.38845 69.000
29.40839 74.000
29.42834 68.000
29.44829 75.000
29.46823 52.000
29.48818 69.000
29.50813 66.000
29.52808 54.000
29.54802 67.000
29.56797 68.000
29.58792 71.000
29.60786 51.000
29.62781 76.000
29.64776 61.000
29.66770 65.000
29.68765 62.000
29.70760 66.000
29.72755 71.000
29.74749 51.000
29.76744 87.000
29.78739 75.000
29.80733 71.000
29.82728 73.000
29.84723 74.000
29.86717 70.000
29.88712 94.000
29.90707 102.000
29.92701 83.000
29.94696 82.000
29.96691 107.000
29.98686 100.000
30.00680 104.000
30.02675 111.000
30.04670 97.000
30.06664 98.000
30.08659 89.000
30.10654 89.000
30.12648 83.000
30.14643 82.000
30.16638 82.000
30.18633 86.000
30.20627 83.000
30.22622 85.000
30.24617 70.000
30.26611 72.000
30.28606 88.000
30.30601 71.000
30.32595 60.000
30.34590 59.000
30.36585 77.000
30.38579 72.000
30.40574 64.000
30.42569 63.000
30.44564 60.000
30.46558 66.000
30.48553 72.000
30.50548 66.000
30.52542 64.000
30.54537 51.000
30.56532 69.000
30.58526 72.000
30.60521 55.000
30.62516 67.000
30.64511 71.000
30.66505 77.000
30.68500 69.000
30.70495 49.000
30.72489 62.000
30.74484 63.000
30.76479 66.000
30.78473 58.000
30.80468 75.000
30.82463 66.000
30.84458 70.000
30.86452 90.000
30.88447 57.000
30.90442 67.000
30.92436 74.000
30.94431 78.000
30.96426 72.000
30.98420 64.000
31.00415 60.000
31.02410 67.000
31.04404 69.000
31.06399 72.000
31.08394 67.000
31.10389 79.000
31.12383 67.000
31.14378 82.000
31.16373 57.000
31.18367 93.000
31.20362 81.000
31.22357 85.000
31.24351 67.000
31.26346 72.000
31.28341 103.000
31.30336 100.000
31.32330 88.000
31.34325 89.000
31.36320 104.000
31.38314 93.000
31.40309 104.000
31.42304 115.000
31.44298 120.000
31.46293 158.000
31.48288 169.000
31.50282 177.000
31.52277 241.000
31.54272 316.000
31.56267 387.000
31.58261 505.000
31.60256 592.000
31.62251 703.000
31.64245 766.000
31.66240 860.000
31.68235 901.000
31.70229 808.000
31.72224 757.000
31.74219 626.000
31.76214 502.000
31.78208 444.000
31.80203 357.000
31.82198 295.000
31.84192 211.000
31.86187 181.000
31.88182 174.000
31.90176 142.000
31.92171 100.000
31.94166 100.000
31.96160 113.000
31.98155 87.000
32.00150 85.000
32.02145 75.000
32.04139 81.000
32.06134 78.000
32.08129 88.000
32.10123 79.000
32.12118 77.000
32.14113 78.000
32.16107 69.000
32.18102 70.000
32.20097 65.000
32.22092 65.000
32.24086 67.000
32.26081 75.000
32.28076 68.000
32.30070 67.000
32.32065 86.000
32.34060 57.000
32.36054 65.000
32.38049 79.000
32.40044 63.000
32.42039 61.000
32.44033 76.000
32.46028 56.000
32.48023 69.000
32.50017 69.000
32.52012 59.000
32.54007 77.000
32.56001 53.000
32.57996 61.000
32.59991 59.000
32.61985 76.000
32.63980 67.000
32.65975 69.000
32.67970 62.000
32.69964 60.000
32.71959 75.000
32.73954 60.000
32.75948 63.000
32.77943 73.000
32.79938 68.000
32.81932 70.000
32.83927 56.000
32.85922 69.000
32.87917 60.000
32.89911 68.000
32.91906 60.000
32.93901 78.000
32.95895 63.000
32.97890 59.000
32.99885 65.000
33.01879 79.000
33.03874 59.000
33.05869 90.000
33.07863 59.000
33.09858 60.000
33.11853 67.000
33.13848 56.000
33.15842 70.000
33.17837 60.000
33.19832 69.000
33.21826 50.000
33.23821 52.000
33.25816 63.000
33.27810 56.000
33.29805 71.000
33.31800 74.000
33.33795 54.000
33.35789 45.000
33.37784 70.000
33.39779 61.000
33.41773 66.000
33.43768 79.000
33.45763 76.000
33.47757 55.000
33.49752 55.000
33.51747 54.000
33.53741 44.000
33.55736 77.000
33.57731 58.000
33.59726 68.000
33.61720 64.000
33.63715 50.000
33.65710 65.000
33.67704 61.000
33.69699 60.000
33.71694 50.000
33.73688 68.000
33.75683 65.000
33.77678 74.000
33.79673 65.000
33.81667 52.000
33.83662 69.000
33.85657 69.000
33.87651 51.000
33.89646 80.000
33.91641 67.000
33.93635 70.000
33.95630 61.000
33.97625 65.000
33.99620 66.000
34.01614 73.000
34.03609 87.000
34.05604 75.000
34.07598 64.000
34.09593 86.000
34.11588 61.000
34.13582 70.000
34.15577 70.000
34.17572 77.000
34.19566 73.000
34.21561 92.000
34.23556 72.000
34.25551 57.000
34.27545 69.000
34.29540 76.000
34.31535 48.000
34.33529 79.000
34.35524 65.000
34.37519 68.000
34.39513 76.000
34.41508 107.000
34.43503 78.000
34.45498 84.000
34.47492 92.000
34.49487 97.000
34.51482 75.000
34.53476 77.000
34.55471 90.000
34.57466 79.000
34.59460 76.000
34.61455 94.000
34.63450 71.000
34.65444 77.000
34.67439 81.000
34.69434 74.000
34.71429 98.000
34.73423 70.000
34.75418 55.000
34.77413 62.000
34.79407 78.000
34.81402 73.000
34.83397 51.000
34.85391 90.000
34.87386 68.000
34.89381 94.000
34.91376 78.000
34.93370 75.000
34.95365 91.000
34.97360 72.000
34.99354 81.000
35.01349 75.000
35.03344 61.000
35.05338 90.000
35.07333 111.000
35.09328 93.000
35.11322 83.000
35.13317 116.000
35.15312 87.000
35.17307 118.000
35.19301 107.000
35.21296 115.000
35.23291 103.000
35.25285 101.000
35.27280 127.000
35.29275 112.000
35.31269 122.000
35.33264 125.000
35.35259 128.000
35.37254 145.000
35.39248 162.000
35.41243 133.000
35.43238 162.000
35.45232 160.000
35.47227 160.000
35.49222 201.000
35.51216 190.000
35.53211 199.000
35.55206 222.000
35.57201 235.000
35.59195 260.000
35.61190 322.000
35.63185 402.000
35.65179 518.000
35.67174 614.000
35.69169 740.000
35.71163 815.000
35.73158 923.000
35.75153 946.000
35.77147 929.000
35.79142 898.000
35.81137 766.000
35.83132 710.000
35.85126 591.000
35.87121 510.000
35.89116 422.000
35.91110 361.000
35.93105 248.000
35.95100 210.000
35.97094 164.000
35.99089 145.000
36.01084 121.000
36.03079 117.000
36.05073 98.000
36.07068 95.000
36.09063 85.000
36.11057 85.000
36.13052 81.000
36.15047 97.000
36.17041 84.000
36.19036 87.000
36.21031 70.000
36.23025 82.000
36.25020 83.000
36.27015 81.000
36.29010 71.000
36.31004 77.000
36.32999 66.000
36.34994 76.000
36.36988 70.000
36.38983 83.000
36.40978 78.000
36.42972 83.000
36.44967 76.000
36.46962 86.000
36.48957 77.000
36.50951 75.000
36.52946 87.000
36.54941 118.000
36.56935 107.000
36.58930 153.000
36.60925 153.000
36.62919 160.000
36.64914 152.000
36.66909 169.000
36.68903 143.000
36.70898 139.000
36.72893 127.000
36.74888 138.000
36.76882 131.000
36.78877 124.000
36.80872 122.000
36.82866 99.000
36.84861 89.000
36.86856 84.000
36.88850 80.000
36.90845 84.000
36.92840 76.000
36.94835 77.000
36.96829 84.000
36.98824 78.000
37.00819 85.000
37.02813 73.000
37.04808 76.000
37.06803 74.000
37.08797 82.000
37.10792 75.000
37.12787 76.000
37.14781 71.000
37.16776 84.000
37.18771 73.000
37.20766 88.000
37.22760 89.000
37.24755 66.000
37.26750 73.000
37.28744 57.000
37.30739 77.000
37.32734 64.000
37.34728 77.000
37.36723 72.000
37.38718 80.000
37.40713 65.000
37.42707 77.000
37.44702 73.000
37.46697 55.000
37.48691 66.000
37.50686 84.000
37.52681 72.000
37.54675 70.000
37.56670 60.000
37.58665 77.000
37.60660 65.000
37.62654 74.000
37.64649 66.000
37.66644 76.000
37.68638 58.000
37.70633 74.000
37.72628 71.000
37.74622 64.000
37.76617 90.000
37.78612 78.000
37.80606 68.000
37.82601 79.000
37.84596 82.000
37.86591 103.000
37.88585 81.000
37.90580 74.000
37.92575 88.000
37.94569 70.000
37.96564 87.000
37.98559 88.000
38.00553 75.000
38.02548 80.000
38.04543 80.000
38.06538 82.000
38.08532 72.000
38.10527 85.000
38.12522 76.000
38.14516 54.000
38.16511 73.000
38.18506 68.000
38.20500 78.000
38.22495 85.000
38.24490 76.000
38.26484 59.000
38.28479 69.000
38.30474 72.000
38.32469 82.000
38.34463 77.000
38.36458 75.000
38.38453 66.000
38.40447 83.000
38.42442 72.000
38.44437 88.000
38.46431 92.000
38.48426 72.000
38.50421 73.000
38.52416 68.000
38.54410 76.000
38.56405 81.000
38.58400 70.000
38.60394 91.000
38.62389 88.000
38.64384 89.000
38.66378 94.000
38.68373 92.000
38.70368 89.000
38.72362 99.000
38.74357 109.000
38.76352 91.000
38.78347 90.000
38.80341 96.000
38.82336 122.000
38.84331 113.000
38.86325 123.000
38.88320 112.000
38.90315 141.000
38.92309 134.000
38.94304 169.000
38.96299 168.000
38.98294 223.000
39.00288 199.000
39.02283 264.000
39.04278 252.000
39.06272 329.000
39.08267 348.000
39.10262 450.000
39.12256 575.000
39.14251 710.000
39.16246 846.000
39.18241 1131.000
39.20235 1280.000
39.22230 1407.000
39.24225 1610.000
39.26219 1666.000
39.28214 1743.000
39.30209 1637.000
39.32203 1555.000
39.34198 1356.000
39.36193 1248.000
39.38187 1067.000
39.40182 901.000
39.42177 760.000
39.44172 637.000
39.46166 504.000
39.48161 400.000
39.50156 315.000
39.52150 266.000
39.54145 267.000
39.56140 192.000
39.58134 186.000
39.60129 169.000
39.62124 152.000
39.64119 151.000
39.66113 132.000
39.68108 131.000
39.70103 133.000
39.72097 137.000
39.74092 122.000
39.76087 99.000
39.78081 107.000
39.80076 101.000
39.82071 96.000
39.84065 92.000
39.86060 99.000
39.88055 92.000
39.90050 77.000
39.92044 106.000
39.94039 82.000
39.96034 79.000
39.98028 76.000
40.00023 82.000
40.02018 84.000
40.04012 76.000
40.06007 90.000
40.08002 84.000
40.09997 77.000
40.11991 72.000
40.13986 87.000
40.15981 74.000
40.17975 68.000
40.19970 69.000
40.21965 70.000
40.23959 69.000
40.25954 80.000
40.27949 78.000
40.29943 64.000
40.31938 61.000
40.33933 83.000
40.35928 79.000
40.37922 58.000
40.39917 51.000
40.41912 73.000
40.43906 58.000
40.45901 68.000
40.47896 79.000
40.49890 54.000
40.51885 69.000
40.53880 74.000
40.55875 60.000
40.57869 62.000
40.59864 70.000
40.61859 74.000
40.63853 54.000
40.65848 67.000
40.67843 56.000
40.69837 59.000
40.71832 55.000
40.73827 81.000
40.75822 46.000
40.77816 65.000
40.79811 60.000
40.81806 56.000
40.83800 65.000
40.85795 62.000
40.87790 66.000
40.89784 64.000
40.91779 53.000
40.93774 78.000
40.95768 79.000
40.97763 65.000
40.99758 76.000
41.01753 86.000
41.03747 74.000
41.05742 64.000
41.07737 53.000
41.09731 77.000
41.11726 64.000
41.13721 83.000
41.15715 53.000
41.17710 60.000
41.19705 73.000
41.21700 60.000
41.23694 76.000
41.25689 82.000
41.27684 75.000
41.29678 69.000
41.31673 71.000
41.33668 69.000
41.35662 76.000
41.37657 79.000
41.39652 75.000
41.41646 80.000
41.43641 70.000
41.45636 64.000
41.47631 66.000
41.49625 69.000
41.51620 63.000
41.53615 69.000
41.55609 62.000
41.57604 60.000
41.59599 61.000
41.61593 51.000
41.63588 59.000
41.65583 63.000
41.67578 50.000
41.69572 67.000
41.71567 74.000
41.73562 72.000
41.75556 72.000
41.77551 64.000
41.79546 62.000
41.81540 76.000
41.83535 54.000
41.85530 62.000
41.87524 50.000
41.89519 62.000
41.91514 64.000
41.93509 60.000
41.95503 53.000
41.97498 63.000
41.99493 54.000
42.01487 65.000
42.03482 58.000
42.05477 58.000
42.07471 71.000
42.09466 64.000
42.11461 60.000
42.13456 42.000
42.15450 55.000
42.17445 81.000
42.19440 57.000
42.21434 73.000
42.23429 68.000
42.25424 66.000
42.27418 64.000
42.29413 53.000
42.31408 58.000
42.33403 61.000
42.35397 68.000
42.37392 67.000
42.39387 69.000
42.41381 71.000
42.43376 73.000
42.45371 73.000
42.47365 61.000
42.49360 56.000
42.51355 69.000
42.53349 75.000
42.55344 65.000
42.57339 74.000
42.59334 63.000
42.61328 72.000
42.63323 60.000
42.65318 65.000
42.67312 62.000
42.69307 70.000
42.71302 79.000
42.73296 68.000
42.75291 60.000
42.77286 84.000
42.79281 82.000
42.81275 79.000
42.83270 83.000
42.85265 81.000
42.87259 76.000
42.89254 106.000
42.91249 92.000
42.93243 85.000
42.95238 91.000
42.97233 80.000
42.99227 107.000
43.01222 119.000
43.03217 107.000
43.05212 111.000
43.07206 124.000
43.09201 155.000
43.11196 143.000
43.13190 221.000
43.15185 219.000
43.17180 238.000
43.19174 288.000
43.21169 335.000
43.23164 423.000
43.25159 498.000
43.27153 509.000
43.29148 612.000
43.31143 633.000
43.33137 682.000
43.35132 661.000
43.37127 636.000
43.39121 592.000
43.41116 555.000
43.43111 534.000
43.45105 485.000
43.47100 402.000
43.49095 333.000
43.51090 278.000
43.53084 237.000
43.55079 199.000
43.57074 167.000
43.59068 157.000
43.61063 137.000
43.63058 109.000
43.65052 108.000
43.67047 87.000
43.69042 87.000
43.71037 96.000
43.73031 93.000
43.75026 83.000
43.77021 80.000
43.79015 82.000
43.81010 88.000
43.83005 88.000
43.84999 66.000
43.86994 62.000
43.88989 64.000
43.90984 69.000
43.92978 58.000
43.94973 71.000
43.96968 49.000
43.98962 68.000
44.00957 57.000
44.02952 76.000
44.04946 54.000
44.06941 48.000
44.08936 69.000
44.10930 66.000
44.12925 64.000
44.14920 64.000
44.16915 49.000
44.18909 62.000
44.20904 66.000
44.22899 69.000
44.24893 62.000
44.26888 64.000
44.28883 57.000
44.30877 55.000
44.32872 56.000
44.34867 57.000
44.36862 57.000
44.38856 63.000
44.40851 55.000
44.42846 63.000
44.44840 60.000
44.46835 55.000
44.48830 42.000
44.50824 62.000
44.52819 71.000
44.54814 72.000
44.56808 66.000
44.58803 49.000
44.60798 77.000
44.62793 61.000
44.64787 68.000
44.66782 58.000
44.68777 51.000
44.70771 76.000
44.72766 67.000
44.74761 70.000
44.76755 58.000
44.78750 73.000
44.80745 50.000
44.82740 54.000
44.84734 69.000
44.86729 52.000
44.88724 61.000
44.90718 69.000
44.92713 54.000
44.94708 59.000
44.96702 64.000
44.98697 57.000
45.00692 57.000
45.02686 57.000
45.04681 50.000
45.06676 58.000
45.08671 66.000
45.10665 54.000
45.12660 48.000
45.14655 58.000
45.16649 55.000
45.18644 62.000
45.20639 66.000
45.22633 63.000
45.24628 59.000
45.26623 47.000
45.28618 55.000
45.30612 62.000
45.32607 61.000
45.34602 56.000
45.36596 61.000
45.38591 65.000
45.40586 55.000
45.42580 71.000
45.44575 55.000
45.46570 49.000
45.48565 61.000
45.50559 58.000
45.52554 61.000
45.54549 57.000
45.56543 58.000
45.58538 47.000
45.60533 55.000
45.62527 69.000
45.64522 68.000
45.66517 60.000
45.68511 51.000
45.70506 62.000
45.72501 69.000
45.74496 48.000
45.76490 50.000
45.78485 60.000
45.80480 60.000
45.82474 72.000
45.84469 42.000
45.86464 49.000
45.88458 67.000
45.90453 69.000
45.92448 52.000
45.94443 60.000
45.96437 57.000
45.98432 55.000
46.00427 45.000
46.02421 50.000
46.04416 60.000
46.06411 72.000
46.08405 52.000
46.10400 58.000
46.12395 67.000
46.14389 59.000
46.16384 58.000
46.18379 61.000
46.20374 59.000
46.22368 53.000
46.24363 62.000
46.26358 69.000
46.28352 72.000
46.30347 59.000
46.32342 52.000
46.34336 64.000
46.36331 71.000
46.38326 68.000
46.40321 76.000
46.42315 61.000
46.44310 64.000
46.46305 59.000
46.48299 53.000
46.50294 76.000
46.52289 62.000
46.54283 74.000
46.56278 69.000
46.58273 68.000
46.60267 64.000
46.62262 60.000
46.64257 65.000
46.66252 58.000
46.68246 59.000
46.70241 69.000
46.72236 57.000
46.74230 70.000
46.76225 65.000
46.78220 70.000
46.80214 56.000
46.82209 60.000
46.84204 65.000
46.86199 68.000
46.88193 60.000
46.90188 56.000
46.92183 62.000
46.94177 66.000
46.96172 61.000
46.98167 58.000
47.00161 70.000
47.02156 56.000
47.04151 57.000
47.06146 43.000
47.08140 63.000
47.10135 58.000
47.12130 67.000
47.14124 58.000
47.16119 65.000
47.18114 65.000
47.20108 60.000
47.22103 75.000
47.24098 62.000
47.26092 58.000
47.28087 77.000
47.30082 54.000
47.32077 82.000
47.34071 64.000
47.36066 63.000
47.38061 68.000
47.40055 67.000
47.42050 89.000
47.44045 73.000
47.46039 63.000
47.48034 75.000
47.50029 67.000
47.52024 71.000
47.54018 62.000
47.56013 71.000
47.58008 72.000
47.60002 67.000
47.61997 73.000
47.63992 71.000
47.65986 85.000
47.67981 78.000
47.69976 81.000
47.71970 81.000
47.73965 88.000
47.75960 76.000
47.77955 77.000
47.79949 95.000
47.81944 95.000
47.83939 115.000
47.85933 102.000
47.87928 89.000
47.89923 102.000
47.91917 94.000
47.93912 102.000
47.95907 83.000
47.97902 94.000
47.99896 98.000
48.01891 107.000
48.03886 117.000
48.05880 122.000
48.07875 129.000
48.09870 131.000
48.11864 132.000
48.13859 135.000
48.15854 164.000
48.17848 148.000
48.19843 188.000
48.21838 199.000
48.23833 219.000
48.25827 255.000
48.27822 232.000
48.29817 298.000
48.31811 296.000
48.33806 349.000
48.35801 409.000
48.37795 484.000
48.39790 578.000
48.41785 636.000
48.43780 812.000
48.45774 958.000
48.47769 1078.000
48.49764 1206.000
48.51758 1387.000
48.53753 1458.000
48.55748 1450.000
48.57742 1519.000
48.59737 1466.000
48.61732 1382.000
48.63726 1230.000
48.65721 1189.000
48.67716 1124.000
48.69711 1000.000
48.71705 836.000
48.73700 668.000
48.75695 629.000
48.77689 495.000
48.79684 401.000
48.81679 349.000
48.83673 268.000
48.85668 256.000
48.87663 207.000
48.89658 206.000
48.91652 201.000
48.93647 176.000
48.95642 146.000
48.97636 145.000
48.99631 129.000
49.01626 118.000
49.03620 130.000
49.05615 143.000
49.07610 118.000
49.09605 113.000
49.11599 97.000
49.13594 92.000
49.15589 99.000
49.17583 109.000
49.19578 99.000
49.21573 81.000
49.23567 86.000
49.25562 98.000
49.27557 81.000
49.29551 80.000
49.31546 108.000
49.33541 90.000
49.35536 81.000
49.37530 82.000
49.39525 78.000
49.41520 84.000
49.43514 64.000
49.45509 82.000
49.47504 74.000
49.49498 77.000
49.51493 78.000
49.53488 69.000
49.55483 60.000
49.57477 61.000
49.59472 73.000
49.61467 64.000
49.63461 54.000
49.65456 73.000
49.67451 75.000
49.69445 67.000
49.71440 67.000
49.73435 65.000
49.75429 75.000
49.77424 70.000
49.79419 59.000
49.81414 73.000
49.83408 57.000
49.85403 63.000
49.87398 67.000
49.89392 55.000
49.91387 78.000
49.93382 53.000
49.95376 68.000
49.97371 64.000
49.99366 58.000
50.01361 49.000
50.03355 48.000
50.05350 65.000
50.07345 59.000
50.09339 59.000
50.11334 61.000
50.13329 60.000
50.15323 61.000
50.17318 67.000
50.19313 59.000
50.21307 46.000
50.23302 71.000
50.25297 60.000
50.27292 42.000
50.29286 44.000
50.31281 52.000
50.33276 53.000
50.35270 60.000
50.37265 61.000
50.39260 70.000
50.41254 66.000
50.43249 53.000
50.45244 50.000
50.47239 63.000
50.49233 53.000
50.51228 64.000
50.53223 59.000
50.55217 50.000
50.57212 56.000
50.59207 51.000
50.61201 61.000
50.63196 41.000
50.65191 63.000
50.67186 54.000
50.69180 53.000
50.71175 61.000
50.73170 51.000
50.75164 47.000
50.77159 56.000
50.79154 70.000
50.81148 49.000
50.83143 67.000
50.85138 46.000
50.87132 66.000
50.89127 67.000
50.91122 51.000
50.93117 54.000
50.95111 64.000
50.97106 62.000
50.99101 52.000
51.01095 72.000
51.03090 52.000
51.05085 46.000
51.07079 61.000
51.09074 57.000
51.11069 50.000
51.13064 47.000
51.15058 49.000
51.17053 56.000
51.19048 46.000
51.21042 59.000
51.23037 60.000
51.25032 51.000
51.27026 51.000
51.29021 46.000
51.31016 56.000
51.33010 63.000
51.35005 66.000
51.37000 61.000
51.38995 49.000
51.40989 54.000
51.42984 60.000
51.44979 40.000
51.46973 37.000
51.48968 48.000
51.50963 51.000
51.52957 44.000
51.54952 50.000
51.56947 48.000
51.58942 46.000
51.60936 47.000
51.62931 45.000
51.64926 52.000
51.66920 59.000
51.68915 39.000
51.70910 59.000
51.72904 63.000
51.74899 54.000
51.76894 56.000
51.78888 63.000
51.80883 60.000
51.82878 62.000
51.84873 57.000
51.86867 60.000
51.88862 50.000
51.90857 64.000
51.92851 63.000
51.94846 45.000
51.96841 50.000
51.98835 53.000
52.00830 57.000
52.02825 59.000
52.04820 64.000
52.06814 47.000
52.08809 58.000
52.10804 51.000
52.12798 46.000
52.14793 52.000
52.16788 46.000
52.18782 47.000
52.20777 44.000
52.22772 62.000
52.24767 56.000
52.26761 59.000
52.28756 50.000
52.30751 47.000
52.32745 49.000
52.34740 49.000
52.36735 56.000
52.38729 57.000
52.40724 64.000
52.42719 62.000
52.44713 48.000
52.46708 57.000
52.48703 60.000
52.50698 53.000
52.52692 51.000
52.54687 63.000
52.56682 58.000
52.58676 52.000
52.60671 43.000
52.62666 47.000
52.64660 58.000
52.66655 56.000
52.68650 50.000
52.70645 50.000
52.72639 43.000
52.74634 47.000
52.76629 54.000
52.78623 49.000
52.80618 36.000
52.82613 42.000
52.84607 49.000
52.86602 59.000
52.88597 67.000
52.90591 55.000
52.92586 53.000
52.94581 54.000
52.96576 44.000
52.98570 58.000
53.00565 39.000
53.02560 38.000
53.04554 61.000
53.06549 60.000
53.08544 47.000
53.10538 46.000
53.12533 56.000
53.14528 67.000
53.16523 68.000
53.18517 55.000
53.20512 57.000
53.22507 60.000
53.24501 56.000
53.26496 62.000
53.28491 52.000
53.30485 53.000
53.32480 38.000
53.34475 50.000
53.36469 70.000
53.38464 76.000
53.40459 53.000
53.42454 67.000
53.44448 49.000
53.46443 69.000
53.48438 49.000
53.50432 68.000
53.52427 50.000
53.54422 60.000
53.56416 51.000
53.58411 47.000
53.60406 51.000
53.62401 68.000
53.64395 49.000
53.66390 63.000
53.68385 69.000
53.70379 60.000
53.72374 49.000
53.74369 45.000
53.76363 53.000
53.78358 58.000
53.80353 59.000
53.82348 53.000
53.84342 48.000
53.86337 64.000
53.88332 63.000
53.90326 47.000
53.92321 68.000
53.94316 43.000
53.96310 56.000
53.98305 54.000
54.00300 60.000
54.02294 51.000
54.04289 46.000
54.06284 61.000
54.08279 62.000
54.10273 45.000
54.12268 56.000
54.14263 43.000
54.16257 62.000
54.18252 63.000
54.20247 46.000
54.22241 67.000
54.24236 48.000
54.26231 47.000
54.28226 48.000
54.30220 61.000
54.32215 51.000
54.34210 58.000
54.36204 59.000
54.38199 60.000
54.40194 43.000
54.42188 51.000
54.44183 54.000
54.46178 45.000
54.48172 48.000
54.50167 52.000
54.52162 63.000
54.54157 39.000
54.56151 42.000
54.58146 46.000
54.60141 52.000
54.62135 56.000
54.64130 54.000
54.66125 51.000
54.68119 59.000
54.70114 65.000
54.72109 41.000
54.74104 58.000
54.76098 62.000
54.78093 51.000
54.80088 50.000
54.82082 59.000
54.84077 50.000
54.86072 60.000
54.88066 40.000
54.90061 49.000
54.92056 63.000
54.94050 49.000
54.96045 51.000
54.98040 55.000
55.00035 61.000
55.02029 46.000
55.04024 38.000
55.06019 62.000
55.08013 46.000
55.10008 46.000
55.12003 45.000
55.13997 37.000
55.15992 59.000
55.17987 38.000
55.19982 52.000
55.21976 49.000
55.23971 44.000
55.25966 51.000
55.27960 62.000
55.29955 57.000
55.31950 59.000
55.33944 50.000
55.35939 47.000
55.37934 47.000
55.39929 44.000
55.41923 59.000
55.43918 42.000
55.45913 46.000
55.47907 58.000
55.49902 58.000
55.51897 39.000
55.53891 41.000
55.55886 46.000
55.57881 67.000
55.59875 43.000
55.61870 48.000
55.63865 59.000
55.65860 45.000
55.67854 50.000
55.69849 45.000
55.71844 51.000
55.73838 58.000
55.75833 56.000
55.77828 59.000
55.79822 54.000
55.81817 52.000
55.83812 46.000
55.85807 43.000
55.87801 54.000
55.89796 39.000
55.91791 55.000
55.93785 43.000
55.95780 49.000
55.97775 65.000
55.99769 41.000
56.01764 54.000
56.03759 54.000
56.05753 53.000
56.07748 62.000
56.09743 38.000
56.11738 53.000
56.13732 47.000
56.15727 54.000
56.17722 55.000
56.19716 46.000
56.21711 47.000
56.23706 53.000
56.25700 60.000
56.27695 47.000
56.29690 46.000
56.31685 49.000
56.33679 52.000
56.35674 43.000
56.37669 53.000
56.39663 49.000
56.41658 62.000
56.43653 62.000
56.45647 43.000
56.47642 46.000
56.49637 56.000
56.51631 51.000
56.53626 49.000
56.55621 52.000
56.57616 40.000
56.59610 72.000
56.61605 55.000
56.63600 64.000
56.65594 56.000
56.67589 67.000
56.69584 63.000
56.71578 50.000
56.73573 64.000
56.75568 66.000
56.77563 50.000
56.79557 66.000
56.81552 62.000
56.83547 57.000
56.85541 67.000
56.87536 54.000
56.89531 68.000
56.91525 67.000
56.93520 55.000
56.95515 47.000
56.97510 56.000
56.99504 60.000
57.01499 67.000
57.03494 62.000
57.05488 77.000
57.07483 66.000
57.09478 87.000
57.11472 68.000
57.13467 59.000
57.15462 67.000
57.17456 71.000
57.19451 65.000
57.21446 67.000
57.23441 68.000
57.25435 48.000
57.27430 75.000
57.29425 72.000
57.31419 61.000
57.33414 67.000
57.35409 57.000
57.37403 55.000
57.39398 54.000
57.41393 50.000
57.43388 50.000
57.45382 59.000
57.47377 50.000
57.49372 51.000
57.51366 59.000
57.53361 53.000
57.55356 47.000
57.57350 49.000
57.59345 41.000
57.61340 52.000
57.63334 43.000
57.65329 50.000
57.67324 59.000
57.69319 53.000
57.71313 46.000
57.73308 49.000
57.75303 48.000
57.77297 50.000
57.79292 49.000
57.81287 43.000
57.83281 54.000
57.85276 51.000
57.87271 51.000
57.89266 47.000
57.91260 56.000
57.93255 57.000
57.95250 50.000
57.97244 51.000
57.99239 51.000
58.01234 70.000
58.03228 46.000
58.05223 52.000
58.07218 63.000
58.09212 50.000
58.11207 68.000
58.13202 53.000
58.15197 59.000
58.17191 52.000
58.19186 42.000
58.21181 54.000
58.23175 57.000
58.25170 56.000
58.27165 43.000
58.29159 61.000
58.31154 51.000
58.33149 66.000
58.35144 57.000
58.37138 53.000
58.39133 56.000
58.41128 60.000
58.43122 54.000
58.45117 55.000
58.47112 55.000
58.49106 61.000
58.51101 43.000
58.53096 53.000
58.55090 50.000
58.57085 54.000
58.59080 66.000
58.61075 50.000
58.63069 48.000
58.65064 59.000
58.67059 48.000
58.69053 49.000
58.71048 43.000
58.73043 44.000
58.75037 86.000
58.77032 51.000
58.79027 57.000
58.81022 51.000
58.83016 45.000
58.85011 70.000
58.87006 58.000
58.89000 52.000
58.90995 56.000
58.92990 49.000
58.94984 41.000
58.96979 55.000
58.98974 43.000
59.00969 59.000
59.02963 62.000
59.04958 60.000
59.06953 60.000
59.08947 67.000
59.10942 53.000
59.12937 57.000
59.14931 53.000
59.16926 49.000
59.18921 58.000
59.20915 58.000
59.22910 47.000
59.24905 56.000
59.26900 56.000
59.28894 62.000
59.30889 53.000
59.32884 51.000
59.34878 60.000
59.36873 56.000
59.38868 48.000
59.40862 48.000
59.42857 65.000
59.44852 65.000
59.46847 60.000
59.48841 50.000
59.50836 41.000
59.52831 51.000
59.54825 51.000
59.56820 58.000
59.58815 56.000
59.60809 71.000
59.62804 63.000
59.64799 69.000
59.66793 49.000
59.68788 59.000
59.70783 57.000
59.72778 55.000
59.74772 63.000
59.76767 63.000
59.78762 45.000
59.80756 54.000
59.82751 61.000
59.84746 55.000
59.86740 57.000
59.88735 53.000
59.90730 65.000
59.92725 70.000
59.94719 50.000
59.96714 48.000
59.98709 69.000
60.00703 57.000
60.02698 60.000
60.04693 63.000
60.06687 62.000
60.08682 50.000
60.10677 62.000
60.12671 60.000
60.14666 50.000
60.16661 46.000
60.18656 61.000
60.20650 61.000
60.22645 52.000
60.24640 59.000
60.26634 59.000
60.28629 51.000
60.30624 60.000
60.32618 64.000
60.34613 60.000
60.36608 60.000
60.38603 64.000
60.40597 58.000
60.42592 66.000
60.44587 57.000
60.46581 68.000
60.48576 54.000
60.50571 51.000
60.52565 51.000
60.54560 57.000
60.56555 67.000
60.58550 64.000
60.60544 61.000
60.62539 49.000
60.64534 69.000
60.66528 56.000
60.68523 60.000
60.70518 62.000
60.72512 62.000
60.74507 64.000
60.76502 54.000
60.78496 64.000
60.80491 65.000
60.82486 62.000
60.84481 66.000
60.86475 74.000
60.88470 66.000
60.90465 74.000
60.92459 71.000
60.94454 74.000
60.96449 76.000
60.98443 84.000
61.00438 57.000
61.02433 75.000
61.04428 87.000
61.06422 83.000
61.08417 79.000
61.10412 98.000
61.12406 89.000
61.14401 80.000
61.16396 80.000
61.18390 78.000
61.20385 96.000
61.22380 108.000
61.24374 90.000
61.26369 109.000
61.28364 105.000
61.30359 109.000
61.32353 128.000
61.34348 133.000
61.36343 140.000
61.38337 192.000
61.40332 160.000
61.42327 172.000
61.44321 207.000
61.46316 219.000
61.48311 262.000
61.50306 309.000
61.52300 354.000
61.54295 386.000
61.56290 428.000
61.58284 450.000
61.60279 530.000
61.62274 565.000
61.64268 557.000
61.66263 563.000
61.68258 557.000
61.70252 567.000
61.72247 543.000
61.74242 532.000
61.76237 505.000
61.78231 464.000
61.80226 481.000
61.82221 407.000
61.84215 402.000
61.86210 353.000
61.88205 366.000
61.90199 312.000
61.92194 263.000
61.94189 228.000
61.96184 206.000
61.98178 189.000
62.00173 159.000
62.02168 134.000
62.04162 151.000
62.06157 146.000
62.08152 133.000
62.10146 115.000
62.12141 113.000
62.14136 123.000
62.16131 106.000
62.18125 95.000
62.20120 115.000
62.22115 114.000
62.24109 103.000
62.26104 89.000
62.28099 94.000
62.30093 72.000
62.32088 77.000
62.34083 83.000
62.36077 92.000
62.38072 80.000
62.40067 78.000
62.42062 74.000
62.44056 70.000
62.46051 82.000
62.48046 72.000
62.50040 84.000
62.52035 84.000
62.54030 72.000
62.56024 80.000
62.58019 90.000
62.60014 90.000
62.62009 85.000
62.64003 79.000
62.65998 84.000
62.67993 76.000
62.69987 93.000
62.71982 73.000
62.73977 92.000
62.75971 82.000
62.77966 79.000
62.79961 80.000
62.81955 69.000
62.83950 102.000
62.85945 95.000
62.87940 83.000
62.89934 74.000
62.91929 79.000
62.93924 69.000
62.95918 68.000
62.97913 69.000
62.99908 81.000
63.01902 54.000
63.03897 67.000
63.05892 73.000
63.07887 57.000
63.09881 47.000
63.11876 49.000
63.13871 44.000
63.15865 54.000
63.17860 71.000
63.19855 58.000
63.21849 48.000
63.23844 58.000
63.25839 71.000
63.27833 58.000
63.29828 54.000
63.31823 51.000
63.33818 55.000
63.35812 58.000
63.37807 63.000
63.39802 76.000
63.41796 54.000
63.43791 57.000
63.45786 65.000
63.47780 59.000
63.49775 67.000
63.51770 59.000
63.53765 65.000
63.55759 66.000
63.57754 52.000
63.59749 63.000
63.61743 47.000
63.63738 60.000
63.65733 67.000
63.67727 60.000
63.69722 67.000
63.71717 62.000
63.73712 77.000
63.75706 68.000
63.77701 58.000
63.79696 66.000
63.81690 72.000
63.83685 79.000
63.85680 59.000
63.87674 61.000
63.89669 70.000
63.91664 74.000
63.93658 85.000
63.95653 99.000
63.97648 80.000
63.99643 86.000
64.01637 84.000
64.03632 113.000
64.05627 122.000
64.07621 124.000
64.09616 127.000
64.11611 134.000
64.13605 187.000
64.15600 204.000
64.17595 226.000
64.19590 270.000
64.21584 264.000
64.23579 334.000
64.25574 341.000
64.27568 424.000
64.29563 443.000
64.31558 451.000
64.33552 494.000
64.35547 478.000
64.37542 515.000
64.39536 464.000
64.41531 425.000
64.43526 373.000
64.45521 388.000
64.47515 376.000
64.49510 359.000
64.51505 357.000
64.53499 327.000
64.55494 298.000
64.57489 276.000
64.59483 211.000
64.61478 224.000
64.63473 170.000
64.65468 155.000
64.67462 133.000
64.69457 123.000
64.71452 126.000
64.73446 112.000
64.75441 100.000
64.77436 88.000
64.79430 83.000
64.81425 87.000
64.83420 82.000
64.85414 86.000
64.87409 75.000
64.89404 66.000
64.91399 75.000
64.93393 81.000
64.95388 66.000
64.97383 65.000
64.99377 69.000
65.01372 74.000
65.03367 73.000
65.05361 63.000
65.07356 65.000
65.09351 61.000
65.11346 70.000
65.13340 74.000
65.15335 54.000
65.17330 63.000
65.19324 74.000
65.21319 60.000
65.23314 69.000
65.25308 57.000
65.27303 59.000
65.29298 41.000
65.31293 56.000
65.33287 66.000
65.35282 63.000
65.37277 65.000
65.39271 59.000
65.41266 71.000
65.43261 67.000
65.45255 74.000
65.47250 65.000
65.49245 66.000
65.51239 76.000
65.53234 53.000
65.55229 68.000
65.57224 74.000
65.59218 49.000
65.61213 79.000
65.63208 69.000
65.65202 74.000
65.67197 64.000
65.69192 49.000
65.71186 49.000
65.73181 72.000
65.75176 67.000
65.77171 65.000
65.79165 58.000
65.81160 71.000
65.83155 80.000
65.85149 47.000
65.87144 78.000
65.89139 60.000
65.91133 54.000
65.93128 69.000
65.95123 60.000
65.97117 70.000
65.99112 90.000
66.01107 69.000
66.03102 53.000
66.05096 75.000
66.07091 86.000
66.09086 87.000
66.11080 93.000
66.13075 109.000
66.15070 103.000
66.17064 119.000
66.19059 116.000
66.21054 127.000
66.23049 136.000
66.25043 127.000
66.27038 128.000
66.29033 153.000
66.31027 156.000
66.33022 160.000
66.35017 151.000
66.37011 168.000
66.39006 169.000
66.41001 140.000
66.42995 166.000
66.44990 190.000
66.46985 163.000
66.48980 183.000
66.50974 197.000
66.52969 215.000
66.54964 211.000
66.56958 244.000
66.58953 269.000
66.60948 299.000
66.62942 314.000
66.64937 323.000
66.66932 343.000
66.68927 327.000
66.70921 366.000
66.72916 339.000
66.74911 322.000
66.76905 321.000
66.78900 291.000
66.80895 275.000
66.82889 267.000
66.84884 286.000
66.86879 260.000
66.88874 254.000
66.90868 214.000
66.92863 215.000
66.94858 216.000
66.96852 180.000
66.98847 154.000
67.00842 153.000
67.02836 153.000
67.04831 99.000
67.06826 81.000
67.08820 98.000
67.10815 85.000
67.12810 87.000
67.14805 89.000
67.16799 79.000
67.18794 78.000
67.20789 79.000
67.22783 71.000
67.24778 82.000
67.26773 71.000
67.28767 71.000
67.30762 63.000
67.32757 70.000
67.34752 62.000
67.36746 63.000
67.38741 47.000
67.40736 59.000
67.42730 53.000
67.44725 50.000
67.46720 58.000
67.48714 51.000
67.50709 61.000
67.52704 38.000
67.54698 63.000
67.56693 66.000
67.58688 53.000
67.60683 57.000
67.62677 47.000
67.64672 50.000
67.66667 58.000
67.68661 43.000
67.70656 49.000
67.72651 55.000
67.74645 50.000
67.76640 48.000
67.78635 38.000
67.80630 57.000
67.82624 49.000
67.84619 43.000
67.86614 45.000
67.88608 58.000
67.90603 49.000
67.92598 41.000
67.94592 43.000
67.96587 39.000
67.98582 59.000
68.00576 67.000
68.02571 57.000
68.04566 43.000
68.06561 43.000
68.08555 46.000
68.10550 51.000
68.12545 38.000
68.14539 54.000
68.16534 42.000
68.18529 56.000
68.20523 56.000
68.22518 39.000
68.24513 52.000
68.26508 61.000
68.28502 42.000
68.30497 50.000
68.32492 43.000
68.34486 49.000
68.36481 31.000
68.38476 46.000
68.40470 49.000
68.42465 47.000
68.44460 46.000
68.46455 46.000
68.48449 57.000
68.50444 55.000
68.52439 44.000
68.54433 47.000
68.56428 40.000
68.58423 57.000
68.60417 36.000
68.62412 55.000
68.64407 42.000
68.66401 48.000
68.68396 50.000
68.70391 54.000
68.72386 56.000
68.74380 38.000
68.76375 35.000
68.78370 45.000
68.80364 42.000
68.82359 43.000
68.84354 44.000
68.86348 54.000
68.88343 52.000
68.90338 50.000
68.92333 46.000
68.94327 51.000
68.96322 50.000
68.98317 50.000
69.00311 59.000
69.02306 42.000
69.04301 44.000
69.06295 59.000
69.08290 51.000
69.10285 66.000
69.12279 35.000
69.14274 49.000
69.16269 61.000
69.18264 61.000
69.20258 59.000
69.22253 41.000
69.24248 39.000
69.26242 59.000
69.28237 64.000
69.30232 57.000
69.32226 58.000
69.34221 54.000
69.36216 50.000
69.38211 73.000
69.40205 65.000
69.42200 75.000
69.44195 51.000
69.46189 52.000
69.48184 66.000
69.50179 57.000
69.52173 50.000
69.54168 62.000
69.56163 61.000
69.58157 50.000
69.60152 54.000
69.62147 49.000
69.64142 44.000
69.66136 51.000
69.68131 51.000
69.70126 51.000
69.72120 42.000
69.74115 56.000
69.76110 58.000
69.78104 58.000
69.80099 53.000
69.82094 41.000
69.84089 51.000
69.86083 60.000
69.88078 42.000
69.90073 41.000
69.92067 48.000
69.94062 49.000
69.96057 48.000
69.98051 33.000
70.00046 46.000
70.02041 40.000
70.04035 40.000
70.06030 42.000
70.08025 46.000
70.10020 37.000
70.12014 56.000
70.14009 52.000
70.16004 53.000
70.17998 65.000
70.19993 44.000
70.21988 43.000
70.23982 47.000
70.25977 50.000
70.27972 50.000
70.29967 50.000
70.31961 50.000
70.33956 47.000
70.35951 50.000
70.37945 41.000
70.39940 43.000
70.41935 55.000
70.43929 40.000
70.45924 46.000
70.47919 46.000
70.49914 37.000
70.51908 70.000
70.53903 53.000
70.55898 58.000
70.57892 53.000
70.59887 53.000
70.61882 31.000
70.63876 58.000
70.65871 54.000
70.67866 48.000
70.69860 46.000
70.71855 50.000
70.73850 44.000
70.75845 42.000
70.77839 41.000
70.79834 48.000
70.81829 53.000
70.83823 54.000
70.85818 55.000
70.87813 39.000
70.89807 40.000
70.91802 40.000
70.93797 42.000
70.95792 59.000
70.97786 47.000
70.99781 43.000
71.01776 44.000
71.03770 54.000
71.05765 48.000
71.07760 49.000
71.09754 42.000
71.11749 35.000
71.13744 47.000
71.15738 50.000
71.17733 53.000
71.19728 44.000
71.21723 34.000
71.23717 46.000
71.25712 47.000
71.27707 51.000
71.29701 46.000
71.31696 44.000
71.33691 48.000
71.35685 40.000
71.37680 35.000
71.39675 52.000
71.41670 57.000
71.43664 46.000
71.45659 54.000
71.47654 47.000
71.49648 43.000
71.51643 37.000
71.53638 42.000
71.55632 41.000
71.57627 58.000
71.59622 37.000
71.61616 36.000
71.63611 43.000
71.65606 43.000
71.67601 54.000
71.69595 54.000
71.71590 33.000
71.73585 49.000
71.75579 54.000
71.77574 49.000
71.79569 35.000
71.81563 43.000
71.83558 37.000
71.85553 30.000
71.87548 41.000
71.89542 47.000
71.91537 48.000
71.93532 43.000
71.95526 58.000
71.97521 55.000
71.99516 48.000
72.01510 52.000
72.03505 49.000
72.05500 39.000
72.07495 46.000
72.09489 41.000
72.11484 47.000
72.13479 43.000
72.15473 51.000
72.17468 53.000
72.19463 40.000
72.21457 43.000
72.23452 50.000
72.25447 50.000
72.27441 38.000
72.29436 46.000
72.31431 44.000
72.33426 43.000
72.35420 44.000
72.37415 35.000
72.39410 46.000
72.41404 54.000
72.43399 41.000
72.45394 36.000
72.47388 59.000
72.49383 58.000
72.51378 61.000
72.53373 50.000
72.55367 48.000
72.57362 42.000
72.59357 40.000
72.61351 45.000
72.63346 58.000
72.65341 37.000
72.67335 47.000
72.69330 61.000
72.71325 46.000
72.73319 47.000
72.75314 53.000
72.77309 46.000
72.79304 58.000
72.81298 34.000
72.83293 51.000
72.85288 59.000
72.87282 48.000
72.89277 53.000
72.91272 42.000
72.93266 40.000
72.95261 54.000
72.97256 52.000
72.99251 40.000
73.01245 49.000
73.03240 49.000
73.05235 64.000
73.07229 48.000
73.09224 46.000
73.11219 66.000
73.13213 67.000
73.15208 53.000
73.17203 71.000
73.19197 76.000
73.21192 65.000
73.23187 66.000
73.25182 59.000
73.27176 77.000
73.29171 78.000
73.31166 80.000
73.33160 100.000
73.35155 80.000
73.37150 95.000
73.39144 95.000
73.41139 137.000
73.43134 117.000
73.45129 120.000
73.47123 148.000
73.49118 146.000
73.51113 162.000
73.53107 158.000
73.55102 175.000
73.57097 166.000
73.59091 187.000
73.61086 167.000
73.63081 154.000
73.65076 169.000
73.67070 170.000
73.69065 143.000
73.71060 130.000
73.73054 132.000
73.75049 111.000
73.77044 128.000
73.79038 112.000
73.81033 104.000
73.83028 109.000
73.85022 92.000
73.87017 95.000
73.89012 99.000
73.91007 77.000
73.93001 72.000
73.94996 63.000
73.96991 62.000
73.98985 59.000
74.00980 57.000
74.02975 62.000
74.04969 59.000
74.06964 56.000
74.08959 55.000
74.10954 54.000
74.12948 57.000
74.14943 54.000
74.16938 57.000
74.18932 62.000
74.20927 55.000
74.22922 51.000
74.24916 57.000
74.26911 52.000
74.28906 51.000
74.30900 55.000
74.32895 51.000
74.34890 54.000
74.36885 38.000
74.38879 57.000
74.40874 55.000
74.42869 67.000
74.44863 48.000
74.46858 51.000
74.48853 48.000
74.50847 60.000
74.52842 64.000
74.54837 48.000
74.56832 49.000
74.58826 48.000
74.60821 55.000
74.62816 57.000
74.64810 55.000
74.66805 47.000
74.68800 35.000
74.70794 57.000
74.72789 39.000
74.74784 57.000
74.76778 50.000
74.78773 57.000
74.80768 47.000
74.82763 41.000
74.84757 49.000
74.86752 61.000
74.88747 50.000
74.90741 43.000
74.92736 45.000
74.94731 45.000
74.96725 54.000
74.98720 58.000
75.00715 39.000
75.02710 43.000
75.04704 57.000
75.06699 59.000
75.08694 49.000
75.10688 41.000
75.12683 51.000
75.14678 50.000
75.16672 42.000
75.18667 52.000
75.20662 39.000
75.22657 38.000
75.24651 49.000
75.26646 56.000
75.28641 42.000
75.30635 46.000
75.32630 51.000
75.34625 70.000
75.36619 46.000
75.38614 43.000
75.40609 47.000
75.42603 53.000
75.44598 60.000
75.46593 44.000
75.48588 62.000
75.50582 39.000
75.52577 56.000
75.54572 55.000
75.56566 47.000
75.58561 43.000
75.60556 62.000
75.62550 58.000
75.64545 46.000
75.66540 50.000
75.68535 69.000
75.70529 72.000
75.72524 79.000
75.74519 62.000
75.76513 83.000
75.78508 90.000
75.80503 88.000
75.82497 76.000
75.84492 89.000
75.86487 90.000
75.88481 83.000
75.90476 118.000
75.92471 93.000
75.94466 112.000
75.96460 90.000
75.98455 90.000
76.00450 76.000
76.02444 73.000
76.04439 94.000
76.06434 79.000
76.08428 79.000
76.10423 75.000
76.12418 61.000
76.14413 88.000
76.16407 82.000
76.18402 75.000
76.20397 67.000
76.22391 71.000
76.24386 59.000
76.26381 57.000
76.28375 71.000
76.30370 47.000
76.32365 53.000
76.34359 59.000
76.36354 60.000
76.38349 52.000
76.40344 55.000
76.42338 67.000
76.44333 56.000
76.46328 55.000
76.48322 53.000
76.50317 56.000
76.52312 55.000
76.54306 57.000
76.56301 59.000
76.58296 58.000
76.60291 61.000
76.62285 57.000
76.64280 55.000
76.66275 53.000
76.68269 44.000
76.70264 54.000
76.72259 64.000
76.74253 53.000
76.76248 48.000
76.78243 66.000
76.80238 56.000
76.82232 61.000
76.84227 45.000
76.86222 49.000
76.88216 55.000
76.90211 48.000
76.92206 38.000
76.94200 48.000
76.96195 42.000
76.98190 59.000
77.00184 46.000
77.02179 57.000
77.04174 55.000
77.06169 47.000
77.08163 59.000
77.10158 49.000
77.12153 54.000
77.14147 52.000
77.16142 61.000
77.18137 67.000
77.20131 59.000
77.22126 68.000
77.24121 62.000
77.26116 64.000
77.28110 63.000
77.30105 70.000
77.32100 63.000
77.34094 82.000
77.36089 70.000
77.38084 84.000
77.40078 76.000
77.42073 86.000
77.44068 90.000
77.46062 85.000
77.48057 99.000
77.50052 91.000
77.52047 103.000
77.54041 106.000
77.56036 138.000
77.58031 138.000
77.60025 147.000
77.62020 156.000
77.64015 169.000
77.66009 160.000
77.68004 174.000
77.69999 187.000
77.71994 212.000
77.73988 149.000
77.75983 196.000
77.77978 176.000
77.79972 179.000
77.81967 200.000
77.83962 190.000
77.85956 210.000
77.87951 193.000
77.89946 183.000
77.91940 201.000
77.93935 195.000
77.95930 179.000
77.97925 191.000
77.99919 188.000
78.01914 222.000
78.03909 200.000
78.05903 211.000
78.07898 213.000
78.09893 229.000
78.11887 196.000
78.13882 199.000
78.15877 179.000
78.17872 174.000
78.19866 161.000
78.21861 161.000
78.23856 154.000
78.25850 147.000
78.27845 136.000
78.29840 144.000
78.31834 137.000
78.33829 164.000
78.35824 116.000
78.37819 111.000
78.39813 132.000
78.41808 101.000
78.43803 89.000
78.45797 88.000
78.47792 89.000
78.49787 66.000
78.51781 93.000
78.53776 71.000
78.55771 60.000
78.57765 65.000
78.59760 72.000
78.61755 75.000
78.63750 57.000
78.65744 71.000
78.67739 67.000
78.69734 75.000
78.71728 48.000
78.73723 62.000
78.75718 56.000
78.77712 53.000
78.79707 55.000
78.81702 37.000
78.83697 64.000
78.85691 58.000
78.87686 59.000
78.89681 44.000
78.91675 48.000
78.93670 43.000
78.95665 51.000
78.97659 58.000
78.99654 43.000
79.01649 51.000
79.03643 56.000
79.05638 49.000
79.07633 49.000
79.09628 48.000
79.11622 53.000
79.13617 51.000
79.15612 60.000
79.17606 44.000
79.19601 52.000
79.21596 44.000
79.23590 55.000
79.25585 54.000
79.27580 50.000
79.29575 43.000
79.31569 38.000
79.33564 45.000
79.35559 51.000
79.37553 55.000
79.39548 58.000
79.41543 53.000
79.43537 50.000
79.45532 33.000
79.47527 44.000
79.49521 52.000
79.51516 57.000
79.53511 51.000
79.55506 46.000
79.57500 46.000
79.59495 40.000
79.61490 57.000
79.63484 54.000
79.65479 58.000
79.67474 53.000
79.69468 65.000
79.71463 43.000
79.73458 55.000
79.75453 39.000
79.77447 43.000
79.79442 41.000
79.81437 56.000
79.83431 54.000
79.85426 54.000
79.87421 38.000
79.89415 45.000
79.91410 54.000
79.93405 42.000
79.95399 65.000
79.97394 40.000
79.99389 47.000
80.01384 45.000
80.03378 53.000
80.05373 51.000
80.07368 38.000
80.09362 42.000
80.11357 43.000
80.13352 46.000
80.15346 58.000
80.17341 47.000
80.19336 46.000
80.21331 40.000
80.23325 46.000
80.25320 50.000
80.27315 48.000
80.29309 41.000
80.31304 45.000
80.33299 46.000
80.35293 43.000
80.37288 42.000
80.39283 52.000
80.41278 56.000
80.43272 39.000
80.45267 55.000
80.47262 48.000
80.49256 49.000
80.51251 51.000
80.53246 55.000
80.55240 51.000
80.57235 40.000
80.59230 56.000
80.61224 46.000
80.63219 66.000
80.65214 54.000
80.67209 51.000
80.69203 56.000
80.71198 66.000
80.73193 58.000
80.75187 62.000
80.77182 69.000
80.79177 70.000
80.81171 61.000
80.83166 70.000
80.85161 64.000
80.87156 54.000
80.89150 73.000
80.91145 68.000
80.93140 64.000
80.95134 75.000
80.97129 63.000
80.99124 77.000
81.01118 72.000
81.03113 51.000
81.05108 60.000
81.07102 54.000
81.09097 64.000
81.11092 61.000
81.13087 48.000
81.15081 64.000
81.17076 61.000
81.19071 43.000
81.21065 43.000
81.23060 55.000
81.25055 48.000
81.27049 42.000
81.29044 38.000
81.31039 40.000
81.33034 45.000
81.35028 49.000
81.37023 46.000
81.39018 39.000
81.41012 60.000
81.43007 38.000
81.45002 44.000
81.46996 52.000
81.48991 33.000
81.50986 50.000
81.52980 36.000
81.54975 48.000
81.56970 58.000
81.58965 46.000
81.60959 47.000
81.62954 49.000
81.64949 53.000
81.66943 47.000
81.68938 36.000
81.70933 49.000
81.72927 51.000
81.74922 42.000
81.76917 39.000
81.78912 47.000
81.80906 35.000
81.82901 48.000
81.84896 48.000
81.86890 46.000
81.88885 37.000
81.90880 43.000
81.92874 51.000
81.94869 42.000
81.96864 39.000
81.98859 42.000
82.00853 38.000
82.02848 47.000
82.04843 59.000
82.06837 54.000
82.08832 49.000
82.10827 51.000
82.12821 43.000
82.14816 28.000
82.16811 48.000
82.18805 48.000
82.20800 37.000
82.22795 38.000
82.24790 40.000
82.26784 38.000
82.28779 49.000
82.30774 38.000
82.32768 53.000
82.34763 44.000
82.36758 44.000
82.38752 39.000
82.40747 35.000
82.42742 49.000
82.44737 32.000
82.46731 43.000
82.48726 39.000
82.50721 40.000
82.52715 38.000
82.54710 46.000
82.56705 46.000
82.58699 53.000
82.60694 44.000
82.62689 59.000
82.64683 48.000
82.66678 46.000
82.68673 32.000
82.70668 43.000
82.72662 50.000
82.74657 59.000
82.76652 44.000
82.78646 44.000
82.80641 47.000
82.82636 45.000
82.84630 47.000
82.86625 42.000
82.88620 37.000
82.90615 36.000
82.92609 47.000
82.94604 43.000
82.96599 34.000
82.98593 31.000
83.00588 40.000
83.02583 32.000
83.04577 47.000
83.06572 52.000
83.08567 43.000
83.10561 43.000
83.12556 45.000
83.14551 35.000
83.16546 54.000
83.18540 55.000
83.20535 41.000
83.22530 47.000
83.24524 46.000
83.26519 36.000
83.28514 52.000
83.30508 48.000
83.32503 33.000
83.34498 41.000
83.36493 47.000
83.38487 39.000
83.40482 32.000
83.42477 38.000
83.44471 42.000
83.46466 38.000
83.48461 47.000
83.50455 51.000
83.52450 46.000
83.54445 49.000
83.56440 46.000
83.58434 52.000
83.60429 41.000
83.62424 57.000
83.64418 32.000
83.66413 52.000
83.68408 46.000
83.70402 39.000
83.72397 45.000
83.74392 54.000
83.76386 51.000
83.78381 40.000
83.80376 43.000
83.82371 52.000
83.84365 40.000
83.86360 40.000
83.88355 48.000
83.90349 42.000
83.92344 50.000
83.94339 50.000
83.96333 53.000
83.98328 46.000
84.00323 54.000
84.02318 51.000
84.04312 48.000
84.06307 42.000
84.08302 55.000
84.10296 64.000
84.12291 66.000
84.14286 61.000
84.16280 66.000
84.18275 55.000
84.20270 60.000
84.22264 72.000
84.24259 70.000
84.26254 75.000
84.28249 84.000
84.30243 85.000
84.32238 82.000
84.34233 101.000
84.36227 83.000
84.38222 79.000
84.40217 95.000
84.42211 95.000
84.44206 121.000
84.46201 116.000
84.48196 134.000
84.50190 116.000
84.52185 154.000
84.54180 173.000
84.56174 178.000
84.58169 183.000
84.60164 169.000
84.62158 160.000
84.64153 180.000
84.66148 173.000
84.68142 162.000
84.70137 147.000
84.72132 173.000
84.74127 164.000
84.76121 160.000
84.78116 136.000
84.80111 169.000
84.82105 151.000
84.84100 142.000
84.86095 143.000
84.88089 139.000
84.90084 140.000
84.92079 111.000
84.94074 112.000
84.96068 93.000
84.98063 111.000
85.00058 120.000
85.02052 108.000
85.04047 89.000
85.06042 86.000
85.08036 75.000
85.10031 79.000
85.12026 68.000
85.14021 71.000
85.16015 68.000
85.18010 63.000
85.20005 55.000
85.21999 64.000
85.23994 68.000
85.25989 56.000
85.27983 54.000
85.29978 63.000
85.31973 49.000
85.33967 58.000
85.35962 51.000
85.37957 56.000
85.39952 50.000
85.41946 52.000
85.43941 55.000
85.45936 53.000
85.47930 59.000
85.49925 39.000
85.51920 44.000
85.53914 52.000
85.55909 42.000
85.57904 39.000
85.59899 66.000
85.61893 49.000
85.63888 47.000
85.65883 49.000
85.67877 46.000
85.69872 35.000
85.71867 35.000
85.73861 48.000
85.75856 47.000
85.77851 49.000
85.79845 43.000
85.81840 47.000
85.83835 54.000
85.85830 48.000
85.87824 46.000
85.89819 56.000
85.91814 43.000
85.93808 45.000
85.95803 62.000
85.97798 39.000
85.99792 67.000
86.01787 47.000
86.03782 49.000
86.05777 48.000
86.07771 49.000
86.09766 61.000
86.11761 51.000
86.13755 69.000
86.15750 68.000
86.17745 68.000
86.19739 49.000
86.21734 64.000
86.23729 60.000
86.25723 62.000
86.27718 81.000
86.29713 68.000
86.31708 55.000
86.33702 73.000
86.35697 66.000
86.37692 78.000
86.39686 47.000
86.41681 58.000
86.43676 55.000
86.45670 54.000
86.47665 53.000
86.49660 75.000
86.51655 63.000
86.53649 47.000
86.55644 59.000
86.57639 61.000
86.59633 54.000
86.61628 46.000
86.63623 59.000
86.65617 47.000
86.67612 61.000
86.69607 58.000
86.71602 66.000
86.73596 53.000
86.75591 50.000
86.77586 55.000
86.79580 65.000
86.81575 73.000
86.83570 62.000
86.85564 61.000
86.87559 55.000
86.89554 65.000
86.91548 59.000
86.93543 72.000
86.95538 57.000
86.97533 72.000
86.99527 67.000
87.01522 59.000
87.03517 50.000
87.05511 56.000
87.07506 72.000
87.09501 59.000
87.11495 64.000
87.13490 51.000
87.15485 58.000
87.17480 63.000
87.19474 53.000
87.21469 60.000
87.23464 54.000
87.25458 42.000
87.27453 61.000
87.29448 45.000
87.31442 52.000
87.33437 43.000
87.35432 50.000
87.37426 56.000
87.39421 53.000
87.41416 51.000
87.43411 52.000
87.45405 42.000
87.47400 45.000
87.49395 50.000
87.51389 39.000
87.53384 53.000
87.55379 47.000
87.57373 43.000
87.59368 46.000
87.61363 46.000
87.63358 41.000
87.65352 46.000
87.67347 57.000
87.69342 40.000
87.71336 34.000
87.73331 41.000
87.75326 41.000
87.77320 35.000
87.79315 48.000
87.81310 51.000
87.83304 32.000
87.85299 41.000
87.87294 39.000
87.89289 51.000
87.91283 45.000
87.93278 58.000
87.95273 33.000
87.97267 32.000
87.99262 49.000
88.01257 50.000
88.03251 37.000
88.05246 46.000
88.07241 45.000
88.09236 35.000
88.11230 45.000
88.13225 35.000
88.15220 40.000
88.17214 43.000
88.19209 47.000
88.21204 42.000
88.23198 42.000
88.25193 42.000
88.27188 44.000
88.29183 47.000
88.31177 40.000
88.33172 26.000
88.35167 37.000
88.37161 34.000
88.39156 39.000
88.41151 50.000
88.43145 43.000
88.45140 46.000
88.47135 44.000
88.49129 35.000
88.51124 25.000
88.53119 67.000
88.55114 44.000
88.57108 36.000
88.59103 46.000
88.61098 38.000
88.63092 29.000
88.65087 42.000
88.67082 45.000
88.69076 46.000
88.71071 37.000
88.73066 45.000
88.75061 45.000
88.77055 36.000
88.79050 48.000
88.81045 38.000
88.83039 33.000
88.85034 43.000
88.87029 42.000
88.89023 42.000
88.91018 42.000
88.93013 53.000
88.95007 40.000
88.97002 50.000
88.98997 50.000
89.00992 45.000
89.02986 42.000
89.04981 48.000
89.06976 43.000
89.08970 36.000
89.10965 33.000
89.12960 41.000
89.14954 39.000
89.16949 50.000
89.18944 49.000
89.20939 44.000
89.22933 40.000
89.24928 40.000
89.26923 40.000
89.28917 51.000
89.30912 41.000
89.32907 47.000
89.34901 52.000
89.36896 44.000
89.38891 42.000
89.40885 48.000
89.42880 51.000
89.44875 38.000
89.46870 43.000
89.48864 49.000
89.50859 47.000
89.52854 35.000
89.54848 44.000
89.56843 44.000
89.58838 45.000
89.60832 47.000
89.62827 46.000
89.64822 38.000
89.66817 42.000
89.68811 47.000
89.70806 44.000
89.72801 52.000
89.74795 48.000
89.76790 60.000
89.78785 47.000
89.80779 44.000
89.82774 41.000
89.84769 44.000
89.86764 39.000
89.88758 52.000
89.90753 47.000
89.92748 38.000
89.94742 49.000
89.96737 50.000
89.98732 47.000
90.00726 54.000
