10.00000 135.000
10.01995 127.000
10.03989 125.000
10.05984 121.000
10.07979 144.000
10.09973 129.000
10.11968 129.000
10.13963 133.000
10.15958 134.000
10.17952 158.000
10.19947 142.000
10.21942 142.000
10.23936 148.000
10.25931 147.000
10.27926 142.000
10.29920 142.000
10.31915 134.000
10.33910 134.000
10.35905 133.000
10.37899 137.000
10.39894 142.000
10.41889 125.000
10.43883 129.000
10.45878 135.000
10.47873 146.000
10.49867 146.000
10.51862 135.000
10.53857 155.000
10.55851 169.000
10.57846 132.000
10.59841 131.000
10.61836 150.000
10.63830 147.000
10.65825 149.000
10.67820 132.000
10.69814 114.000
10.71809 149.000
10.73804 139.000
10.75798 138.000
10.77793 125.000
10.79788 109.000
10.81783 136.000
10.83777 144.000
10.85772 122.000
10.87767 159.000
10.89761 135.000
10.91756 135.000
10.93751 158.000
10.95745 157.000
10.97740 156.000
10.99735 144.000
11.01730 151.000
11.03724 139.000
11.05719 142.000
11.07714 172.000
11.09708 168.000
11.11703 128.000
11.13698 158.000
11.15692 130.000
11.17687 132.000
11.19682 121.000
11.21676 110.000
11.23671 137.000
11.25666 130.000
11.27661 154.000
11.29655 150.000
11.31650 158.000
11.33645 168.000
11.35639 143.000
11.37634 149.000
11.39629 147.000
11.41623 127.000
11.43618 146.000
11.45613 133.000
11.47608 157.000
11.49602 144.000
11.51597 146.000
11.53592 147.000
11.55586 143.000
11.57581 134.000
11.59576 141.000
11.61570 142.000
11.63565 130.000
11.65560 129.000
11.67554 132.000
11.69549 131.000
11.71544 131.000
11.73539 130.000
11.75533 152.000
11.77528 144.000
11.79523 152.000
11.81517 142.000
11.83512 137.000
11.85507 150.000
11.87501 134.000
11.89496 140.000
11.91491 163.000
11.93486 154.000
11.95480 122.000
11.97475 143.000
11.99470 135.000
12.01464 136.000
12.03459 126.000
12.05454 154.000
12.07448 150.000
12.09443 165.000
12.11438 136.000
12.13432 146.000
12.15427 138.000
12.17422 135.000
12.19417 129.000
12.21411 142.000
12.23406 132.000
12.25401 146.000
12.27395 151.000
12.29390 149.000
12.31385 140.000
12.33379 147.000
12.35374 134.000
12.37369 146.000
12.39364 135.000
12.41358 139.000
12.43353 136.000
12.45348 144.000
12.47342 136.000
12.49337 143.000
12.51332 145.000
12.53326 149.000
12.55321 142.000
12.57316 148.000
12.59311 155.000
12.61305 147.000
12.63300 145.000
12.65295 131.000
12.67289 145.000
12.69284 146.000
12.71279 126.000
12.73273 150.000
12.75268 161.000
12.77263 162.000
12.79257 151.000
12.81252 128.000
12.83247 136.000
12.85242 127.000
12.87236 128.000
12.89231 124.000
12.91226 142.000
12.93220 141.000
12.95215 149.000
12.97210 144.000
12.99204 135.000
13.01199 133.000
13.03194 137.000
13.05189 131.000
13.07183 148.000
13.09178 148.000
13.11173 150.000
13.13167 136.000
13.15162 156.000
13.17157 130.000
13.19151 149.000
13.21146 133.000
13.23141 140.000
13.25135 126.000
13.27130 160.000
13.29125 146.000
13.31120 128.000
13.33114 168.000
13.35109 134.000
13.37104 127.000
13.39098 170.000
13.41093 157.000
13.43088 161.000
13.45082 141.000
13.47077 162.000
13.49072 132.000
13.51067 131.000
13.53061 121.000
13.55056 138.000
13.57051 152.000
13.59045 132.000
13.61040 129.000
13.63035 152.000
13.65029 125.000
13.67024 140.000
13.69019 144.000
13.71013 133.000
13.73008 143.000
13.75003 147.000
13.76998 160.000
13.78992 156.000
13.80987 160.000
13.82982 143.000
13.84976 139.000
13.86971 134.000
13.88966 131.000
13.90960 159.000
13.92955 136.000
13.94950 154.000
13.96945 132.000
13.98939 157.000
14.00934 143.000
14.02929 145.000
14.04923 139.000
14.06918 132.000
14.08913 133.000
14.10907 144.000
14.12902 145.000
14.14897 123.000
14.16892 140.000
14.18886 129.000
14.20881 145.000
14.22876 137.000
14.24870 132.000
14.26865 138.000
14.28860 135.000
14.30854 157.000
14.32849 135.000
14.34844 126.000
14.36838 136.000
14.38833 149.000
14.40828 148.000
14.42823 136.000
14.44817 138.000
14.46812 150.000
14.48807 151.000
14.50801 139.000
14.52796 147.000
14.54791 146.000
14.56785 134.000
14.58780 130.000
14.60775 141.000
14.62770 134.000
14.64764 150.000
14.66759 143.000
14.68754 146.000
14.70748 165.000
14.72743 159.000
14.74738 160.000
14.76732 137.000
14.78727 173.000
14.80722 169.000
14.82716 151.000
14.84711 162.000
14.86706 152.000
14.88701 141.000
14.90695 138.000
14.92690 136.000
14.94685 141.000
14.96679 175.000
14.98674 117.000
15.00669 149.000
15.02663 139.000
15.04658 175.000
15.06653 146.000
15.08648 149.000
15.10642 133.000
15.12637 137.000
15.14632 137.000
15.16626 151.000
15.18621 148.000
15.20616 139.000
15.22610 138.000
15.24605 146.000
15.26600 164.000
15.28594 168.000
15.30589 138.000
15.32584 141.000
15.34579 132.000
15.36573 131.000
15.38568 137.000
15.40563 136.000
15.42557 134.000
15.44552 149.000
15.46547 145.000
15.48541 144.000
15.50536 153.000
15.52531 143.000
15.54526 136.000
15.56520 170.000
15.58515 175.000
15.60510 180.000
15.62504 144.000
15.64499 158.000
15.66494 171.000
15.68488 183.000
15.70483 164.000
15.72478 190.000
15.74472 181.000
15.76467 215.000
15.78462 229.000
15.80457 220.000
15.82451 271.000
15.84446 383.000
15.86441 497.000
15.88435 683.000
15.90430 932.000
15.92425 1048.000
15.94419 907.000
15.96414 734.000
15.98409 524.000
16.00404 341.000
16.02398 264.000
16.04393 231.000
16.06388 222.000
16.08382 221.000
16.10377 225.000
16.12372 243.000
16.14366 252.000
16.16361 281.000
16.18356 371.000
16.20351 410.000
16.22345 451.000
16.24340 551.000
16.26335 513.000
16.28329 569.000
16.30324 576.000
16.32319 655.000
16.34313 709.000
16.36308 824.000
16.38303 917.000
16.40297 1039.000
16.42292 1067.000
16.44287 970.000
16.46282 653.000
16.48276 514.000
16.50271 359.000
16.52266 294.000
16.54260 252.000
16.56255 225.000
16.58250 233.000
16.60244 194.000
16.62239 179.000
16.64234 184.000
16.66229 198.000
16.68223 174.000
16.70218 200.000
16.72213 172.000
16.74207 200.000
16.76202 204.000
16.78197 184.000
16.80191 175.000
16.82186 191.000
16.84181 233.000
16.86175 207.000
16.88170 210.000
16.90165 227.000
16.92160 215.000
16.94154 189.000
16.96149 185.000
16.98144 168.000
17.00138 180.000
17.02133 149.000
17.04128 156.000
17.06122 163.000
17.08117 162.000
17.10112 154.000
17.12107 141.000
17.14101 170.000
17.16096 158.000
17.18091 179.000
17.20085 148.000
17.22080 163.000
17.24075 163.000
17.26069 174.000
17.28064 210.000
17.30059 198.000
17.32053 187.000
17.34048 159.000
17.36043 194.000
17.38038 164.000
17.40032 167.000
17.42027 169.000
17.44022 129.000
17.46016 149.000
17.48011 146.000
17.50006 136.000
17.52000 142.000
17.53995 168.000
17.55990 151.000
17.57985 131.000
17.59979 160.000
17.61974 127.000
17.63969 136.000
17.65963 137.000
17.67958 134.000
17.69953 152.000
17.71947 149.000
17.73942 151.000
17.75937 134.000
17.77932 154.000
17.79926 132.000
17.81921 152.000
17.83916 134.000
17.85910 139.000
17.87905 133.000
17.89900 135.000
17.91894 113.000
17.93889 138.000
17.95884 148.000
17.97878 153.000
17.99873 125.000
18.01868 154.000
18.03863 146.000
18.05857 130.000
18.07852 132.000
18.09847 123.000
18.11841 147.000
18.13836 136.000
18.15831 119.000
18.17825 151.000
18.19820 161.000
18.21815 137.000
18.23810 152.000
18.25804 171.000
18.27799 148.000
18.29794 158.000
18.31788 154.000
18.33783 152.000
18.35778 173.000
18.37772 193.000
18.39767 276.000
18.41762 366.000
18.43756 504.000
18.45751 479.000
18.47746 417.000
18.49741 357.000
18.51735 273.000
18.53730 188.000
18.55725 171.000
18.57719 161.000
18.59714 176.000
18.61709 131.000
18.63703 136.000
18.65698 166.000
18.67693 147.000
18.69688 150.000
18.71682 136.000
18.73677 148.000
18.75672 165.000
18.77666 142.000
18.79661 152.000
18.81656 169.000
18.83650 134.000
18.85645 161.000
18.87640 128.000
18.89634 147.000
18.91629 138.000
18.93624 145.000
18.95619 150.000
18.97613 168.000
18.99608 124.000
19.01603 160.000
19.03597 144.000
19.05592 129.000
19.07587 134.000
19.09581 131.000
19.11576 135.000
19.13571 141.000
19.15566 141.000
19.17560 156.000
19.19555 147.000
19.21550 143.000
19.23544 140.000
19.25539 144.000
19.27534 143.000
19.29528 151.000
19.31523 125.000
19.33518 145.000
19.35513 147.000
19.37507 125.000
19.39502 147.000
19.41497 131.000
19.43491 137.000
19.45486 165.000
19.47481 139.000
19.49475 118.000
19.51470 149.000
19.53465 157.000
19.55459 138.000
19.57454 131.000
19.59449 137.000
19.61444 136.000
19.63438 149.000
19.65433 133.000
19.67428 130.000
19.69422 135.000
19.71417 134.000
19.73412 146.000
19.75406 127.000
19.77401 132.000
19.79396 133.000
19.81391 138.000
19.83385 166.000
19.85380 130.000
19.87375 137.000
19.89369 128.000
19.91364 128.000
19.93359 145.000
19.95353 144.000
19.97348 165.000
19.99343 117.000
20.01337 135.000
20.03332 127.000
20.05327 132.000
20.07322 148.000
20.09316 134.000
20.11311 145.000
20.13306 145.000
20.15300 140.000
20.17295 165.000
20.19290 142.000
20.21284 137.000
20.23279 134.000
20.25274 122.000
20.27269 134.000
20.29263 151.000
20.31258 134.000
20.33253 161.000
20.35247 160.000
20.37242 154.000
20.39237 142.000
20.41231 158.000
20.43226 169.000
20.45221 138.000
20.47215 134.000
20.49210 158.000
20.51205 135.000
20.53200 165.000
20.55194 161.000
20.57189 155.000
20.59184 154.000
20.61178 161.000
20.63173 171.000
20.65168 144.000
20.67162 169.000
20.69157 158.000
20.71152 181.000
20.73147 205.000
20.75141 206.000
20.77136 223.000
20.79131 301.000
20.81125 327.000
20.83120 404.000
20.85115 444.000
20.87109 484.000
20.89104 511.000
20.91099 559.000
20.93094 539.000
20.95088 487.000
20.97083 453.000
20.99078 358.000
21.01072 348.000
21.03067 293.000
21.05062 288.000
21.07056 266.000
21.09051 254.000
21.11046 226.000
21.13040 216.000
21.15035 215.000
21.17030 165.000
21.19025 196.000
21.21019 165.000
21.23014 182.000
21.25009 178.000
21.27003 147.000
21.28998 154.000
21.30993 142.000
21.32987 143.000
21.34982 156.000
21.36977 175.000
21.38972 144.000
21.40966 169.000
21.42961 127.000
21.44956 154.000
21.46950 168.000
21.48945 149.000
21.50940 181.000
21.52934 144.000
21.54929 158.000
21.56924 157.000
21.58918 140.000
21.60913 156.000
21.62908 163.000
21.64903 168.000
21.66897 120.000
21.68892 162.000
21.70887 137.000
21.72881 121.000
21.74876 155.000
21.76871 153.000
21.78865 123.000
21.80860 145.000
21.82855 145.000
21.84850 158.000
21.86844 148.000
21.88839 156.000
21.90834 141.000
21.92828 161.000
21.94823 136.000
21.96818 154.000
21.98812 160.000
22.00807 157.000
22.02802 136.000
22.04796 138.000
22.06791 128.000
22.08786 142.000
22.10781 139.000
22.12775 153.000
22.14770 143.000
22.16765 129.000
22.18759 158.000
22.20754 146.000
22.22749 142.000
22.24743 129.000
22.26738 145.000
22.28733 147.000
22.30728 148.000
22.32722 149.000
22.34717 136.000
22.36712 144.000
22.38706 135.000
22.40701 152.000
22.42696 135.000
22.44690 177.000
22.46685 150.000
22.48680 138.000
22.50675 140.000
22.52669 147.000
22.54664 134.000
22.56659 145.000
22.58653 159.000
22.60648 155.000
22.62643 133.000
22.64637 130.000
22.66632 159.000
22.68627 138.000
22.70621 127.000
22.72616 162.000
22.74611 139.000
22.76606 158.000
22.78600 139.000
22.80595 158.000
22.82590 151.000
22.84584 160.000
22.86579 170.000
22.88574 161.000
22.90568 143.000
22.92563 136.000
22.94558 131.000
22.96553 155.000
22.98547 139.000
23.00542 134.000
23.02537 155.000
23.04531 139.000
23.06526 123.000
23.08521 136.000
23.10515 141.000
23.12510 157.000
23.14505 138.000
23.16499 160.000
23.18494 156.000
23.20489 131.000
23.22484 166.000
23.24478 133.000
23.26473 145.000
23.28468 125.000
23.30462 153.000
23.32457 141.000
23.34452 150.000
23.36446 133.000
23.38441 149.000
23.40436 155.000
23.42431 141.000
23.44425 131.000
23.46420 145.000
23.48415 152.000
23.50409 128.000
23.52404 154.000
23.54399 163.000
23.56393 127.000
23.58388 161.000
23.60383 161.000
23.62377 162.000
23.64372 144.000
23.66367 155.000
23.68362 164.000
23.70356 145.000
23.72351 150.000
23.74346 152.000
23.76340 151.000
23.78335 149.000
23.80330 138.000
23.82324 149.000
23.84319 152.000
23.86314 153.000
23.88309 161.000
23.90303 123.000
23.92298 137.000
23.94293 133.000
23.96287 153.000
23.98282 124.000
24.00277 120.000
24.02271 146.000
24.04266 163.000
24.06261 131.000
24.08256 163.000
24.10250 168.000
24.12245 123.000
24.14240 134.000
24.16234 158.000
24.18229 118.000
24.20224 138.000
24.22218 154.000
24.24213 157.000
24.26208 132.000
24.28202 134.000
24.30197 127.000
24.32192 138.000
24.34187 178.000
24.36181 150.000
24.38176 169.000
24.40171 141.000
24.42165 169.000
24.44160 154.000
24.46155 164.000
24.48149 136.000
24.50144 132.000
24.52139 144.000
24.54134 155.000
24.56128 156.000
24.58123 143.000
24.60118 150.000
24.62112 144.000
24.64107 159.000
24.66102 123.000
24.68096 151.000
24.70091 147.000
24.72086 137.000
24.74080 148.000
24.76075 139.000
24.78070 161.000
24.80065 130.000
24.82059 161.000
24.84054 154.000
24.86049 150.000
24.88043 178.000
24.90038 169.000
24.92033 175.000
24.94027 165.000
24.96022 145.000
24.98017 181.000
25.00012 192.000
25.02006 181.000
25.04001 177.000
25.05996 201.000
25.07990 176.000
25.09985 173.000
25.11980 164.000
25.13974 160.000
25.15969 140.000
25.17964 149.000
25.19958 159.000
25.21953 168.000
25.23948 167.000
25.25943 149.000
25.27937 159.000
25.29932 142.000
25.31927 132.000
25.33921 150.000
25.35916 148.000
25.37911 144.000
25.39905 153.000
25.41900 158.000
25.43895 151.000
25.45890 155.000
25.47884 143.000
25.49879 167.000
25.51874 175.000
25.53868 146.000
25.55863 151.000
25.57858 129.000
25.59852 143.000
25.61847 145.000
25.63842 138.000
25.65837 145.000
25.67831 133.000
25.69826 138.000
25.71821 157.000
25.73815 125.000
25.75810 156.000
25.77805 151.000
25.79799 127.000
25.81794 167.000
25.83789 154.000
25.85783 133.000
25.87778 149.000
25.89773 155.000
25.91768 147.000
25.93762 147.000
25.95757 166.000
25.97752 150.000
25.99746 152.000
26.01741 147.000
26.03736 171.000
26.05730 164.000
26.07725 161.000
26.09720 155.000
26.11715 154.000
26.13709 164.000
26.15704 164.000
26.17699 175.000
26.19693 158.000
26.21688 141.000
26.23683 160.000
26.25677 164.000
26.27672 145.000
26.29667 168.000
26.31661 148.000
26.33656 151.000
26.35651 147.000
26.37646 144.000
26.39640 169.000
26.41635 120.000
26.43630 166.000
26.45624 153.000
26.47619 164.000
26.49614 164.000
26.51608 166.000
26.53603 159.000
26.55598 154.000
26.57593 151.000
26.59587 154.000
26.61582 137.000
26.63577 148.000
26.65571 158.000
26.67566 155.000
26.69561 148.000
26.71555 155.000
26.73550 177.000
26.75545 178.000
26.77539 152.000
26.79534 152.000
26.81529 141.000
26.83524 181.000
26.85518 148.000
26.87513 149.000
26.89508 141.000
26.91502 138.000
26.93497 158.000
26.95492 162.000
26.97486 148.000
26.99481 138.000
27.01476 178.000
27.03471 155.000
27.05465 155.000
27.07460 143.000
27.09455 160.000
27.11449 145.000
27.13444 145.000
27.15439 154.000
27.17433 154.000
27.19428 150.000
27.21423 144.000
27.23417 159.000
27.25412 152.000
27.27407 129.000
27.29402 148.000
27.31396 163.000
27.33391 144.000
27.35386 145.000
27.37380 142.000
27.39375 179.000
27.41370 148.000
27.43364 163.000
27.45359 157.000
27.47354 153.000
27.49349 147.000
27.51343 172.000
27.53338 163.000
27.55333 147.000
27.57327 177.000
27.59322 162.000
27.61317 163.000
27.63311 152.000
27.65306 154.000
27.67301 176.000
27.69296 134.000
27.71290 148.000
27.73285 174.000
27.75280 154.000
27.77274 152.000
27.79269 172.000
27.81264 181.000
27.83258 150.000
27.85253 143.000
27.87248 153.000
27.89242 154.000
27.91237 149.000
27.93232 151.000
27.95227 148.000
27.97221 170.000
27.99216 145.000
28.01211 148.000
28.03205 138.000
28.05200 164.000
28.07195 151.000
28.09189 145.000
28.11184 155.000
28.13179 162.000
28.15174 164.000
28.17168 151.000
28.19163 165.000
28.21158 140.000
28.23152 167.000
28.25147 142.000
28.27142 165.000
28.29136 190.000
28.31131 149.000
28.33126 149.000
28.35120 149.000
28.37115 171.000
28.39110 133.000
28.41105 145.000
28.43099 174.000
28.45094 163.000
28.47089 168.000
28.49083 182.000
28.51078 176.000
28.53073 151.000
28.55067 152.000
28.57062 152.000
28.59057 150.000
28.61052 156.000
28.63046 176.000
28.65041 165.000
28.67036 155.000
28.69030 153.000
28.71025 160.000
28.73020 162.000
28.75014 171.000
28.77009 175.000
28.79004 172.000
28.80998 161.000
28.82993 167.000
28.84988 161.000
28.86983 159.000
28.88977 154.000
28.90972 163.000
28.92967 164.000
28.94961 176.000
28.96956 182.000
28.98951 161.000
29.00945 139.000
29.02940 175.000
29.04935 188.000
29.06930 170.000
29.08924 177.000
29.10919 186.000
29.12914 170.000
29.14908 167.000
29.16903 166.000
29.18898 178.000
29.20892 174.000
29.22887 171.000
29.24882 170.000
29.26877 199.000
29.28871 199.000
29.30866 202.000
29.32861 228.000
29.34855 232.000
29.36850 248.000
29.38845 249.000
29.40839 255.000
29.42834 245.000
29.44829 253.000
29.46823 277.000
29.48818 261.000
29.50813 246.000
29.52808 214.000
29.54802 207.000
29.56797 188.000
29.58792 186.000
29.60786 183.000
29.62781 168.000
29.64776 165.000
29.66770 175.000
29.68765 166.000
29.70760 181.000
29.72755 177.000
29.74749 184.000
29.76744 176.000
29.78739 158.000
29.80733 176.000
29.82728 176.000
29.84723 205.000
29.86717 158.000
29.88712 161.000
29.90707 161.000
29.92701 164.000
29.94696 160.000
29.96691 161.000
29.98686 179.000
30.00680 166.000
30.02675 177.000
30.04670 145.000
30.06664 215.000
30.08659 196.000
30.10654 179.000
30.12648 218.000
30.14643 194.000
30.16638 203.000
30.18633 216.000
30.20627 241.000
30.22622 308.000
30.24617 334.000
30.26611 449.000
30.28606 678.000
30.30601 932.000
30.32595 1031.000
30.34590 809.000
30.36585 730.000
30.38579 663.000
30.40574 626.000
30.42569 481.000
30.44564 353.000
30.46558 274.000
30.48553 228.000
30.50548 223.000
30.52542 191.000
30.54537 165.000
30.56532 187.000
30.58526 176.000
30.60521 175.000
30.62516 159.000
30.64511 177.000
30.66505 173.000
30.68500 170.000
30.70495 136.000
30.72489 180.000
30.74484 170.000
30.76479 169.000
30.78473 169.000
30.80468 178.000
30.82463 168.000
30.84458 162.000
30.86452 183.000
30.88447 152.000
30.90442 179.000
30.92436 164.000
30.94431 163.000
30.96426 182.000
30.98420 179.000
31.00415 159.000
31.02410 178.000
31.04404 155.000
31.06399 160.000
31.08394 173.000
31.10389 130.000
31.12383 147.000
31.14378 177.000
31.16373 179.000
31.18367 192.000
31.20362 169.000
31.22357 162.000
31.24351 164.000
31.26346 150.000
31.28341 145.000
31.30336 153.000
31.32330 157.000
31.34325 174.000
31.36320 172.000
31.38314 173.000
31.40309 156.000
31.42304 162.000
31.44298 187.000
31.46293 165.000
31.48288 160.000
31.50282 175.000
31.52277 166.000
31.54272 170.000
31.56267 152.000
31.58261 188.000
31.60256 143.000
31.62251 151.000
31.64245 161.000
31.66240 178.000
31.68235 152.000
31.70229 186.000
31.72224 166.000
31.74219 171.000
31.76214 161.000
31.78208 170.000
31.80203 172.000
31.82198 162.000
31.84192 179.000
31.86187 143.000
31.88182 176.000
31.90176 160.000
31.92171 161.000
31.94166 150.000
31.96160 193.000
31.98155 172.000
32.00150 164.000
32.02145 178.000
32.04139 172.000
32.06134 206.000
32.08129 230.000
32.10123 197.000
32.12118 229.000
32.14113 225.000
32.16107 223.000
32.18102 214.000
32.20097 223.000
32.22092 218.000
32.24086 192.000
32.26081 176.000
32.28076 173.000
32.30070 164.000
32.32065 166.000
32.34060 161.000
32.36054 160.000
32.38049 179.000
32.40044 154.000
32.42039 160.000
32.44033 171.000
32.46028 170.000
32.48023 170.000
32.50017 170.000
32.52012 207.000
32.54007 185.000
32.56001 181.000
32.57996 191.000
32.59991 175.000
32.61985 174.000
32.63980 189.000
32.65975 185.000
32.67970 183.000
32.69964 192.000
32.71959 174.000
32.73954 187.000
32.75948 180.000
32.77943 199.000
32.79938 162.000
32.81932 190.000
32.83927 195.000
32.85922 225.000
32.87917 191.000
32.89911 212.000
32.91906 197.000
32.93901 215.000
32.95895 202.000
32.97890 212.000
32.99885 191.000
33.01879 224.000
33.03874 239.000
33.05869 223.000
33.07863 224.000
33.09858 254.000
33.11853 219.000
33.13848 238.000
33.15842 258.000
33.17837 258.000
33.19832 253.000
33.21826 219.000
33.23821 233.000
33.25816 204.000
33.27810 214.000
33.29805 195.000
33.31800 224.000
33.33795 204.000
33.35789 165.000
33.37784 190.000
33.39779 202.000
33.41773 196.000
33.43768 183.000
33.45763 171.000
33.47757 227.000
33.49752 207.000
33.51747 181.000
33.53741 168.000
33.55736 172.000
33.57731 193.000
33.59726 166.000
33.61720 175.000
33.63715 192.000
33.65710 190.000
33.67704 190.000
33.69699 170.000
33.71694 175.000
33.73688 180.000
33.75683 170.000
33.77678 178.000
33.79673 164.000
33.81667 168.000
33.83662 174.000
33.85657 202.000
33.87651 190.000
33.89646 159.000
33.91641 206.000
33.93635 184.000
33.95630 202.000
33.97625 186.000
33.99620 198.000
34.01614 202.000
34.03609 193.000
34.05604 190.000
34.07598 220.000
34.09593 208.000
34.11588 250.000
34.13582 215.000
34.15577 206.000
34.17572 220.000
34.19566 264.000
34.21561 250.000
34.23556 270.000
34.25551 309.000
34.27545 304.000
34.29540 352.000
34.31535 363.000
34.33529 397.000
34.35524 437.000
34.37519 490.000
34.39513 529.000
34.41508 534.000
34.43503 551.000
34.45498 605.000
34.47492 564.000
34.49487 492.000
34.51482 492.000
34.53476 509.000
34.55471 454.000
34.57466 442.000
34.59460 374.000
34.61455 370.000
34.63450 314.000
34.65444 292.000
34.67439 294.000
34.69434 261.000
34.71429 291.000
34.73423 287.000
34.75418 245.000
34.77413 267.000
34.79407 242.000
34.81402 270.000
34.83397 270.000
34.85391 241.000
34.87386 276.000
34.89381 263.000
34.91376 254.000
34.93370 262.000
34.95365 284.000
34.97360 272.000
34.99354 276.000
35.01349 266.000
35.03344 264.000
35.05338 277.000
35.07333 239.000
35.09328 251.000
35.11322 230.000
35.13317 266.000
35.15312 249.000
35.17307 254.000
35.19301 232.000
35.21296 300.000
35.23291 302.000
35.25285 278.000
35.27280 349.000
35.29275 294.000
35.31269 327.000
35.33264 341.000
35.35259 345.000
35.37254 322.000
35.39248 294.000
35.41243 310.000
35.43238 310.000
35.45232 323.000
35.47227 296.000
35.49222 359.000
35.51216 438.000
35.53211 420.000
35.55206 471.000
35.57201 511.000
35.59195 605.000
35.61190 756.000
35.63185 982.000
35.65179 1268.000
35.67174 1893.000
35.69169 2645.000
35.71163 2978.000
35.73158 2625.000
35.75153 2055.000
35.77147 1886.000
35.79142 1897.000
35.81137 1754.000
35.83132 1291.000
35.85126 925.000
35.87121 691.000
35.89116 505.000
35.91110 431.000
35.93105 358.000
35.95100 361.000
35.97094 284.000
35.99089 291.000
36.01084 268.000
36.03079 226.000
36.05073 269.000
36.07068 243.000
36.09063 230.000
36.11057 225.000
36.13052 245.000
36.15047 233.000
36.17041 229.000
36.19036 223.000
36.21031 210.000
36.23025 235.000
36.25020 225.000
36.27015 226.000
36.29010 239.000
36.31004 231.000
36.32999 236.000
36.34994 234.000
36.36988 290.000
36.38983 291.000
36.40978 319.000
36.42972 316.000
36.44967 352.000
36.46962 338.000
36.48957 350.000
36.50951 412.000
36.52946 385.000
36.54941 428.000
36.56935 437.000
36.58930 425.000
36.60925 365.000
36.62919 378.000
36.64914 345.000
36.66909 351.000
36.68903 350.000
36.70898 316.000
36.72893 314.000
36.74888 328.000
36.76882 271.000
36.78877 287.000
36.80872 304.000
36.82866 276.000
36.84861 328.000
36.86856 349.000
36.88850 382.000
36.90845 419.000
36.92840 519.000
36.94835 539.000
36.96829 640.000
36.98824 740.000
37.00819 784.000
37.02813 869.000
37.04808 905.000
37.06803 947.000
37.08797 991.000
37.10792 1064.000
37.12787 1074.000
37.14781 1094.000
37.16776 1041.000
37.18771 996.000
37.20766 917.000
37.22760 795.000
37.24755 736.000
37.26750 652.000
37.28744 588.000
37.30739 539.000
37.32734 503.000
37.34728 543.000
37.36723 482.000
37.38718 433.000
37.40713 360.000
37.42707 353.000
37.44702 340.000
37.46697 315.000
37.48691 259.000
37.50686 247.000
37.52681 230.000
37.54675 215.000
37.56670 216.000
37.58665 203.000
37.60660 178.000
37.62654 185.000
37.64649 205.000
37.66644 214.000
37.68638 179.000
37.70633 204.000
37.72628 202.000
37.74622 201.000
37.76617 213.000
37.78612 184.000
37.80606 181.000
37.82601 216.000
37.84596 165.000
37.86591 158.000
37.88585 193.000
37.90580 161.000
37.92575 154.000
37.94569 198.000
37.96564 188.000
37.98559 173.000
38.00553 192.000
38.02548 188.000
38.04543 201.000
38.06538 185.000
38.08532 194.000
38.10527 165.000
38.12522 202.000
38.14516 183.000
38.16511 181.000
38.18506 171.000
38.20500 183.000
38.22495 183.000
38.24490 183.000
38.26484 192.000
38.28479 163.000
38.30474 195.000
38.32469 182.000
38.34463 176.000
38.36458 169.000
38.38453 172.000
38.40447 165.000
38.42442 153.000
38.44437 176.000
38.46431 194.000
38.48426 188.000
38.50421 156.000
38.52416 193.000
38.54410 212.000
38.56405 185.000
38.58400 210.000
38.60394 187.000
38.62389 180.000
38.64384 198.000
38.66378 194.000
38.68373 207.000
38.70368 219.000
38.72362 195.000
38.74357 207.000
38.76352 193.000
38.78347 216.000
38.80341 198.000
38.82336 207.000
38.84331 206.000
38.86325 219.000
38.88320 201.000
38.90315 217.000
38.92309 204.000
38.94304 206.000
38.96299 205.000
38.98294 223.000
39.00288 215.000
39.02283 219.000
39.04278 207.000
39.06272 197.000
39.08267 175.000
39.10262 215.000
39.12256 193.000
39.14251 237.000
39.16246 213.000
39.18241 250.000
39.20235 295.000
39.22230 326.000
39.24225 323.000
39.26219 333.000
39.28214 320.000
39.30209 333.000
39.32203 332.000
39.34198 281.000
39.36193 287.000
39.38187 274.000
39.40182 234.000
39.42177 232.000
39.44172 206.000
39.46166 218.000
39.48161 210.000
39.50156 166.000
39.52150 198.000
39.54145 181.000
39.56140 179.000
39.58134 177.000
39.60129 176.000
39.62124 182.000
39.64119 159.000
39.66113 196.000
39.68108 165.000
39.70103 165.000
39.72097 167.000
39.74092 186.000
39.76087 178.000
39.78081 204.000
39.80076 170.000
39.82071 181.000
39.84065 176.000
39.86060 177.000
39.88055 154.000
39.90050 165.000
39.92044 177.000
39.94039 195.000
39.96034 179.000
39.98028 159.000
40.00023 169.000
40.02018 177.000
40.04012 163.000
40.06007 178.000
40.08002 171.000
40.09997 182.000
40.11991 184.000
40.13986 168.000
40.15981 176.000
40.17975 169.000
40.19970 159.000
40.21965 176.000
40.23959 179.000
40.25954 174.000
40.27949 159.000
40.29943 175.000
40.31938 167.000
40.33933 179.000
40.35928 165.000
40.37922 171.000
40.39917 166.000
40.41912 157.000
40.43906 186.000
40.45901 185.000
40.47896 173.000
40.49890 156.000
40.51885 164.000
40.53880 198.000
40.55875 157.000
40.57869 183.000
40.59864 158.000
40.61859 168.000
40.63853 183.000
40.65848 184.000
40.67843 178.000
40.69837 183.000
40.71832 149.000
40.73827 161.000
40.75822 194.000
40.77816 196.000
40.79811 203.000
40.81806 175.000
40.83800 188.000
40.85795 183.000
40.87790 172.000
40.89784 175.000
40.91779 182.000
40.93774 166.000
40.95768 186.000
40.97763 197.000
40.99758 170.000
41.01753 192.000
41.03747 171.000
41.05742 213.000
41.07737 189.000
41.09731 174.000
41.11726 191.000
41.13721 184.000
41.15715 195.000
41.17710 188.000
41.19705 210.000
41.21700 212.000
41.23694 201.000
41.25689 244.000
41.27684 259.000
41.29678 225.000
41.31673 238.000
41.33668 245.000
41.35662 292.000
41.37657 322.000
41.39652 318.000
41.41646 412.000
41.43641 476.000
41.45636 621.000
41.47631 699.000
41.49625 816.000
41.51620 875.000
41.53615 830.000
41.55609 860.000
41.57604 832.000
41.59599 791.000
41.61593 806.000
41.63588 727.000
41.65583 704.000
41.67578 719.000
41.69572 636.000
41.71567 570.000
41.73562 554.000
41.75556 570.000
41.77551 507.000
41.79546 494.000
41.81540 464.000
41.83535 509.000
41.85530 492.000
41.87524 552.000
41.89519 505.000
41.91514 486.000
41.93509 446.000
41.95503 389.000
41.97498 440.000
41.99493 412.000
42.01487 358.000
42.03482 369.000
42.05477 339.000
42.07471 322.000
42.09466 250.000
42.11461 252.000
42.13456 231.000
42.15450 216.000
42.17445 194.000
42.19440 213.000
42.21434 201.000
42.23429 216.000
42.25424 205.000
42.27418 200.000
42.29413 218.000
42.31408 226.000
42.33403 204.000
42.35397 215.000
42.37392 233.000
42.39387 214.000
42.41381 207.000
42.43376 208.000
42.45371 208.000
42.47365 234.000
42.49360 206.000
42.51355 254.000
42.53349 244.000
42.55344 229.000
42.57339 259.000
42.59334 235.000
42.61328 233.000
42.63323 235.000
42.65318 274.000
42.67312 262.000
42.69307 279.000
42.71302 335.000
42.73296 328.000
42.75291 340.000
42.77286 338.000
42.79281 335.000
42.81275 404.000
42.83270 397.000
42.85265 429.000
42.87259 492.000
42.89254 487.000
42.91249 533.000
42.93243 622.000
42.95238 624.000
42.97233 626.000
42.99227 742.000
43.01222 766.000
43.03217 877.000
43.05212 866.000
43.07206 902.000
43.09201 1065.000
43.11196 1071.000
43.13190 1123.000
43.15185 1088.000
43.17180 1155.000
43.19174 1153.000
43.21169 1123.000
43.23164 1197.000
43.25159 1089.000
43.27153 1027.000
43.29148 957.000
43.31143 970.000
43.33137 918.000
43.35132 978.000
43.37127 954.000
43.39121 1006.000
43.41116 953.000
43.43111 829.000
43.45105 745.000
43.47100 702.000
43.49095 646.000
43.51090 610.000
43.53084 535.000
43.55079 472.000
43.57074 396.000
43.59068 340.000
43.61063 318.000
43.63058 278.000
43.65052 260.000
43.67047 245.000
43.69042 238.000
43.71037 225.000
43.73031 221.000
43.75026 195.000
43.77021 175.000
43.79015 205.000
43.81010 184.000
43.83005 211.000
43.84999 206.000
43.86994 186.000
43.88989 198.000
43.90984 170.000
43.92978 191.000
43.94973 188.000
43.96968 174.000
43.98962 204.000
44.00957 185.000
44.02952 194.000
44.04946 188.000
44.06941 186.000
44.08936 166.000
44.10930 178.000
44.12925 174.000
44.14920 163.000
44.16915 162.000
44.18909 166.000
44.20904 190.000
44.22899 170.000
44.24893 156.000
44.26888 172.000
44.28883 174.000
44.30877 161.000
44.32872 181.000
44.34867 175.000
44.36862 130.000
44.38856 184.000
44.40851 183.000
44.42846 172.000
44.44840 179.000
44.46835 170.000
44.48830 156.000
44.50824 186.000
44.52819 193.000
44.54814 160.000
44.56808 161.000
44.58803 164.000
44.60798 167.000
44.62793 169.000
44.64787 167.000
44.66782 160.000
44.68777 154.000
44.70771 180.000
44.72766 168.000
44.74761 155.000
44.76755 166.000
44.78750 176.000
44.80745 176.000
44.82740 177.000
44.84734 191.000
44.86729 180.000
44.88724 180.000
44.90718 166.000
44.92713 172.000
44.94708 163.000
44.96702 178.000
44.98697 185.000
45.00692 186.000
45.02686 183.000
45.04681 197.000
45.06676 158.000
45.08671 172.000
45.10665 173.000
45.12660 211.000
45.14655 192.000
45.16649 178.000
45.18644 191.000
45.20639 151.000
45.22633 179.000
45.24628 182.000
45.26623 171.000
45.28618 171.000
45.30612 181.000
45.32607 189.000
45.34602 164.000
45.36596 168.000
45.38591 184.000
45.40586 161.000
45.42580 181.000
45.44575 163.000
45.46570 171.000
45.48565 173.000
45.50559 159.000
45.52554 164.000
45.54549 189.000
45.56543 177.000
45.58538 166.000
45.60533 179.000
45.62527 170.000
45.64522 186.000
45.66517 174.000
45.68511 164.000
45.70506 175.000
45.72501 184.000
45.74496 173.000
45.76490 162.000
45.78485 154.000
45.80480 155.000
45.82474 144.000
45.84469 148.000
45.86464 151.000
45.88458 157.000
45.90453 162.000
45.92448 177.000
45.94443 163.000
45.96437 163.000
45.98432 175.000
46.00427 171.000
46.02421 179.000
46.04416 176.000
46.06411 153.000
46.08405 143.000
46.10400 174.000
46.12395 180.000
46.14389 152.000
46.16384 142.000
46.18379 164.000
46.20374 135.000
46.22368 181.000
46.24363 158.000
46.26358 156.000
46.28352 155.000
46.30347 167.000
46.32342 153.000
46.34336 136.000
46.36331 169.000
46.38326 173.000
46.40321 182.000
46.42315 161.000
46.44310 161.000
46.46305 145.000
46.48299 139.000
46.50294 150.000
46.52289 146.000
46.54283 155.000
46.56278 152.000
46.58273 164.000
46.60267 153.000
46.62262 145.000
46.64257 164.000
46.66252 142.000
46.68246 148.000
46.70241 167.000
46.72236 169.000
46.74230 171.000
46.76225 157.000
46.78220 141.000
46.80214 152.000
46.82209 149.000
46.84204 140.000
46.86199 159.000
46.88193 160.000
46.90188 177.000
46.92183 163.000
46.94177 153.000
46.96172 149.000
46.98167 149.000
47.00161 190.000
47.02156 161.000
47.04151 180.000
47.06146 160.000
47.08140 152.000
47.10135 158.000
47.12130 152.000
47.14124 176.000
47.16119 181.000
47.18114 181.000
47.20108 183.000
47.22103 155.000
47.24098 156.000
47.26092 164.000
47.28087 148.000
47.30082 175.000
47.32077 160.000
47.34071 145.000
47.36066 146.000
47.38061 139.000
47.40055 159.000
47.42050 167.000
47.44045 188.000
47.46039 179.000
47.48034 183.000
47.50029 183.000
47.52024 164.000
47.54018 182.000
47.56013 184.000
47.58008 172.000
47.60002 167.000
47.61997 183.000
47.63992 151.000
47.65986 158.000
47.67981 171.000
47.69976 166.000
47.71970 170.000
47.73965 163.000
47.75960 164.000
47.77955 163.000
47.79949 175.000
47.81944 160.000
47.83939 140.000
47.85933 159.000
47.87928 187.000
47.89923 172.000
47.91917 159.000
47.93912 183.000
47.95907 156.000
47.97902 185.000
47.99896 179.000
48.01891 158.000
48.03886 155.000
48.05880 194.000
48.07875 202.000
48.09870 162.000
48.11864 163.000
48.13859 178.000
48.15854 153.000
48.17848 172.000
48.19843 187.000
48.21838 179.000
48.23833 168.000
48.25827 163.000
48.27822 178.000
48.29817 179.000
48.31811 183.000
48.33806 187.000
48.35801 158.000
48.37795 184.000
48.39790 183.000
48.41785 169.000
48.43780 164.000
48.45774 186.000
48.47769 167.000
48.49764 186.000
48.51758 192.000
48.53753 187.000
48.55748 185.000
48.57742 164.000
48.59737 180.000
48.61732 198.000
48.63726 219.000
48.65721 247.000
48.67716 286.000
48.69711 291.000
48.71705 318.000
48.73700 300.000
48.75695 305.000
48.77689 313.000
48.79684 303.000
48.81679 281.000
48.83673 266.000
48.85668 286.000
48.87663 249.000
48.89658 250.000
48.91652 215.000
48.93647 238.000
48.95642 220.000
48.97636 198.000
48.99631 204.000
49.01626 169.000
49.03620 145.000
49.05615 177.000
49.07610 162.000
49.09605 148.000
49.11599 179.000
49.13594 195.000
49.15589 161.000
49.17583 171.000
49.19578 183.000
49.21573 179.000
49.23567 159.000
49.25562 190.000
49.27557 171.000
49.29551 171.000
49.31546 178.000
49.33541 190.000
49.35536 173.000
49.37530 195.000
49.39525 174.000
49.41520 207.000
49.43514 161.000
49.45509 175.000
49.47504 187.000
49.49498 192.000
49.51493 200.000
49.53488 214.000
49.55483 180.000
49.57477 170.000
49.59472 204.000
49.61467 185.000
49.63461 192.000
49.65456 180.000
49.67451 180.000
49.69445 156.000
49.71440 144.000
49.73435 177.000
49.75429 138.000
49.77424 203.000
49.79419 195.000
49.81414 168.000
49.83408 167.000
49.85403 166.000
49.87398 178.000
49.89392 171.000
49.91387 165.000
49.93382 172.000
49.95376 156.000
49.97371 151.000
49.99366 145.000
50.01361 148.000
50.03355 161.000
50.05350 166.000
50.07345 157.000
50.09339 154.000
50.11334 161.000
50.13329 166.000
50.15323 156.000
50.17318 165.000
50.19313 161.000
50.21307 171.000
50.23302 176.000
50.25297 162.000
50.27292 159.000
50.29286 153.000
50.31281 184.000
50.33276 158.000
50.35270 165.000
50.37265 160.000
50.39260 163.000
50.41254 143.000
50.43249 163.000
50.45244 166.000
50.47239 170.000
50.49233 170.000
50.51228 149.000
50.53223 168.000
50.55217 183.000
50.57212 148.000
50.59207 144.000
50.61201 159.000
50.63196 159.000
50.65191 143.000
50.67186 141.000
50.69180 155.000
50.71175 148.000
50.73170 174.000
50.75164 152.000
50.77159 136.000
50.79154 158.000
50.81148 149.000
50.83143 146.000
50.85138 141.000
50.87132 157.000
50.89127 163.000
50.91122 165.000
50.93117 151.000
50.95111 151.000
50.97106 147.000
50.99101 142.000
51.01095 175.000
51.03090 130.000
51.05085 138.000
51.07079 167.000
51.09074 140.000
51.11069 163.000
51.13064 167.000
51.15058 151.000
51.17053 160.000
51.19048 160.000
51.21042 150.000
51.23037 144.000
51.25032 128.000
51.27026 177.000
51.29021 150.000
51.31016 166.000
51.33010 145.000
51.35005 157.000
51.37000 185.000
51.38995 149.000
51.40989 165.000
51.42984 171.000
51.44979 130.000
51.46973 162.000
51.48968 159.000
51.50963 148.000
51.52957 158.000
51.54952 129.000
51.56947 151.000
51.58942 165.000
51.60936 162.000
51.62931 151.000
51.64926 167.000
51.66920 164.000
51.68915 148.000
51.70910 159.000
51.72904 142.000
51.74899 169.000
51.76894 161.000
51.78888 159.000
51.80883 133.000
51.82878 150.000
51.84873 153.000
51.86867 150.000
51.88862 164.000
51.90857 184.000
51.92851 176.000
51.94846 161.000
51.96841 185.000
51.98835 181.000
52.00830 175.000
52.02825 170.000
52.04820 187.000
52.06814 180.000
52.08809 182.000
52.10804 169.000
52.12798 185.000
52.14793 166.000
52.16788 175.000
52.18782 160.000
52.20777 172.000
52.22772 182.000
52.24767 168.000
52.26761 185.000
52.28756 203.000
52.30751 184.000
52.32745 186.000
52.34740 161.000
52.36735 149.000
52.38729 152.000
52.40724 151.000
52.42719 150.000
52.44713 146.000
52.46708 152.000
52.48703 165.000
52.50698 184.000
52.52692 151.000
52.54687 169.000
52.56682 154.000
52.58676 138.000
52.60671 176.000
52.62666 175.000
52.64660 177.000
52.66655 155.000
52.68650 154.000
52.70645 169.000
52.72639 165.000
52.74634 162.000
52.76629 166.000
52.78623 160.000
52.80618 161.000
52.82613 149.000
52.84607 154.000
52.86602 170.000
52.88597 160.000
52.90591 168.000
52.92586 176.000
52.94581 164.000
52.96576 164.000
52.98570 173.000
53.00565 172.000
53.02560 198.000
53.04554 199.000
53.06549 213.000
53.08544 234.000
53.10538 246.000
53.12533 283.000
53.14528 265.000
53.16523 246.000
53.18517 237.000
53.20512 218.000
53.22507 219.000
53.24501 205.000
53.26496 223.000
53.28491 232.000
53.30485 205.000
53.32480 202.000
53.34475 214.000
53.36469 199.000
53.38464 178.000
53.40459 167.000
53.42454 153.000
53.44448 174.000
53.46443 147.000
53.48438 182.000
53.50432 208.000
53.52427 164.000
53.54422 171.000
53.56416 177.000
53.58411 167.000
53.60406 177.000
53.62401 187.000
53.64395 190.000
53.66390 180.000
53.68385 180.000
53.70379 190.000
53.72374 186.000
53.74369 216.000
53.76363 244.000
53.78358 268.000
53.80353 294.000
53.82348 357.000
53.84342 359.000
53.86337 332.000
53.88332 327.000
53.90326 265.000
53.92321 266.000
53.94316 282.000
53.96310 281.000
53.98305 333.000
54.00300 285.000
54.02294 236.000
54.04289 252.000
54.06284 210.000
54.08279 186.000
54.10273 183.000
54.12268 203.000
54.14263 178.000
54.16257 170.000
54.18252 165.000
54.20247 192.000
54.22241 165.000
54.24236 164.000
54.26231 182.000
54.28226 181.000
54.30220 183.000
54.32215 145.000
54.34210 167.000
54.36204 171.000
54.38199 169.000
54.40194 191.000
54.42188 161.000
54.44183 173.000
54.46178 147.000
54.48172 166.000
54.50167 160.000
54.52162 164.000
54.54157 176.000
54.56151 198.000
54.58146 184.000
54.60141 150.000
54.62135 176.000
54.64130 147.000
54.66125 164.000
54.68119 155.000
54.70114 154.000
54.72109 163.000
54.74104 159.000
54.76098 169.000
54.78093 146.000
54.80088 165.000
54.82082 160.000
54.84077 167.000
54.86072 138.000
54.88066 152.000
54.90061 168.000
54.92056 168.000
54.94050 177.000
54.96045 151.000
54.98040 160.000
55.00035 147.000
55.02029 154.000
55.04024 169.000
55.06019 161.000
55.08013 140.000
55.10008 152.000
55.12003 151.000
55.13997 151.000
55.15992 175.000
55.17987 154.000
55.19982 154.000
55.21976 192.000
55.23971 167.000
55.25966 168.000
55.27960 159.000
55.29955 142.000
55.31950 182.000
55.33944 165.000
55.35939 149.000
55.37934 141.000
55.39929 154.000
55.41923 158.000
55.43918 170.000
55.45913 159.000
55.47907 158.000
55.49902 162.000
55.51897 143.000
55.53891 155.000
55.55886 153.000
55.57881 134.000
55.59875 183.000
55.61870 188.000
55.63865 155.000
55.65860 146.000
55.67854 160.000
55.69849 181.000
55.71844 167.000
55.73838 151.000
55.75833 145.000
55.77828 156.000
55.79822 143.000
55.81817 141.000
55.83812 143.000
55.85807 155.000
55.87801 151.000
55.89796 155.000
55.91791 151.000
55.93785 173.000
55.95780 155.000
55.97775 147.000
55.99769 149.000
56.01764 161.000
56.03759 167.000
56.05753 170.000
56.07748 167.000
56.09743 157.000
56.11738 166.000
56.13732 164.000
56.15727 169.000
56.17722 156.000
56.19716 188.000
56.21711 171.000
56.23706 161.000
56.25700 144.000
56.27695 166.000
56.29690 156.000
56.31685 181.000
56.33679 156.000
56.35674 163.000
56.37669 164.000
56.39663 158.000
56.41658 169.000
56.43653 146.000
56.45647 171.000
56.47642 164.000
56.49637 156.000
56.51631 150.000
56.53626 175.000
56.55621 158.000
56.57616 202.000
56.59610 166.000
56.61605 165.000
56.63600 163.000
56.65594 168.000
56.67589 158.000
56.69584 176.000
56.71578 148.000
56.73573 175.000
56.75568 158.000
56.77563 164.000
56.79557 170.000
56.81552 140.000
56.83547 158.000
56.85541 184.000
56.87536 162.000
56.89531 166.000
56.91525 174.000
56.93520 166.000
56.95515 172.000
56.97510 147.000
56.99504 160.000
57.01499 193.000
57.03494 177.000
57.05488 181.000
57.07483 162.000
57.09478 184.000
57.11472 190.000
57.13467 198.000
57.15462 168.000
57.17456 199.000
57.19451 230.000
57.21446 227.000
57.23441 249.000
57.25435 269.000
57.27430 304.000
57.29425 304.000
57.31419 398.000
57.33414 437.000
57.35409 540.000
57.37403 645.000
57.39398 669.000
57.41393 656.000
57.43388 601.000
57.45382 524.000
57.47377 531.000
57.49372 475.000
57.51366 449.000
57.53361 499.000
57.55356 548.000
57.57350 504.000
57.59345 431.000
57.61340 408.000
57.63334 312.000
57.65329 325.000
57.67324 264.000
57.69319 265.000
57.71313 295.000
57.73308 273.000
57.75303 292.000
57.77297 322.000
57.79292 288.000
57.81287 327.000
57.83281 348.000
57.85276 335.000
57.87271 297.000
57.89266 286.000
57.91260 318.000
57.93255 284.000
57.95250 291.000
57.97244 302.000
57.99239 280.000
58.01234 257.000
58.03228 261.000
58.05223 229.000
58.07218 211.000
58.09212 215.000
58.11207 186.000
58.13202 204.000
58.15197 200.000
58.17191 176.000
58.19186 189.000
58.21181 163.000
58.23175 178.000
58.25170 165.000
58.27165 183.000
58.29159 181.000
58.31154 188.000
58.33149 168.000
58.35144 174.000
58.37138 171.000
58.39133 172.000
58.41128 170.000
58.43122 158.000
58.45117 179.000
58.47112 167.000
58.49106 173.000
58.51101 185.000
58.53096 177.000
58.55090 153.000
58.57085 173.000
58.59080 162.000
58.61075 160.000
58.63069 170.000
58.65064 199.000
58.67059 170.000
58.69053 170.000
58.71048 139.000
58.73043 175.000
58.75037 161.000
58.77032 163.000
58.79027 168.000
58.81022 151.000
58.83016 164.000
58.85011 179.000
58.87006 156.000
58.89000 153.000
58.90995 176.000
58.92990 159.000
58.94984 149.000
58.96979 169.000
58.98974 170.000
59.00969 160.000
59.02963 172.000
59.04958 159.000
59.06953 168.000
59.08947 147.000
59.10942 173.000
59.12937 168.000
59.14931 162.000
59.16926 201.000
59.18921 191.000
59.20915 164.000
59.22910 168.000
59.24905 150.000
59.26900 157.000
59.28894 178.000
59.30889 161.000
59.32884 157.000
59.34878 160.000
59.36873 178.000
59.38868 180.000
59.40862 149.000
59.42857 177.000
59.44852 167.000
59.46847 172.000
59.48841 176.000
59.50836 160.000
59.52831 167.000
59.54825 176.000
59.56820 175.000
59.58815 192.000
59.60809 161.000
59.62804 157.000
59.64799 202.000
59.66793 176.000
59.68788 179.000
59.70783 205.000
59.72778 173.000
59.74772 180.000
59.76767 213.000
59.78762 205.000
59.80756 204.000
59.82751 199.000
59.84746 182.000
59.86740 208.000
59.88735 206.000
59.90730 176.000
59.92725 195.000
59.94719 206.000
59.96714 188.000
59.98709 174.000
60.00703 185.000
60.02698 213.000
60.04693 185.000
60.06687 177.000
60.08682 162.000
60.10677 144.000
60.12671 162.000
60.14666 189.000
60.16661 162.000
60.18656 178.000
60.20650 159.000
60.22645 155.000
60.24640 184.000
60.26634 174.000
60.28629 175.000
60.30624 172.000
60.32618 165.000
60.34613 166.000
60.36608 160.000
60.38603 145.000
60.40597 168.000
60.42592 173.000
60.44587 180.000
60.46581 180.000
60.48576 148.000
60.50571 194.000
60.52565 169.000
60.54560 163.000
60.56555 170.000
60.58550 175.000
60.60544 154.000
60.62539 175.000
60.64534 190.000
60.66528 193.000
60.68523 153.000
60.70518 181.000
60.72512 183.000
60.74507 194.000
60.76502 178.000
60.78496 161.000
60.80491 150.000
60.82486 178.000
60.84481 163.000
60.86475 162.000
60.88470 171.000
60.90465 161.000
60.92459 171.000
60.94454 173.000
60.96449 172.000
60.98443 174.000
61.00438 172.000
61.02433 162.000
61.04428 159.000
61.06422 192.000
61.08417 138.000
61.10412 167.000
61.12406 177.000
61.14401 166.000
61.16396 185.000
61.18390 179.000
61.20385 180.000
61.22380 194.000
61.24374 190.000
61.26369 181.000
61.28364 192.000
61.30359 193.000
61.32353 194.000
61.34348 207.000
61.36343 196.000
61.38337 199.000
61.40332 227.000
61.42327 183.000
61.44321 206.000
61.46316 231.000
61.48311 229.000
61.50306 209.000
61.52300 218.000
61.54295 274.000
61.56290 249.000
61.58284 265.000
61.60279 243.000
61.62274 278.000
61.64268 242.000
61.66263 285.000
61.68258 323.000
61.70252 305.000
61.72247 321.000
61.74242 300.000
61.76237 274.000
61.78231 299.000
61.80226 280.000
61.82221 286.000
61.84215 266.000
61.86210 255.000
61.88205 266.000
61.90199 269.000
61.92194 286.000
61.94189 267.000
61.96184 284.000
61.98178 321.000
62.00173 275.000
62.02168 303.000
62.04162 301.000
62.06157 302.000
62.08152 304.000
62.10146 331.000
62.12141 322.000
62.14136 322.000
62.16131 316.000
62.18125 318.000
62.20120 318.000
62.22115 324.000
62.24109 343.000
62.26104 346.000
62.28099 363.000
62.30093 409.000
62.32088 375.000
62.34083 406.000
62.36077 449.000
62.38072 492.000
62.40067 523.000
62.42062 485.000
62.44056 534.000
62.46051 553.000
62.48046 532.000
62.50040 579.000
62.52035 560.000
62.54030 567.000
62.56024 609.000
62.58019 572.000
62.60014 629.000
62.62009 574.000
62.64003 598.000
62.65998 613.000
62.67993 599.000
62.69987 628.000
62.71982 657.000
62.73977 614.000
62.75971 601.000
62.77966 603.000
62.79961 587.000
62.81955 577.000
62.83950 545.000
62.85945 506.000
62.87940 492.000
62.89934 519.000
62.91929 534.000
62.93924 592.000
62.95918 594.000
62.97913 731.000
62.99908 914.000
63.01902 930.000
63.03897 964.000
63.05892 892.000
63.07887 812.000
63.09881 685.000
63.11876 604.000
63.13871 603.000
63.15865 532.000
63.17860 618.000
63.19855 609.000
63.21849 597.000
63.23844 484.000
63.25839 535.000
63.27833 397.000
63.29828 337.000
63.31823 333.000
63.33818 275.000
63.35812 271.000
63.37807 233.000
63.39802 222.000
63.41796 224.000
63.43791 195.000
63.45786 206.000
63.47780 218.000
63.49775 184.000
63.51770 181.000
63.53765 200.000
63.55759 178.000
63.57754 178.000
63.59749 187.000
63.61743 185.000
63.63738 176.000
63.65733 180.000
63.67727 185.000
63.69722 189.000
63.71717 170.000
63.73712 180.000
63.75706 196.000
63.77701 177.000
63.79696 170.000
63.81690 190.000
63.83685 184.000
63.85680 182.000
63.87674 190.000
63.89669 189.000
63.91664 222.000
63.93658 185.000
63.95653 194.000
63.97648 222.000
63.99643 207.000
64.01637 199.000
64.03632 175.000
64.05627 205.000
64.07621 197.000
64.09616 206.000
64.11611 190.000
64.13605 204.000
64.15600 196.000
64.17595 213.000
64.19590 215.000
64.21584 209.000
64.23579 200.000
64.25574 168.000
64.27568 200.000
64.29563 185.000
64.31558 196.000
64.33552 194.000
64.35547 181.000
64.37542 171.000
64.39536 202.000
64.41531 190.000
64.43526 188.000
64.45521 163.000
64.47515 169.000
64.49510 183.000
64.51505 181.000
64.53499 177.000
64.55494 189.000
64.57489 149.000
64.59483 161.000
64.61478 174.000
64.63473 159.000
64.65468 166.000
64.67462 190.000
64.69457 156.000
64.71452 182.000
64.73446 191.000
64.75441 147.000
64.77436 166.000
64.79430 186.000
64.81425 195.000
64.83420 180.000
64.85414 178.000
64.87409 186.000
64.89404 211.000
64.91399 188.000
64.93393 204.000
64.95388 191.000
64.97383 209.000
64.99377 181.000
65.01372 174.000
65.03367 194.000
65.05361 186.000
65.07356 186.000
65.09351 202.000
65.11346 185.000
65.13340 207.000
65.15335 190.000
65.17330 203.000
65.19324 173.000
65.21319 176.000
65.23314 184.000
65.25308 182.000
65.27303 179.000
65.29298 180.000
65.31293 164.000
65.33287 184.000
65.35282 179.000
65.37277 203.000
65.39271 180.000
65.41266 204.000
65.43261 178.000
65.45255 179.000
65.47250 162.000
65.49245 170.000
65.51239 187.000
65.53234 191.000
65.55229 200.000
65.57224 186.000
65.59218 198.000
65.61213 200.000
65.63208 201.000
65.65202 192.000
65.67197 194.000
65.69192 202.000
65.71186 211.000
65.73181 190.000
65.75176 203.000
65.77171 201.000
65.79165 204.000
65.81160 190.000
65.83155 182.000
65.85149 179.000
65.87144 192.000
65.89139 169.000
65.91133 185.000
65.93128 192.000
65.95123 185.000
65.97117 189.000
65.99112 179.000
66.01107 198.000
66.03102 182.000
66.05096 183.000
66.07091 174.000
66.09086 190.000
66.11080 202.000
66.13075 184.000
66.15070 175.000
66.17064 195.000
66.19059 199.000
66.21054 172.000
66.23049 200.000
66.25043 177.000
66.27038 192.000
66.29033 185.000
66.31027 199.000
66.33022 179.000
66.35017 194.000
66.37011 208.000
66.39006 194.000
66.41001 172.000
66.42995 187.000
66.44990 180.000
66.46985 180.000
66.48980 195.000
66.50974 184.000
66.52969 175.000
66.54964 202.000
66.56958 191.000
66.58953 206.000
66.60948 193.000
66.62942 161.000
66.64937 175.000
66.66932 172.000
66.68927 162.000
66.70921 190.000
66.72916 183.000
66.74911 181.000
66.76905 176.000
66.78900 148.000
66.80895 179.000
66.82889 186.000
66.84884 150.000
66.86879 166.000
66.88874 153.000
66.90868 176.000
66.92863 168.000
66.94858 172.000
66.96852 166.000
66.98847 169.000
67.00842 153.000
67.02836 164.000
67.04831 148.000
67.06826 151.000
67.08820 194.000
67.10815 144.000
67.12810 165.000
67.14805 146.000
67.16799 170.000
67.18794 141.000
67.20789 176.000
67.22783 154.000
67.24778 154.000
67.26773 162.000
67.28767 146.000
67.30762 182.000
67.32757 158.000
67.34752 146.000
67.36746 173.000
67.38741 176.000
67.40736 154.000
67.42730 168.000
67.44725 155.000
67.46720 167.000
67.48714 149.000
67.50709 162.000
67.52704 152.000
67.54698 166.000
67.56693 150.000
67.58688 158.000
67.60683 151.000
67.62677 160.000
67.64672 139.000
67.66667 171.000
67.68661 175.000
67.70656 137.000
67.72651 161.000
67.74645 155.000
67.76640 152.000
67.78635 166.000
67.80630 138.000
67.82624 165.000
67.84619 179.000
67.86614 180.000
67.88608 183.000
67.90603 179.000
67.92598 189.000
67.94592 168.000
67.96587 165.000
67.98582 184.000
68.00576 165.000
68.02571 191.000
68.04566 180.000
68.06561 168.000
68.08555 169.000
68.10550 167.000
68.12545 173.000
68.14539 192.000
68.16534 174.000
68.18529 177.000
68.20523 172.000
68.22518 195.000
68.24513 210.000
68.26508 196.000
68.28502 184.000
68.30497 190.000
68.32492 208.000
68.34486 174.000
68.36481 199.000
68.38476 201.000
68.40470 180.000
68.42465 197.000
68.44460 196.000
68.46455 185.000
68.48449 188.000
68.50444 189.000
68.52439 184.000
68.54433 155.000
68.56428 196.000
68.58423 167.000
68.60417 159.000
68.62412 162.000
68.64407 173.000
68.66401 169.000
68.68396 169.000
68.70391 183.000
68.72386 169.000
68.74380 174.000
68.76375 172.000
68.78370 178.000
68.80364 148.000
68.82359 167.000
68.84354 171.000
68.86348 168.000
68.88343 152.000
68.90338 170.000
68.92333 146.000
68.94327 145.000
68.96322 187.000
68.98317 145.000
69.00311 126.000
69.02306 156.000
69.04301 146.000
69.06295 164.000
69.08290 160.000
69.10285 189.000
69.12279 162.000
69.14274 142.000
69.16269 146.000
69.18264 141.000
69.20258 159.000
69.22253 176.000
69.24248 155.000
69.26242 174.000
69.28237 167.000
69.30232 161.000
69.32226 163.000
69.34221 177.000
69.36216 162.000
69.38211 140.000
69.40205 166.000
69.42200 161.000
69.44195 169.000
69.46189 160.000
69.48184 164.000
69.50179 168.000
69.52173 166.000
69.54168 159.000
69.56163 144.000
69.58157 169.000
69.60152 170.000
69.62147 166.000
69.64142 149.000
69.66136 182.000
69.68131 151.000
69.70126 157.000
69.72120 148.000
69.74115 141.000
69.76110 166.000
69.78104 167.000
69.80099 171.000
69.82094 164.000
69.84089 164.000
69.86083 166.000
69.88078 155.000
69.90073 162.000
69.92067 146.000
69.94062 166.000
69.96057 182.000
69.98051 163.000
70.00046 161.000
70.02041 166.000
70.04035 152.000
70.06030 143.000
70.08025 175.000
70.10020 158.000
70.12014 148.000
70.14009 160.000
70.16004 149.000
70.17998 154.000
70.19993 153.000
70.21988 157.000
70.23982 148.000
70.25977 130.000
70.27972 166.000
70.29967 156.000
70.31961 151.000
70.33956 156.000
70.35951 155.000
70.37945 154.000
70.39940 144.000
70.41935 164.000
70.43929 140.000
70.45924 147.000
70.47919 145.000
70.49914 145.000
70.51908 181.000
70.53903 155.000
70.55898 159.000
70.57892 150.000
70.59887 155.000
70.61882 166.000
70.63876 166.000
70.65871 142.000
70.67866 156.000
70.69860 148.000
70.71855 162.000
70.73850 172.000
70.75845 173.000
70.77839 156.000
70.79834 130.000
70.81829 176.000
70.83823 158.000
70.85818 143.000
70.87813 153.000
70.89807 148.000
70.91802 162.000
70.93797 148.000
70.95792 167.000
70.97786 154.000
70.99781 177.000
71.01776 138.000
71.03770 158.000
71.05765 171.000
71.07760 157.000
71.09754 170.000
71.11749 158.000
71.13744 169.000
71.15738 168.000
71.17733 171.000
71.19728 158.000
71.21723 170.000
71.23717 164.000
71.25712 197.000
71.27707 162.000
71.29701 161.000
71.31696 171.000
71.33691 166.000
71.35685 160.000
71.37680 166.000
71.39675 158.000
71.41670 194.000
71.43664 183.000
71.45659 189.000
71.47654 166.000
71.49648 190.000
71.51643 165.000
71.53638 204.000
71.55632 216.000
71.57627 195.000
71.59622 185.000
71.61616 196.000
71.63611 190.000
71.65606 174.000
71.67601 193.000
71.69595 173.000
71.71590 177.000
71.73585 188.000
71.75579 182.000
71.77574 183.000
71.79569 169.000
71.81563 153.000
71.83558 163.000
71.85553 170.000
71.87548 169.000
71.89542 167.000
71.91537 172.000
71.93532 145.000
71.95526 166.000
71.97521 158.000
71.99516 163.000
72.01510 170.000
72.03505 165.000
72.05500 154.000
72.07495 157.000
72.09489 160.000
72.11484 161.000
72.13479 150.000
72.15473 159.000
72.17468 177.000
72.19463 163.000
72.21457 162.000
72.23452 129.000
72.25447 174.000
72.27441 185.000
72.29436 151.000
72.31431 180.000
72.33426 175.000
72.35420 181.000
72.37415 192.000
72.39410 175.000
72.41404 188.000
72.43399 193.000
72.45394 184.000
72.47388 191.000
72.49383 186.000
72.51378 200.000
72.53373 209.000
72.55367 177.000
72.57362 193.000
72.59357 199.000
72.61351 196.000
72.63346 196.000
72.65341 186.000
72.67335 189.000
72.69330 193.000
72.71325 191.000
72.73319 202.000
72.75314 191.000
72.77309 168.000
72.79304 195.000
72.81298 175.000
72.83293 178.000
72.85288 189.000
72.87282 180.000
72.89277 168.000
72.91272 175.000
72.93266 191.000
72.95261 179.000
72.97256 176.000
72.99251 203.000
73.01245 199.000
73.03240 180.000
73.05235 153.000
73.07229 188.000
73.09224 181.000
73.11219 177.000
73.13213 201.000
73.15208 179.000
73.17203 167.000
73.19197 207.000
73.21192 202.000
73.23187 189.000
73.25182 166.000
73.27176 173.000
73.29171 175.000
73.31166 177.000
73.33160 175.000
73.35155 159.000
73.37150 169.000
73.39144 181.000
73.41139 200.000
73.43134 193.000
73.45129 154.000
73.47123 175.000
73.49118 176.000
73.51113 169.000
73.53107 172.000
73.55102 168.000
73.57097 165.000
73.59091 207.000
73.61086 172.000
73.63081 188.000
73.65076 185.000
73.67070 186.000
73.69065 193.000
73.71060 191.000
73.73054 200.000
73.75049 194.000
73.77044 178.000
73.79038 181.000
73.81033 190.000
73.83028 203.000
73.85022 191.000
73.87017 186.000
73.89012 183.000
73.91007 179.000
73.93001 196.000
73.94996 177.000
73.96991 174.000
73.98985 196.000
74.00980 199.000
74.02975 174.000
74.04969 198.000
74.06964 189.000
74.08959 201.000
74.10954 205.000
74.12948 180.000
74.14943 190.000
74.16938 178.000
74.18932 176.000
74.20927 162.000
74.22922 189.000
74.24916 186.000
74.26911 190.000
74.28906 196.000
74.30900 206.000
74.32895 190.000
74.34890 194.000
74.36885 192.000
74.38879 214.000
74.40874 183.000
74.42869 206.000
74.44863 201.000
74.46858 213.000
74.48853 222.000
74.50847 275.000
74.52842 279.000
74.54837 252.000
74.56832 316.000
74.58826 338.000
74.60821 329.000
74.62816 297.000
74.64810 292.000
74.66805 280.000
74.68800 269.000
74.70794 276.000
74.72789 241.000
74.74784 294.000
74.76778 290.000
74.78773 299.000
74.80768 266.000
74.82763 289.000
74.84757 299.000
74.86752 287.000
74.88747 255.000
74.90741 238.000
74.92736 279.000
74.94731 253.000
74.96725 264.000
74.98720 256.000
75.00715 251.000
75.02710 235.000
75.04704 293.000
75.06699 271.000
75.08694 268.000
75.10688 265.000
75.12683 290.000
75.14678 264.000
75.16672 288.000
75.18667 302.000
75.20662 278.000
75.22657 269.000
75.24651 275.000
75.26646 275.000
75.28641 236.000
75.30635 263.000
75.32630 240.000
75.34625 247.000
75.36619 246.000
75.38614 255.000
75.40609 238.000
75.42603 246.000
75.44598 245.000
75.46593 237.000
75.48588 219.000
75.50582 220.000
75.52577 227.000
75.54572 229.000
75.56566 254.000
75.58561 227.000
75.60556 244.000
75.62550 245.000
75.64545 193.000
75.66540 223.000
75.68535 210.000
75.70529 212.000
75.72524 183.000
75.74519 215.000
75.76513 211.000
75.78508 203.000
75.80503 199.000
75.82497 206.000
75.84492 185.000
75.86487 185.000
75.88481 198.000
75.90476 195.000
75.92471 148.000
75.94466 196.000
75.96460 164.000
75.98455 181.000
76.00450 170.000
76.02444 160.000
76.04439 155.000
76.06434 168.000
76.08428 167.000
76.10423 147.000
76.12418 153.000
76.14413 160.000
76.16407 159.000
76.18402 168.000
76.20397 164.000
76.22391 141.000
76.24386 161.000
76.26381 188.000
76.28375 177.000
76.30370 162.000
76.32365 177.000
76.34359 156.000
76.36354 165.000
76.38349 163.000
76.40344 153.000
76.42338 149.000
76.44333 144.000
76.46328 178.000
76.48322 151.000
76.50317 153.000
76.52312 143.000
76.54306 135.000
76.56301 170.000
76.58296 165.000
76.60291 135.000
76.62285 183.000
76.64280 164.000
76.66275 149.000
76.68269 174.000
76.70264 163.000
76.72259 159.000
76.74253 151.000
76.76248 165.000
76.78243 150.000
76.80238 147.000
76.82232 173.000
76.84227 158.000
76.86222 136.000
76.88216 137.000
76.90211 164.000
76.92206 170.000
76.94200 169.000
76.96195 173.000
76.98190 160.000
77.00184 165.000
77.02179 151.000
77.04174 168.000
77.06169 161.000
77.08163 158.000
77.10158 148.000
77.12153 145.000
77.14147 165.000
77.16142 156.000
77.18137 157.000
77.20131 168.000
77.22126 176.000
77.24121 167.000
77.26116 157.000
77.28110 169.000
77.30105 166.000
77.32100 157.000
77.34094 178.000
77.36089 209.000
77.38084 181.000
77.40078 172.000
77.42073 180.000
77.44068 182.000
77.46062 181.000
77.48057 182.000
77.50052 211.000
77.52047 178.000
77.54041 184.000
77.56036 187.000
77.58031 191.000
77.60025 199.000
77.62020 190.000
77.64015 176.000
77.66009 200.000
77.68004 188.000
77.69999 205.000
77.71994 186.000
77.73988 191.000
77.75983 181.000
77.77978 191.000
77.79972 200.000
77.81967 182.000
77.83962 168.000
77.85956 199.000
77.87951 169.000
77.89946 186.000
77.91940 179.000
77.93935 151.000
77.95930 186.000
77.97925 192.000
77.99919 182.000
78.01914 200.000
78.03909 162.000
78.05903 160.000
78.07898 178.000
78.09893 163.000
78.11887 155.000
78.13882 176.000
78.15877 157.000
78.17872 186.000
78.19866 196.000
78.21861 187.000
78.23856 175.000
78.25850 145.000
78.27845 168.000
78.29840 176.000
78.31834 169.000
78.33829 150.000
78.35824 179.000
78.37819 176.000
78.39813 202.000
78.41808 178.000
78.43803 198.000
78.45797 156.000
78.47792 191.000
78.49787 195.000
78.51781 218.000
78.53776 167.000
78.55771 162.000
78.57765 195.000
78.59760 189.000
78.61755 196.000
78.63750 200.000
78.65744 203.000
78.67739 198.000
78.69734 197.000
78.71728 222.000
78.73723 204.000
78.75718 209.000
78.77712 201.000
78.79707 217.000
78.81702 222.000
78.83697 202.000
78.85691 223.000
78.87686 240.000
78.89681 244.000
78.91675 194.000
78.93670 245.000
78.95665 231.000
78.97659 233.000
78.99654 240.000
79.01649 241.000
79.03643 233.000
79.05638 226.000
79.07633 288.000
79.09628 251.000
79.11622 252.000
79.13617 272.000
79.15612 263.000
79.17606 241.000
79.19601 223.000
79.21596 205.000
79.23590 246.000
79.25585 239.000
79.27580 246.000
79.29575 201.000
79.31569 206.000
79.33564 191.000
79.35559 207.000
79.37553 207.000
79.39548 184.000
79.41543 210.000
79.43537 199.000
79.45532 219.000
79.47527 204.000
79.49521 161.000
79.51516 177.000
79.53511 192.000
79.55506 211.000
79.57500 209.000
79.59495 193.000
79.61490 174.000
79.63484 212.000
79.65479 209.000
79.67474 206.000
79.69468 194.000
79.71463 194.000
79.73458 188.000
79.75453 186.000
79.77447 188.000
79.79442 194.000
79.81437 205.000
79.83431 195.000
79.85426 161.000
79.87421 163.000
79.89415 152.000
79.91410 182.000
79.93405 147.000
79.95399 140.000
79.97394 146.000
79.99389 151.000
80.01384 161.000
80.03378 155.000
80.05373 187.000
80.07368 159.000
80.09362 157.000
80.11357 177.000
80.13352 145.000
80.15346 128.000
80.17341 172.000
80.19336 148.000
80.21331 153.000
80.23325 166.000
80.25320 167.000
80.27315 148.000
80.29309 146.000
80.31304 163.000
80.33299 163.000
80.35293 165.000
80.37288 162.000
80.39283 169.000
80.41278 149.000
80.43272 160.000
80.45267 180.000
80.47262 144.000
80.49256 168.000
80.51251 155.000
80.53246 152.000
80.55240 157.000
80.57235 167.000
80.59230 157.000
80.61224 133.000
80.63219 160.000
80.65214 176.000
80.67209 144.000
80.69203 142.000
80.71198 169.000
80.73193 162.000
80.75187 132.000
80.77182 167.000
80.79177 129.000
80.81171 159.000
80.83166 152.000
80.85161 138.000
80.87156 154.000
80.89150 146.000
80.91145 150.000
80.93140 153.000
80.95134 177.000
80.97129 134.000
80.99124 170.000
81.01118 173.000
81.03113 157.000
81.05108 156.000
81.07102 145.000
81.09097 159.000
81.11092 133.000
81.13087 164.000
81.15081 158.000
81.17076 153.000
81.19071 160.000
81.21065 137.000
81.23060 143.000
81.25055 157.000
81.27049 151.000
81.29044 127.000
81.31039 153.000
81.33034 143.000
81.35028 169.000
81.37023 151.000
81.39018 138.000
81.41012 151.000
81.43007 146.000
81.45002 154.000
81.46996 161.000
81.48991 152.000
81.50986 130.000
81.52980 158.000
81.54975 157.000
81.56970 142.000
81.58965 138.000
81.60959 142.000
81.62954 171.000
81.64949 155.000
81.66943 140.000
81.68938 155.000
81.70933 143.000
81.72927 149.000
81.74922 160.000
81.76917 143.000
81.78912 164.000
81.80906 147.000
81.82901 156.000
81.84896 164.000
81.86890 150.000
81.88885 150.000
81.90880 161.000
81.92874 142.000
81.94869 154.000
81.96864 162.000
81.98859 177.000
82.00853 157.000
82.02848 157.000
82.04843 146.000
82.06837 150.000
82.08832 155.000
82.10827 130.000
82.12821 150.000
82.14816 160.000
82.16811 160.000
82.18805 155.000
82.20800 155.000
82.22795 156.000
82.24790 171.000
82.26784 143.000
82.28779 134.000
82.30774 130.000
82.32768 182.000
82.34763 156.000
82.36758 157.000
82.38752 165.000
82.40747 151.000
82.42742 158.000
82.44737 160.000
82.46731 153.000
82.48726 164.000
82.50721 143.000
82.52715 197.000
82.54710 159.000
82.56705 159.000
82.58699 162.000
82.60694 171.000
82.62689 180.000
82.64683 163.000
82.66678 148.000
82.68673 178.000
82.70668 160.000
82.72662 154.000
82.74657 172.000
82.76652 164.000
82.78646 138.000
82.80641 156.000
82.82636 174.000
82.84630 171.000
82.86625 153.000
82.88620 152.000
82.90615 155.000
82.92609 182.000
82.94604 136.000
82.96599 156.000
82.98593 168.000
83.00588 150.000
83.02583 166.000
83.04577 150.000
83.06572 151.000
83.08567 178.000
83.10561 153.000
83.12556 137.000
83.14551 161.000
83.16546 168.000
83.18540 144.000
83.20535 154.000
83.22530 163.000
83.24524 155.000
83.26519 171.000
83.28514 170.000
83.30508 172.000
83.32503 155.000
83.34498 179.000
83.36493 160.000
83.38487 170.000
83.40482 169.000
83.42477 136.000
83.44471 144.000
83.46466 163.000
83.48461 151.000
83.50455 145.000
83.52450 146.000
83.54445 131.000
83.56440 139.000
83.58434 130.000
83.60429 155.000
83.62424 155.000
83.64418 151.000
83.66413 144.000
83.68408 162.000
83.70402 176.000
83.72397 162.000
83.74392 151.000
83.76386 153.000
83.78381 163.000
83.80376 145.000
83.82371 147.000
83.84365 144.000
83.86360 149.000
83.88355 145.000
83.90349 151.000
83.92344 157.000
83.94339 143.000
83.96333 140.000
83.98328 155.000
84.00323 161.000
84.02318 168.000
84.04312 152.000
84.06307 149.000
84.08302 158.000
84.10296 153.000
84.12291 165.000
84.14286 145.000
84.16280 142.000
84.18275 157.000
84.20270 162.000
84.22264 178.000
84.24259 169.000
84.26254 148.000
84.28249 163.000
84.30243 138.000
84.32238 151.000
84.34233 140.000
84.36227 179.000
84.38222 150.000
84.40217 177.000
84.42211 176.000
84.44206 167.000
84.46201 155.000
84.48196 175.000
84.50190 196.000
84.52185 182.000
84.54180 177.000
84.56174 166.000
84.58169 159.000
84.60164 157.000
84.62158 167.000
84.64153 141.000
84.66148 178.000
84.68142 167.000
84.70137 154.000
84.72132 146.000
84.74127 157.000
84.76121 187.000
84.78116 168.000
84.80111 144.000
84.82105 163.000
84.84100 154.000
84.86095 161.000
84.88089 160.000
84.90084 149.000
84.92079 157.000
84.94074 175.000
84.96068 147.000
84.98063 161.000
85.00058 142.000
85.02052 163.000
85.04047 130.000
85.06042 176.000
85.08036 158.000
85.10031 153.000
85.12026 140.000
85.14021 155.000
85.16015 163.000
85.18010 149.000
85.20005 144.000
85.21999 156.000
85.23994 150.000
85.25989 157.000
85.27983 158.000
85.29978 134.000
85.31973 134.000
85.33967 153.000
85.35962 165.000
85.37957 133.000
85.39952 151.000
85.41946 133.000
85.43941 156.000
85.45936 152.000
85.47930 156.000
85.49925 145.000
85.51920 146.000
85.53914 178.000
85.55909 149.000
85.57904 150.000
85.59899 152.000
85.61893 153.000
85.63888 160.000
85.65883 157.000
85.67877 166.000
85.69872 131.000
85.71867 145.000
85.73861 158.000
85.75856 162.000
85.77851 157.000
85.79845 153.000
85.81840 131.000
85.83835 136.000
85.85830 153.000
85.87824 174.000
85.89819 149.000
85.91814 146.000
85.93808 143.000
85.95803 151.000
85.97798 132.000
85.99792 155.000
86.01787 151.000
86.03782 164.000
86.05777 156.000
86.07771 160.000
86.09766 155.000
86.11761 163.000
86.13755 145.000
86.15750 159.000
86.17745 174.000
86.19739 142.000
86.21734 164.000
86.23729 174.000
86.25723 163.000
86.27718 139.000
86.29713 160.000
86.31708 157.000
86.33702 159.000
86.35697 140.000
86.37692 161.000
86.39686 143.000
86.41681 167.000
86.43676 147.000
86.45670 179.000
86.47665 171.000
86.49660 148.000
86.51655 162.000
86.53649 160.000
86.55644 162.000
86.57639 179.000
86.59633 167.000
86.61628 154.000
86.63623 178.000
86.65617 168.000
86.67612 135.000
86.69607 163.000
86.71602 176.000
86.73596 162.000
86.75591 157.000
86.77586 143.000
86.79580 138.000
86.81575 134.000
86.83570 160.000
86.85564 134.000
86.87559 166.000
86.89554 158.000
86.91548 167.000
86.93543 156.000
86.95538 157.000
86.97533 179.000
86.99527 154.000
87.01522 154.000
87.03517 147.000
87.05511 166.000
87.07506 170.000
87.09501 158.000
87.11495 146.000
87.13490 165.000
87.15485 164.000
87.17480 171.000
87.19474 159.000
87.21469 160.000
87.23464 173.000
87.25458 144.000
87.27453 163.000
87.29448 147.000
87.31442 180.000
87.33437 182.000
87.35432 159.000
87.37426 194.000
87.39421 173.000
87.41416 180.000
87.43411 207.000
87.45405 204.000
87.47400 223.000
87.49395 197.000
87.51389 189.000
87.53384 183.000
87.55379 175.000
87.57373 188.000
87.59368 185.000
87.61363 200.000
87.63358 180.000
87.65352 169.000
87.67347 166.000
87.69342 179.000
87.71336 174.000
87.73331 190.000
87.75326 191.000
87.77320 168.000
87.79315 175.000
87.81310 171.000
87.83304 167.000
87.85299 168.000
87.87294 164.000
87.89289 148.000
87.91283 176.000
87.93278 164.000
87.95273 173.000
87.97267 160.000
87.99262 160.000
88.01257 181.000
88.03251 168.000
88.05246 173.000
88.07241 164.000
88.09236 151.000
88.11230 161.000
88.13225 159.000
88.15220 131.000
88.17214 161.000
88.19209 136.000
88.21204 162.000
88.23198 157.000
88.25193 142.000
88.27188 174.000
88.29183 148.000
88.31177 156.000
88.33172 141.000
88.35167 164.000
88.37161 163.000
88.39156 162.000
88.41151 152.000
88.43145 160.000
88.45140 136.000
88.47135 173.000
88.49129 155.000
88.51124 137.000
88.53119 153.000
88.55114 159.000
88.57108 153.000
88.59103 162.000
88.61098 156.000
88.63092 155.000
88.65087 157.000
88.67082 152.000
88.69076 143.000
88.71071 133.000
88.73066 177.000
88.75061 152.000
88.77055 153.000
88.79050 134.000
88.81045 157.000
88.83039 144.000
88.85034 158.000
88.87029 142.000
88.89023 156.000
88.91018 151.000
88.93013 137.000
88.95007 138.000
88.97002 164.000
88.98997 161.000
89.00992 152.000
89.02986 153.000
89.04981 160.000
89.06976 171.000
89.08970 158.000
89.10965 145.000
89.12960 147.000
89.14954 161.000
89.16949 162.000
89.18944 174.000
89.20939 158.000
89.22933 153.000
89.24928 143.000
89.26923 158.000
89.28917 155.000
89.30912 158.000
89.32907 146.000
89.34901 162.000
89.36896 163.000
89.38891 165.000
89.40885 151.000
89.42880 166.000
89.44875 162.000
89.46870 159.000
89.48864 168.000
89.50859 138.000
89.52854 146.000
89.54848 156.000
89.56843 147.000
89.58838 157.000
89.60832 143.000
89.62827 156.000
89.64822 165.000
89.66817 149.000
89.68811 179.000
89.70806 149.000
89.72801 161.000
89.74795 176.000
89.76790 158.000
89.78785 145.000
89.80779 167.000
89.82774 155.000
89.84769 148.000
89.86764 177.000
89.88758 138.000
89.90753 149.000
89.92748 161.000
89.94742 146.000
89.96737 179.000
89.98732 158.000
90.00726 185.000
