10.00000 221.000
10.01995 190.000
10.03989 192.000
10.05984 220.000
10.07979 227.000
10.09973 207.000
10.11968 205.000
10.13963 208.000
10.15958 210.000
10.17952 190.000
10.19947 207.000
10.21942 183.000
10.23936 186.000
10.25931 189.000
10.27926 221.000
10.29920 173.000
10.31915 207.000
10.33910 202.000
10.35905 204.000
10.37899 217.000
10.39894 173.000
10.41889 172.000
10.43883 203.000
10.45878 231.000
10.47873 202.000
10.49867 216.000
10.51862 192.000
10.53857 201.000
10.55851 191.000
10.57846 211.000
10.59841 202.000
10.61836 189.000
10.63830 194.000
10.65825 205.000
10.67820 227.000
10.69814 201.000
10.71809 216.000
10.73804 182.000
10.75798 220.000
10.77793 191.000
10.79788 204.000
10.81783 203.000
10.83777 216.000
10.85772 217.000
10.87767 198.000
10.89761 201.000
10.91756 184.000
10.93751 203.000
10.95745 163.000
10.97740 188.000
10.99735 200.000
11.01730 208.000
11.03724 205.000
11.05719 220.000
11.07714 183.000
11.09708 191.000
11.11703 199.000
11.13698 217.000
11.15692 210.000
11.17687 213.000
11.19682 211.000
11.21676 220.000
11.23671 210.000
11.25666 200.000
11.27661 203.000
11.29655 206.000
11.31650 199.000
11.33645 213.000
11.35639 203.000
11.37634 229.000
11.39629 203.000
11.41623 204.000
11.43618 206.000
11.45613 175.000
11.47608 199.000
11.49602 215.000
11.51597 201.000
11.53592 189.000
11.55586 216.000
11.57581 215.000
11.59576 207.000
11.61570 203.000
11.63565 200.000
11.65560 200.000
11.67554 206.000
11.69549 192.000
11.71544 190.000
11.73539 210.000
11.75533 182.000
11.77528 191.000
11.79523 200.000
11.81517 210.000
11.83512 222.000
11.85507 214.000
11.87501 189.000
11.89496 224.000
11.91491 190.000
11.93486 207.000
11.95480 194.000
11.97475 213.000
11.99470 213.000
12.01464 211.000
12.03459 177.000
12.05454 185.000
12.07448 232.000
12.09443 199.000
12.11438 194.000
12.13432 199.000
12.15427 186.000
12.17422 212.000
12.19417 167.000
12.21411 208.000
12.23406 222.000
12.25401 201.000
12.27395 200.000
12.29390 179.000
12.31385 211.000
12.33379 225.000
12.35374 206.000
12.37369 198.000
12.39364 191.000
12.41358 219.000
12.43353 198.000
12.45348 187.000
12.47342 182.000
12.49337 194.000
12.51332 189.000
12.53326 196.000
12.55321 218.000
12.57316 192.000
12.59311 212.000
12.61305 216.000
12.63300 184.000
12.65295 177.000
12.67289 197.000
12.69284 190.000
12.71279 190.000
12.73273 211.000
12.75268 182.000
12.77263 197.000
12.79257 179.000
12.81252 188.000
12.83247 195.000
12.85242 196.000
12.87236 198.000
12.89231 200.000
12.91226 188.000
12.93220 174.000
12.95215 197.000
12.97210 211.000
12.99204 218.000
13.01199 188.000
13.03194 207.000
13.05189 190.000
13.07183 195.000
13.09178 207.000
13.11173 190.000
13.13167 194.000
13.15162 222.000
13.17157 186.000
13.19151 223.000
13.21146 185.000
13.23141 225.000
13.25135 200.000
13.27130 215.000
13.29125 183.000
13.31120 202.000
13.33114 217.000
13.35109 176.000
13.37104 209.000
13.39098 204.000
13.41093 231.000
13.43088 214.000
13.45082 218.000
13.47077 183.000
13.49072 191.000
13.51067 230.000
13.53061 200.000
13.55056 200.000
13.57051 203.000
13.59045 203.000
13.61040 199.000
13.63035 214.000
13.65029 204.000
13.67024 206.000
13.69019 195.000
13.71013 213.000
13.73008 202.000
13.75003 184.000
13.76998 196.000
13.78992 190.000
13.80987 193.000
13.82982 228.000
13.84976 208.000
13.86971 194.000
13.88966 200.000
13.90960 179.000
13.92955 242.000
13.94950 171.000
13.96945 195.000
13.98939 196.000
14.00934 194.000
14.02929 188.000
14.04923 207.000
14.06918 178.000
14.08913 190.000
14.10907 196.000
14.12902 202.000
14.14897 203.000
14.16892 225.000
14.18886 207.000
14.20881 199.000
14.22876 198.000
14.24870 239.000
14.26865 221.000
14.28860 223.000
14.30854 235.000
14.32849 225.000
14.34844 225.000
14.36838 190.000
14.38833 220.000
14.40828 200.000
14.42823 176.000
14.44817 191.000
14.46812 213.000
14.48807 240.000
14.50801 217.000
14.52796 217.000
14.54791 193.000
14.56785 189.000
14.58780 187.000
14.60775 205.000
14.62770 182.000
14.64764 218.000
14.66759 206.000
14.68754 190.000
14.70748 216.000
14.72743 196.000
14.74738 231.000
14.76732 208.000
14.78727 189.000
14.80722 230.000
14.82716 234.000
14.84711 246.000
14.86706 208.000
14.88701 237.000
14.90695 212.000
14.92690 224.000
14.94685 214.000
14.96679 220.000
14.98674 218.000
15.00669 250.000
15.02663 236.000
15.04658 221.000
15.06653 266.000
15.08648 276.000
15.10642 281.000
15.12637 253.000
15.14632 308.000
15.16626 322.000
15.18621 306.000
15.20616 300.000
15.22610 270.000
15.24605 277.000
15.26600 295.000
15.28594 284.000
15.30589 300.000
15.32584 298.000
15.34579 263.000
15.36573 291.000
15.38568 322.000
15.40563 325.000
15.42557 291.000
15.44552 317.000
15.46547 318.000
15.48541 313.000
15.50536 325.000
15.52531 352.000
15.54526 382.000
15.56520 384.000
15.58515 380.000
15.60510 463.000
15.62504 507.000
15.64499 602.000
15.66494 779.000
15.68488 1041.000
15.70483 1532.000
15.72478 2446.000
15.74472 4065.000
15.76467 6386.000
15.78462 9393.000
15.80457 12496.000
15.82451 15869.000
15.84446 17630.000
15.86441 16424.000
15.88435 12589.000
15.90430 8715.000
15.92425 5085.000
15.94419 2923.000
15.96414 1564.000
15.98409 1003.000
16.00404 694.000
16.02398 532.000
16.04393 540.000
16.06388 474.000
16.08382 521.000
16.10377 511.000
16.12372 483.000
16.14366 519.000
16.16361 499.000
16.18356 475.000
16.20351 429.000
16.22345 376.000
16.24340 341.000
16.26335 307.000
16.28329 303.000
16.30324 299.000
16.32319 273.000
16.34313 234.000
16.36308 284.000
16.38303 253.000
16.40297 238.000
16.42292 269.000
16.44287 254.000
16.46282 236.000
16.48276 239.000
16.50271 285.000
16.52266 251.000
16.54260 254.000
16.56255 248.000
16.58250 257.000
16.60244 225.000
16.62239 225.000
16.64234 240.000
16.66229 242.000
16.68223 219.000
16.70218 218.000
16.72213 218.000
16.74207 222.000
16.76202 203.000
16.78197 247.000
16.80191 252.000
16.82186 251.000
16.84181 237.000
16.86175 263.000
16.88170 252.000
16.90165 214.000
16.92160 237.000
16.94154 212.000
16.96149 218.000
16.98144 198.000
17.00138 213.000
17.02133 192.000
17.04128 212.000
17.06122 224.000
17.08117 213.000
17.10112 216.000
17.12107 200.000
17.14101 214.000
17.16096 180.000
17.18091 211.000
17.20085 193.000
17.22080 209.000
17.24075 178.000
17.26069 211.000
17.28064 194.000
17.30059 194.000
17.32053 202.000
17.34048 203.000
17.36043 189.000
17.38038 197.000
17.40032 177.000
17.42027 212.000
17.44022 216.000
17.46016 202.000
17.48011 195.000
17.50006 198.000
17.52000 200.000
17.53995 181.000
17.55990 233.000
17.57985 191.000
17.59979 211.000
17.61974 205.000
17.63969 198.000
17.65963 171.000
17.67958 220.000
17.69953 211.000
17.71947 189.000
17.73942 190.000
17.75937 180.000
17.77932 210.000
17.79926 200.000
17.81921 193.000
17.83916 192.000
17.85910 250.000
17.87905 190.000
17.89900 184.000
17.91894 202.000
17.93889 189.000
17.95884 209.000
17.97878 224.000
17.99873 203.000
18.01868 219.000
18.03863 195.000
18.05857 216.000
18.07852 191.000
18.09847 208.000
18.11841 193.000
18.13836 218.000
18.15831 190.000
18.17825 202.000
18.19820 219.000
18.21815 210.000
18.23810 189.000
18.25804 222.000
18.27799 200.000
18.29794 198.000
18.31788 202.000
18.33783 203.000
18.35778 213.000
18.37772 207.000
18.39767 196.000
18.41762 179.000
18.43756 216.000
18.45751 210.000
18.47746 169.000
18.49741 209.000
18.51735 200.000
18.53730 193.000
18.55725 194.000
18.57719 193.000
18.59714 191.000
18.61709 190.000
18.63703 195.000
18.65698 207.000
18.67693 227.000
18.69688 190.000
18.71682 193.000
18.73677 211.000
18.75672 183.000
18.77666 211.000
18.79661 185.000
18.81656 215.000
18.83650 203.000
18.85645 194.000
18.87640 188.000
18.89634 209.000
18.91629 191.000
18.93624 218.000
18.95619 203.000
18.97613 180.000
18.99608 197.000
19.01603 198.000
19.03597 232.000
19.05592 207.000
19.07587 178.000
19.09581 193.000
19.11576 204.000
19.13571 204.000
19.15566 197.000
19.17560 176.000
19.19555 204.000
19.21550 195.000
19.23544 213.000
19.25539 189.000
19.27534 202.000
19.29528 189.000
19.31523 214.000
19.33518 202.000
19.35513 206.000
19.37507 195.000
19.39502 176.000
19.41497 200.000
19.43491 217.000
19.45486 201.000
19.47481 193.000
19.49475 214.000
19.51470 199.000
19.53465 181.000
19.55459 209.000
19.57454 217.000
19.59449 191.000
19.61444 221.000
19.63438 206.000
19.65433 194.000
19.67428 209.000
19.69422 180.000
19.71417 207.000
19.73412 194.000
19.75406 211.000
19.77401 218.000
19.79396 204.000
19.81391 190.000
19.83385 220.000
19.85380 193.000
19.87375 190.000
19.89369 212.000
19.91364 224.000
19.93359 184.000
19.95353 233.000
19.97348 203.000
19.99343 201.000
20.01337 195.000
20.03332 194.000
20.05327 212.000
20.07322 187.000
20.09316 213.000
20.11311 175.000
20.13306 200.000
20.15300 194.000
20.17295 201.000
20.19290 210.000
20.21284 206.000
20.23279 203.000
20.25274 200.000
20.27269 192.000
20.29263 195.000
20.31258 248.000
20.33253 169.000
20.35247 191.000
20.37242 199.000
20.39237 205.000
20.41231 210.000
20.43226 204.000
20.45221 232.000
20.47215 213.000
20.49210 211.000
20.51205 208.000
20.53200 220.000
20.55194 198.000
20.57189 211.000
20.59184 215.000
20.61178 206.000
20.63173 220.000
20.65168 225.000
20.67162 186.000
20.69157 207.000
20.71152 210.000
20.73147 226.000
20.75141 245.000
20.77136 204.000
20.79131 226.000
20.81125 212.000
20.83120 221.000
20.85115 232.000
20.87109 224.000
20.89104 273.000
20.91099 274.000
20.93094 300.000
20.95088 264.000
20.97083 250.000
20.99078 291.000
21.01072 270.000
21.03067 270.000
21.05062 287.000
21.07056 266.000
21.09051 267.000
21.11046 252.000
21.13040 237.000
21.15035 237.000
21.17030 221.000
21.19025 199.000
21.21019 213.000
21.23014 206.000
21.25009 214.000
21.27003 200.000
21.28998 211.000
21.30993 187.000
21.32987 207.000
21.34982 172.000
21.36977 214.000
21.38972 190.000
21.40966 210.000
21.42961 227.000
21.44956 187.000
21.46950 196.000
21.48945 197.000
21.50940 201.000
21.52934 193.000
21.54929 208.000
21.56924 202.000
21.58918 210.000
21.60913 206.000
21.62908 202.000
21.64903 208.000
21.66897 188.000
21.68892 229.000
21.70887 220.000
21.72881 227.000
21.74876 206.000
21.76871 226.000
21.78865 210.000
21.80860 203.000
21.82855 214.000
21.84850 196.000
21.86844 213.000
21.88839 204.000
21.90834 204.000
21.92828 192.000
21.94823 199.000
21.96818 214.000
21.98812 187.000
22.00807 213.000
22.02802 204.000
22.04796 212.000
22.06791 193.000
22.08786 200.000
22.10781 194.000
22.12775 188.000
22.14770 216.000
22.16765 191.000
22.18759 215.000
22.20754 203.000
22.22749 216.000
22.24743 200.000
22.26738 208.000
22.28733 220.000
22.30728 183.000
22.32722 204.000
22.34717 226.000
22.36712 172.000
22.38706 208.000
22.40701 207.000
22.42696 187.000
22.44690 213.000
22.46685 216.000
22.48680 230.000
22.50675 212.000
22.52669 202.000
22.54664 214.000
22.56659 199.000
22.58653 213.000
22.60648 177.000
22.62643 201.000
22.64637 189.000
22.66632 199.000
22.68627 193.000
22.70621 193.000
22.72616 216.000
22.74611 217.000
22.76606 167.000
22.78600 202.000
22.80595 196.000
22.82590 215.000
22.84584 204.000
22.86579 199.000
22.88574 199.000
22.90568 194.000
22.92563 179.000
22.94558 210.000
22.96553 222.000
22.98547 203.000
23.00542 191.000
23.02537 180.000
23.04531 220.000
23.06526 202.000
23.08521 193.000
23.10515 183.000
23.12510 197.000
23.14505 194.000
23.16499 209.000
23.18494 183.000
23.20489 211.000
23.22484 172.000
23.24478 227.000
23.26473 195.000
23.28468 198.000
23.30462 199.000
23.32457 230.000
23.34452 205.000
23.36446 205.000
23.38441 202.000
23.40436 202.000
23.42431 198.000
23.44425 174.000
23.46420 205.000
23.48415 192.000
23.50409 209.000
23.52404 226.000
23.54399 207.000
23.56393 197.000
23.58388 221.000
23.60383 206.000
23.62377 207.000
23.64372 188.000
23.66367 247.000
23.68362 223.000
23.70356 203.000
23.72351 236.000
23.74346 220.000
23.76340 218.000
23.78335 194.000
23.80330 208.000
23.82324 218.000
23.84319 170.000
23.86314 196.000
23.88309 202.000
23.90303 188.000
23.92298 183.000
23.94293 186.000
23.96287 195.000
23.98282 207.000
24.00277 195.000
24.02271 206.000
24.04266 215.000
24.06261 188.000
24.08256 227.000
24.10250 235.000
24.12245 198.000
24.14240 229.000
24.16234 202.000
24.18229 200.000
24.20224 216.000
24.22218 233.000
24.24213 209.000
24.26208 188.000
24.28202 221.000
24.30197 196.000
24.32192 226.000
24.34187 192.000
24.36181 224.000
24.38176 220.000
24.40171 204.000
24.42165 188.000
24.44160 209.000
24.46155 207.000
24.48149 193.000
24.50144 214.000
24.52139 204.000
24.54134 202.000
24.56128 208.000
24.58123 185.000
24.60118 226.000
24.62112 199.000
24.64107 221.000
24.66102 242.000
24.68096 201.000
24.70091 210.000
24.72086 206.000
24.74080 214.000
24.76075 210.000
24.78070 186.000
24.80065 204.000
24.82059 219.000
24.84054 228.000
24.86049 220.000
24.88043 212.000
24.90038 201.000
24.92033 244.000
24.94027 211.000
24.96022 200.000
24.98017 243.000
25.00012 231.000
25.02006 237.000
25.04001 227.000
25.05996 237.000
25.07990 240.000
25.09985 190.000
25.11980 206.000
25.13974 213.000
25.15969 231.000
25.17964 225.000
25.19958 234.000
25.21953 221.000
25.23948 223.000
25.25943 229.000
25.27937 207.000
25.29932 198.000
25.31927 220.000
25.33921 196.000
25.35916 224.000
25.37911 193.000
25.39905 211.000
25.41900 222.000
25.43895 211.000
25.45890 213.000
25.47884 205.000
25.49879 202.000
25.51874 198.000
25.53868 207.000
25.55863 203.000
25.57858 209.000
25.59852 187.000
25.61847 216.000
25.63842 220.000
25.65837 205.000
25.67831 208.000
25.69826 216.000
25.71821 179.000
25.73815 215.000
25.75810 216.000
25.77805 232.000
25.79799 214.000
25.81794 185.000
25.83789 194.000
25.85783 239.000
25.87778 207.000
25.89773 218.000
25.91768 205.000
25.93762 222.000
25.95757 222.000
25.97752 210.000
25.99746 210.000
26.01741 239.000
26.03736 215.000
26.05730 218.000
26.07725 181.000
26.09720 193.000
26.11715 180.000
26.13709 202.000
26.15704 201.000
26.17699 228.000
26.19693 196.000
26.21688 223.000
26.23683 241.000
26.25677 231.000
26.27672 232.000
26.29667 190.000
26.31661 231.000
26.33656 224.000
26.35651 209.000
26.37646 196.000
26.39640 235.000
26.41635 198.000
26.43630 200.000
26.45624 211.000
26.47619 218.000
26.49614 213.000
26.51608 203.000
26.53603 224.000
26.55598 212.000
26.57593 220.000
26.59587 216.000
26.61582 220.000
26.63577 209.000
26.65571 219.000
26.67566 171.000
26.69561 206.000
26.71555 220.000
26.73550 216.000
26.75545 230.000
26.77539 198.000
26.79534 208.000
26.81529 199.000
26.83524 221.000
26.85518 203.000
26.87513 189.000
26.89508 230.000
26.91502 225.000
26.93497 245.000
26.95492 230.000
26.97486 222.000
26.99481 209.000
27.01476 259.000
27.03471 199.000
27.05465 224.000
27.07460 233.000
27.09455 189.000
27.11449 233.000
27.13444 221.000
27.15439 223.000
27.17433 205.000
27.19428 235.000
27.21423 239.000
27.23417 217.000
27.25412 230.000
27.27407 244.000
27.29402 207.000
27.31396 219.000
27.33391 214.000
27.35386 230.000
27.37380 226.000
27.39375 200.000
27.41370 208.000
27.43364 206.000
27.45359 213.000
27.47354 223.000
27.49349 238.000
27.51343 200.000
27.53338 252.000
27.55333 225.000
27.57327 223.000
27.59322 219.000
27.61317 227.000
27.63311 196.000
27.65306 227.000
27.67301 251.000
27.69296 205.000
27.71290 215.000
27.73285 216.000
27.75280 194.000
27.77274 226.000
27.79269 187.000
27.81264 215.000
27.83258 221.000
27.85253 235.000
27.87248 238.000
27.89242 250.000
27.91237 204.000
27.93232 242.000
27.95227 222.000
27.97221 213.000
27.99216 222.000
28.01211 214.000
28.03205 206.000
28.05200 242.000
28.07195 233.000
28.09189 216.000
28.11184 246.000
28.13179 242.000
28.15174 190.000
28.17168 234.000
28.19163 213.000
28.21158 213.000
28.23152 233.000
28.25147 207.000
28.27142 207.000
28.29136 240.000
28.31131 224.000
28.33126 227.000
28.35120 218.000
28.37115 241.000
28.39110 207.000
28.41105 225.000
28.43099 218.000
28.45094 215.000
28.47089 212.000
28.49083 231.000
28.51078 236.000
28.53073 189.000
28.55067 195.000
28.57062 206.000
28.59057 215.000
28.61052 224.000
28.63046 232.000
28.65041 216.000
28.67036 215.000
28.69030 220.000
28.71025 222.000
28.73020 199.000
28.75014 229.000
28.77009 232.000
28.79004 207.000
28.80998 215.000
28.82993 211.000
28.84988 249.000
28.86983 211.000
28.88977 224.000
28.90972 208.000
28.92967 189.000
28.94961 179.000
28.96956 209.000
28.98951 250.000
29.00945 227.000
29.02940 241.000
29.04935 210.000
29.06930 216.000
29.08924 226.000
29.10919 202.000
29.12914 200.000
29.14908 220.000
29.16903 220.000
29.18898 209.000
29.20892 215.000
29.22887 225.000
29.24882 206.000
29.26877 254.000
29.28871 269.000
29.30866 214.000
29.32861 281.000
29.34855 294.000
29.36850 288.000
29.38845 297.000
29.40839 322.000
29.42834 271.000
29.44829 275.000
29.46823 260.000
29.48818 273.000
29.50813 217.000
29.52808 245.000
29.54802 221.000
29.56797 203.000
29.58792 235.000
29.60786 231.000
29.62781 239.000
29.64776 222.000
29.66770 212.000
29.68765 223.000
29.70760 208.000
29.72755 221.000
29.74749 230.000
29.76744 218.000
29.78739 235.000
29.80733 227.000
29.82728 221.000
29.84723 203.000
29.86717 226.000
29.88712 197.000
29.90707 228.000
29.92701 218.000
29.94696 248.000
29.96691 225.000
29.98686 229.000
30.00680 193.000
30.02675 237.000
30.04670 242.000
30.06664 221.000
30.08659 223.000
30.10654 244.000
30.12648 187.000
30.14643 221.000
30.16638 207.000
30.18633 218.000
30.20627 222.000
30.22622 248.000
30.24617 219.000
30.26611 235.000
30.28606 217.000
30.30601 224.000
30.32595 229.000
30.34590 227.000
30.36585 192.000
30.38579 210.000
30.40574 234.000
30.42569 224.000
30.44564 247.000
30.46558 216.000
30.48553 212.000
30.50548 219.000
30.52542 230.000
30.54537 208.000
30.56532 212.000
30.58526 221.000
30.60521 215.000
30.62516 267.000
30.64511 237.000
30.66505 226.000
30.68500 228.000
30.70495 221.000
30.72489 190.000
30.74484 220.000
30.76479 225.000
30.78473 224.000
30.80468 218.000
30.82463 238.000
30.84458 238.000
30.86452 218.000
30.88447 237.000
30.90442 224.000
30.92436 240.000
30.94431 227.000
30.96426 234.000
30.98420 214.000
31.00415 223.000
31.02410 201.000
31.04404 220.000
31.06399 205.000
31.08394 204.000
31.10389 235.000
31.12383 237.000
31.14378 225.000
31.16373 209.000
31.18367 195.000
31.20362 220.000
31.22357 207.000
31.24351 222.000
31.26346 215.000
31.28341 245.000
31.30336 242.000
31.32330 208.000
31.34325 223.000
31.36320 230.000
31.38314 221.000
31.40309 217.000
31.42304 220.000
31.44298 234.000
31.46293 224.000
31.48288 235.000
31.50282 249.000
31.52277 222.000
31.54272 241.000
31.56267 239.000
31.58261 222.000
31.60256 254.000
31.62251 216.000
31.64245 249.000
31.66240 250.000
31.68235 250.000
31.70229 236.000
31.72224 266.000
31.74219 263.000
31.76214 263.000
31.78208 333.000
31.80203 351.000
31.82198 379.000
31.84192 437.000
31.86187 535.000
31.88182 647.000
31.90176 732.000
31.92171 811.000
31.94166 996.000
31.96160 1157.000
31.98155 1280.000
32.00150 1356.000
32.02145 1353.000
32.04139 1175.000
32.06134 1086.000
32.08129 1086.000
32.10123 892.000
32.12118 793.000
32.14113 608.000
32.16107 527.000
32.18102 428.000
32.20097 388.000
32.22092 344.000
32.24086 312.000
32.26081 245.000
32.28076 267.000
32.30070 262.000
32.32065 262.000
32.34060 254.000
32.36054 263.000
32.38049 258.000
32.40044 262.000
32.42039 265.000
32.44033 317.000
32.46028 338.000
32.48023 372.000
32.50017 375.000
32.52012 392.000
32.54007 379.000
32.56001 318.000
32.57996 359.000
32.59991 310.000
32.61985 259.000
32.63980 261.000
32.65975 263.000
32.67970 270.000
32.69964 232.000
32.71959 247.000
32.73954 243.000
32.75948 267.000
32.77943 238.000
32.79938 220.000
32.81932 231.000
32.83927 244.000
32.85922 264.000
32.87917 257.000
32.89911 238.000
32.91906 229.000
32.93901 196.000
32.95895 204.000
32.97890 207.000
32.99885 235.000
33.01879 201.000
33.03874 192.000
33.05869 223.000
33.07863 237.000
33.09858 244.000
33.11853 225.000
33.13848 212.000
33.15842 244.000
33.17837 222.000
33.19832 230.000
33.21826 217.000
33.23821 195.000
33.25816 220.000
33.27810 230.000
33.29805 221.000
33.31800 226.000
33.33795 245.000
33.35789 210.000
33.37784 237.000
33.39779 241.000
33.41773 213.000
33.43768 206.000
33.45763 240.000
33.47757 200.000
33.49752 219.000
33.51747 236.000
33.53741 236.000
33.55736 195.000
33.57731 227.000
33.59726 218.000
33.61720 244.000
33.63715 180.000
33.65710 226.000
33.67704 224.000
33.69699 216.000
33.71694 220.000
33.73688 227.000
33.75683 226.000
33.77678 199.000
33.79673 202.000
33.81667 259.000
33.83662 220.000
33.85657 213.000
33.87651 208.000
33.89646 215.000
33.91641 233.000
33.93635 236.000
33.95630 219.000
33.97625 226.000
33.99620 258.000
34.01614 213.000
34.03609 212.000
34.05604 242.000
34.07598 253.000
34.09593 244.000
34.11588 226.000
34.13582 254.000
34.15577 232.000
34.17572 247.000
34.19566 231.000
34.21561 250.000
34.23556 263.000
34.25551 219.000
34.27545 252.000
34.29540 244.000
34.31535 275.000
34.33529 262.000
34.35524 259.000
34.37519 249.000
34.39513 275.000
34.41508 253.000
34.43503 297.000
34.45498 287.000
34.47492 278.000
34.49487 260.000
34.51482 280.000
34.53476 281.000
34.55471 289.000
34.57466 254.000
34.59460 288.000
34.61455 300.000
34.63450 288.000
34.65444 309.000
34.67439 256.000
34.69434 282.000
34.71429 309.000
34.73423 322.000
34.75418 293.000
34.77413 261.000
34.79407 268.000
34.81402 295.000
34.83397 263.000
34.85391 301.000
34.87386 294.000
34.89381 311.000
34.91376 270.000
34.93370 255.000
34.95365 262.000
34.97360 241.000
34.99354 244.000
35.01349 246.000
35.03344 269.000
35.05338 230.000
35.07333 257.000
35.09328 263.000
35.11322 257.000
35.13317 257.000
35.15312 285.000
35.17307 284.000
35.19301 294.000
35.21296 277.000
35.23291 292.000
35.25285 321.000
35.27280 308.000
35.29275 310.000
35.31269 382.000
35.33264 399.000
35.35259 420.000
35.37254 560.000
35.39248 757.000
35.41243 934.000
35.43238 1089.000
35.45232 1043.000
35.47227 1104.000
35.49222 1276.000
35.51216 1859.000
35.53211 2058.000
35.55206 1848.000
35.57201 1655.000
35.59195 1567.000
35.61190 1499.000
35.63185 1433.000
35.65179 1340.000
35.67174 1269.000
35.69169 1244.000
35.71163 1178.000
35.73158 1087.000
35.75153 1090.000
35.77147 1088.000
35.79142 1046.000
35.81137 908.000
35.83132 832.000
35.85126 778.000
35.87121 658.000
35.89116 563.000
35.91110 507.000
35.93105 480.000
35.95100 340.000
35.97094 382.000
35.99089 334.000
36.01084 314.000
36.03079 282.000
36.05073 266.000
36.07068 283.000
36.09063 288.000
36.11057 269.000
36.13052 262.000
36.15047 235.000
36.17041 247.000
36.19036 278.000
36.21031 275.000
36.23025 231.000
36.25020 248.000
36.27015 254.000
36.29010 230.000
36.31004 250.000
36.32999 263.000
36.34994 254.000
36.36988 275.000
36.38983 254.000
36.40978 257.000
36.42972 258.000
36.44967 250.000
36.46962 265.000
36.48957 239.000
36.50951 303.000
36.52946 261.000
36.54941 269.000
36.56935 241.000
36.58930 273.000
36.60925 284.000
36.62919 279.000
36.64914 298.000
36.66909 306.000
36.68903 313.000
36.70898 292.000
36.72893 289.000
36.74888 286.000
36.76882 299.000
36.78877 280.000
36.80872 287.000
36.82866 254.000
36.84861 246.000
36.86856 247.000
36.88850 270.000
36.90845 242.000
36.92840 251.000
36.94835 251.000
36.96829 245.000
36.98824 276.000
37.00819 267.000
37.02813 303.000
37.04808 251.000
37.06803 272.000
37.08797 330.000
37.10792 308.000
37.12787 299.000
37.14781 313.000
37.16776 318.000
37.18771 313.000
37.20766 334.000
37.22760 329.000
37.24755 301.000
37.26750 275.000
37.28744 267.000
37.30739 266.000
37.32734 274.000
37.34728 268.000
37.36723 276.000
37.38718 239.000
37.40713 242.000
37.42707 268.000
37.44702 255.000
37.46697 245.000
37.48691 243.000
37.50686 230.000
37.52681 242.000
37.54675 239.000
37.56670 224.000
37.58665 269.000
37.60660 254.000
37.62654 242.000
37.64649 234.000
37.66644 256.000
37.68638 269.000
37.70633 235.000
37.72628 232.000
37.74622 232.000
37.76617 272.000
37.78612 234.000
37.80606 231.000
37.82601 260.000
37.84596 249.000
37.86591 232.000
37.88585 277.000
37.90580 233.000
37.92575 237.000
37.94569 251.000
37.96564 257.000
37.98559 259.000
38.00553 292.000
38.02548 267.000
38.04543 252.000
38.06538 267.000
38.08532 246.000
38.10527 260.000
38.12522 248.000
38.14516 258.000
38.16511 272.000
38.18506 271.000
38.20500 243.000
38.22495 280.000
38.24490 264.000
38.26484 264.000
38.28479 271.000
38.30474 280.000
38.32469 260.000
38.34463 279.000
38.36458 291.000
38.38453 304.000
38.40447 354.000
38.42442 339.000
38.44437 312.000
38.46431 349.000
38.48426 387.000
38.50421 403.000
38.52416 463.000
38.54410 520.000
38.56405 590.000
38.58400 665.000
38.60394 851.000
38.62389 1081.000
38.64384 1261.000
38.66378 1429.000
38.68373 1528.000
38.70368 1430.000
38.72362 1431.000
38.74357 1375.000
38.76352 1293.000
38.78347 1254.000
38.80341 1074.000
38.82336 976.000
38.84331 774.000
38.86325 686.000
38.88320 670.000
38.90315 656.000
38.92309 636.000
38.94304 671.000
38.96299 683.000
38.98294 654.000
39.00288 660.000
39.02283 602.000
39.04278 579.000
39.06272 563.000
39.08267 541.000
39.10262 585.000
39.12256 569.000
39.14251 605.000
39.16246 650.000
39.18241 728.000
39.20235 876.000
39.22230 1057.000
39.24225 1264.000
39.26219 1438.000
39.28214 1587.000
39.30209 1740.000
39.32203 1812.000
39.34198 1759.000
39.36193 1686.000
39.38187 1512.000
39.40182 1353.000
39.42177 1251.000
39.44172 1001.000
39.46166 932.000
39.48161 776.000
39.50156 642.000
39.52150 561.000
39.54145 452.000
39.56140 412.000
39.58134 382.000
39.60129 325.000
39.62124 341.000
39.64119 293.000
39.66113 312.000
39.68108 296.000
39.70103 274.000
39.72097 257.000
39.74092 267.000
39.76087 280.000
39.78081 250.000
39.80076 276.000
39.82071 255.000
39.84065 236.000
39.86060 238.000
39.88055 265.000
39.90050 240.000
39.92044 254.000
39.94039 281.000
39.96034 272.000
39.98028 230.000
40.00023 217.000
40.02018 223.000
40.04012 261.000
40.06007 237.000
40.08002 241.000
40.09997 281.000
40.11991 254.000
40.13986 230.000
40.15981 244.000
40.17975 248.000
40.19970 222.000
40.21965 224.000
40.23959 223.000
40.25954 222.000
40.27949 219.000
40.29943 217.000
40.31938 256.000
40.33933 235.000
40.35928 228.000
40.37922 202.000
40.39917 202.000
40.41912 237.000
40.43906 210.000
40.45901 236.000
40.47896 230.000
40.49890 237.000
40.51885 239.000
40.53880 220.000
40.55875 228.000
40.57869 242.000
40.59864 238.000
40.61859 217.000
40.63853 224.000
40.65848 238.000
40.67843 194.000
40.69837 200.000
40.71832 234.000
40.73827 218.000
40.75822 218.000
40.77816 220.000
40.79811 234.000
40.81806 231.000
40.83800 239.000
40.85795 256.000
40.87790 214.000
40.89784 232.000
40.91779 214.000
40.93774 260.000
40.95768 233.000
40.97763 229.000
40.99758 232.000
41.01753 212.000
41.03747 197.000
41.05742 223.000
41.07737 238.000
41.09731 231.000
41.11726 258.000
41.13721 226.000
41.15715 236.000
41.17710 240.000
41.19705 207.000
41.21700 223.000
41.23694 216.000
41.25689 216.000
41.27684 210.000
41.29678 250.000
41.31673 236.000
41.33668 244.000
41.35662 226.000
41.37657 214.000
41.39652 233.000
41.41646 232.000
41.43641 226.000
41.45636 242.000
41.47631 264.000
41.49625 207.000
41.51620 225.000
41.53615 208.000
41.55609 224.000
41.57604 255.000
41.59599 235.000
41.61593 249.000
41.63588 244.000
41.65583 267.000
41.67578 258.000
41.69572 278.000
41.71567 264.000
41.73562 305.000
41.75556 317.000
41.77551 337.000
41.79546 329.000
41.81540 320.000
41.83535 295.000
41.85530 289.000
41.87524 279.000
41.89519 276.000
41.91514 261.000
41.93509 258.000
41.95503 274.000
41.97498 218.000
41.99493 248.000
42.01487 241.000
42.03482 246.000
42.05477 219.000
42.07471 238.000
42.09466 201.000
42.11461 234.000
42.13456 241.000
42.15450 223.000
42.17445 209.000
42.19440 218.000
42.21434 217.000
42.23429 222.000
42.25424 227.000
42.27418 217.000
42.29413 210.000
42.31408 220.000
42.33403 208.000
42.35397 246.000
42.37392 216.000
42.39387 235.000
42.41381 250.000
42.43376 246.000
42.45371 256.000
42.47365 236.000
42.49360 235.000
42.51355 221.000
42.53349 224.000
42.55344 207.000
42.57339 219.000
42.59334 235.000
42.61328 250.000
42.63323 254.000
42.65318 234.000
42.67312 215.000
42.69307 245.000
42.71302 215.000
42.73296 264.000
42.75291 225.000
42.77286 243.000
42.79281 263.000
42.81275 238.000
42.83270 204.000
42.85265 246.000
42.87259 265.000
42.89254 229.000
42.91249 262.000
42.93243 244.000
42.95238 245.000
42.97233 264.000
42.99227 247.000
43.01222 245.000
43.03217 269.000
43.05212 236.000
43.07206 295.000
43.09201 258.000
43.11196 301.000
43.13190 300.000
43.15185 324.000
43.17180 319.000
43.19174 330.000
43.21169 355.000
43.23164 328.000
43.25159 372.000
43.27153 406.000
43.29148 404.000
43.31143 431.000
43.33137 513.000
43.35132 574.000
43.37127 692.000
43.39121 854.000
43.41116 923.000
43.43111 876.000
43.45105 851.000
43.47100 806.000
43.49095 707.000
43.51090 725.000
43.53084 690.000
43.55079 599.000
43.57074 566.000
43.59068 478.000
43.61063 422.000
43.63058 343.000
43.65052 356.000
43.67047 319.000
43.69042 309.000
43.71037 254.000
43.73031 276.000
43.75026 290.000
43.77021 227.000
43.79015 258.000
43.81010 230.000
43.83005 256.000
43.84999 259.000
43.86994 265.000
43.88989 254.000
43.90984 222.000
43.92978 227.000
43.94973 236.000
43.96968 241.000
43.98962 222.000
44.00957 246.000
44.02952 221.000
44.04946 246.000
44.06941 227.000
44.08936 224.000
44.10930 224.000
44.12925 217.000
44.14920 224.000
44.16915 250.000
44.18909 221.000
44.20904 225.000
44.22899 200.000
44.24893 235.000
44.26888 237.000
44.28883 235.000
44.30877 229.000
44.32872 232.000
44.34867 226.000
44.36862 237.000
44.38856 251.000
44.40851 229.000
44.42846 200.000
44.44840 262.000
44.46835 237.000
44.48830 198.000
44.50824 222.000
44.52819 219.000
44.54814 223.000
44.56808 221.000
44.58803 233.000
44.60798 216.000
44.62793 221.000
44.64787 256.000
44.66782 233.000
44.68777 228.000
44.70771 219.000
44.72766 222.000
44.74761 219.000
44.76755 200.000
44.78750 215.000
44.80745 230.000
44.82740 218.000
44.84734 233.000
44.86729 232.000
44.88724 230.000
44.90718 232.000
44.92713 235.000
44.94708 213.000
44.96702 230.000
44.98697 232.000
45.00692 254.000
45.02686 243.000
45.04681 247.000
45.06676 259.000
45.08671 258.000
45.10665 250.000
45.12660 233.000
45.14655 244.000
45.16649 244.000
45.18644 232.000
45.20639 214.000
45.22633 238.000
45.24628 234.000
45.26623 222.000
45.28618 222.000
45.30612 233.000
45.32607 225.000
45.34602 250.000
45.36596 221.000
45.38591 227.000
45.40586 233.000
45.42580 225.000
45.44575 207.000
45.46570 250.000
45.48565 221.000
45.50559 226.000
45.52554 220.000
45.54549 223.000
45.56543 206.000
45.58538 216.000
45.60533 222.000
45.62527 237.000
45.64522 249.000
45.66517 230.000
45.68511 226.000
45.70506 211.000
45.72501 233.000
45.74496 202.000
45.76490 213.000
45.78485 198.000
45.80480 212.000
45.82474 232.000
45.84469 233.000
45.86464 238.000
45.88458 228.000
45.90453 190.000
45.92448 249.000
45.94443 218.000
45.96437 224.000
45.98432 239.000
46.00427 221.000
46.02421 211.000
46.04416 208.000
46.06411 233.000
46.08405 237.000
46.10400 251.000
46.12395 253.000
46.14389 241.000
46.16384 257.000
46.18379 220.000
46.20374 242.000
46.22368 241.000
46.24363 244.000
46.26358 303.000
46.28352 250.000
46.30347 252.000
46.32342 234.000
46.34336 261.000
46.36331 256.000
46.38326 279.000
46.40321 240.000
46.42315 240.000
46.44310 238.000
46.46305 238.000
46.48299 275.000
46.50294 258.000
46.52289 219.000
46.54283 276.000
46.56278 214.000
46.58273 232.000
46.60267 271.000
46.62262 212.000
46.64257 242.000
46.66252 212.000
46.68246 221.000
46.70241 224.000
46.72236 238.000
46.74230 212.000
46.76225 224.000
46.78220 230.000
46.80214 218.000
46.82209 201.000
46.84204 210.000
46.86199 212.000
46.88193 237.000
46.90188 215.000
46.92183 220.000
46.94177 210.000
46.96172 212.000
46.98167 202.000
47.00161 218.000
47.02156 201.000
47.04151 190.000
47.06146 241.000
47.08140 201.000
47.10135 226.000
47.12130 237.000
47.14124 215.000
47.16119 236.000
47.18114 249.000
47.20108 222.000
47.22103 235.000
47.24098 231.000
47.26092 236.000
47.28087 258.000
47.30082 235.000
47.32077 207.000
47.34071 235.000
47.36066 231.000
47.38061 225.000
47.40055 209.000
47.42050 226.000
47.44045 193.000
47.46039 220.000
47.48034 213.000
47.50029 238.000
47.52024 234.000
47.54018 220.000
47.56013 241.000
47.58008 247.000
47.60002 229.000
47.61997 240.000
47.63992 232.000
47.65986 224.000
47.67981 229.000
47.69976 232.000
47.71970 235.000
47.73965 227.000
47.75960 234.000
47.77955 242.000
47.79949 233.000
47.81944 249.000
47.83939 230.000
47.85933 225.000
47.87928 240.000
47.89923 238.000
47.91917 278.000
47.93912 243.000
47.95907 261.000
47.97902 244.000
47.99896 220.000
48.01891 261.000
48.03886 257.000
48.05880 246.000
48.07875 235.000
48.09870 281.000
48.11864 269.000
48.13859 262.000
48.15854 287.000
48.17848 266.000
48.19843 281.000
48.21838 274.000
48.23833 276.000
48.25827 266.000
48.27822 280.000
48.29817 294.000
48.31811 285.000
48.33806 316.000
48.35801 297.000
48.37795 286.000
48.39790 364.000
48.41785 304.000
48.43780 353.000
48.45774 364.000
48.47769 421.000
48.49764 433.000
48.51758 506.000
48.53753 549.000
48.55748 577.000
48.57742 735.000
48.59737 864.000
48.61732 1106.000
48.63726 1321.000
48.65721 1640.000
48.67716 2003.000
48.69711 2136.000
48.71705 2284.000
48.73700 2009.000
48.75695 1911.000
48.77689 1782.000
48.79684 1784.000
48.81679 1779.000
48.83673 1775.000
48.85668 1567.000
48.87663 1285.000
48.89658 1130.000
48.91652 922.000
48.93647 848.000
48.95642 722.000
48.97636 669.000
48.99631 596.000
49.01626 491.000
49.03620 447.000
49.05615 438.000
49.07610 380.000
49.09605 362.000
49.11599 335.000
49.13594 324.000
49.15589 319.000
49.17583 280.000
49.19578 301.000
49.21573 285.000
49.23567 263.000
49.25562 248.000
49.27557 293.000
49.29551 251.000
49.31546 254.000
49.33541 282.000
49.35536 270.000
49.37530 255.000
49.39525 283.000
49.41520 259.000
49.43514 269.000
49.45509 253.000
49.47504 254.000
49.49498 265.000
49.51493 252.000
49.53488 242.000
49.55483 250.000
49.57477 231.000
49.59472 220.000
49.61467 245.000
49.63461 259.000
49.65456 253.000
49.67451 257.000
49.69445 213.000
49.71440 225.000
49.73435 223.000
49.75429 204.000
49.77424 234.000
49.79419 253.000
49.81414 231.000
49.83408 232.000
49.85403 250.000
49.87398 205.000
49.89392 229.000
49.91387 211.000
49.93382 220.000
49.95376 225.000
49.97371 235.000
49.99366 218.000
50.01361 247.000
50.03355 237.000
50.05350 240.000
50.07345 204.000
50.09339 239.000
50.11334 251.000
50.13329 239.000
50.15323 237.000
50.17318 252.000
50.19313 191.000
50.21307 232.000
50.23302 228.000
50.25297 236.000
50.27292 228.000
50.29286 205.000
50.31281 228.000
50.33276 222.000
50.35270 221.000
50.37265 207.000
50.39260 243.000
50.41254 216.000
50.43249 211.000
50.45244 228.000
50.47239 209.000
50.49233 237.000
50.51228 214.000
50.53223 204.000
50.55217 216.000
50.57212 231.000
50.59207 234.000
50.61201 225.000
50.63196 209.000
50.65191 218.000
50.67186 222.000
50.69180 206.000
50.71175 199.000
50.73170 241.000
50.75164 212.000
50.77159 241.000
50.79154 242.000
50.81148 244.000
50.83143 201.000
50.85138 229.000
50.87132 219.000
50.89127 236.000
50.91122 207.000
50.93117 209.000
50.95111 214.000
50.97106 218.000
50.99101 245.000
51.01095 224.000
51.03090 226.000
51.05085 238.000
51.07079 238.000
51.09074 232.000
51.11069 207.000
51.13064 239.000
51.15058 234.000
51.17053 197.000
51.19048 205.000
51.21042 223.000
51.23037 236.000
51.25032 224.000
51.27026 226.000
51.29021 223.000
51.31016 225.000
51.33010 238.000
51.35005 226.000
51.37000 214.000
51.38995 212.000
51.40989 202.000
51.42984 254.000
51.44979 214.000
51.46973 267.000
51.48968 254.000
51.50963 231.000
51.52957 247.000
51.54952 225.000
51.56947 231.000
51.58942 232.000
51.60936 207.000
51.62931 202.000
51.64926 208.000
51.66920 212.000
51.68915 233.000
51.70910 196.000
51.72904 218.000
51.74899 211.000
51.76894 218.000
51.78888 193.000
51.80883 220.000
51.82878 211.000
51.84873 216.000
51.86867 236.000
51.88862 245.000
51.90857 214.000
51.92851 213.000
51.94846 215.000
51.96841 222.000
51.98835 213.000
52.00830 221.000
52.02825 188.000
52.04820 246.000
52.06814 259.000
52.08809 246.000
52.10804 224.000
52.12798 237.000
52.14793 217.000
52.16788 241.000
52.18782 227.000
52.20777 227.000
52.22772 233.000
52.24767 250.000
52.26761 252.000
52.28756 231.000
52.30751 222.000
52.32745 249.000
52.34740 222.000
52.36735 219.000
52.38729 210.000
52.40724 252.000
52.42719 225.000
52.44713 223.000
52.46708 248.000
52.48703 225.000
52.50698 232.000
52.52692 224.000
52.54687 206.000
52.56682 210.000
52.58676 218.000
52.60671 213.000
52.62666 210.000
52.64660 222.000
52.66655 237.000
52.68650 214.000
52.70645 241.000
52.72639 248.000
52.74634 221.000
52.76629 216.000
52.78623 217.000
52.80618 229.000
52.82613 210.000
52.84607 218.000
52.86602 239.000
52.88597 247.000
52.90591 226.000
52.92586 246.000
52.94581 245.000
52.96576 233.000
52.98570 242.000
53.00565 281.000
53.02560 230.000
53.04554 250.000
53.06549 246.000
53.08544 256.000
53.10538 223.000
53.12533 266.000
53.14528 241.000
53.16523 269.000
53.18517 259.000
53.20512 280.000
53.22507 260.000
53.24501 295.000
53.26496 324.000
53.28491 282.000
53.30485 263.000
53.32480 269.000
53.34475 331.000
53.36469 297.000
53.38464 300.000
53.40459 286.000
53.42454 276.000
53.44448 287.000
53.46443 320.000
53.48438 291.000
53.50432 287.000
53.52427 278.000
53.54422 236.000
53.56416 261.000
53.58411 293.000
53.60406 246.000
53.62401 259.000
53.64395 254.000
53.66390 255.000
53.68385 278.000
53.70379 246.000
53.72374 247.000
53.74369 210.000
53.76363 220.000
53.78358 250.000
53.80353 221.000
53.82348 226.000
53.84342 232.000
53.86337 207.000
53.88332 234.000
53.90326 216.000
53.92321 232.000
53.94316 233.000
53.96310 215.000
53.98305 245.000
54.00300 238.000
54.02294 207.000
54.04289 220.000
54.06284 222.000
54.08279 208.000
54.10273 256.000
54.12268 199.000
54.14263 223.000
54.16257 207.000
54.18252 246.000
54.20247 255.000
54.22241 220.000
54.24236 203.000
54.26231 215.000
54.28226 247.000
54.30220 213.000
54.32215 215.000
54.34210 208.000
54.36204 205.000
54.38199 237.000
54.40194 222.000
54.42188 214.000
54.44183 230.000
54.46178 241.000
54.48172 217.000
54.50167 223.000
54.52162 243.000
54.54157 231.000
54.56151 195.000
54.58146 235.000
54.60141 209.000
54.62135 241.000
54.64130 201.000
54.66125 225.000
54.68119 205.000
54.70114 229.000
54.72109 222.000
54.74104 218.000
54.76098 203.000
54.78093 234.000
54.80088 225.000
54.82082 198.000
54.84077 233.000
54.86072 236.000
54.88066 219.000
54.90061 218.000
54.92056 223.000
54.94050 224.000
54.96045 212.000
54.98040 244.000
55.00035 232.000
55.02029 233.000
55.04024 209.000
55.06019 209.000
55.08013 228.000
55.10008 213.000
55.12003 227.000
55.13997 236.000
55.15992 220.000
55.17987 227.000
55.19982 199.000
55.21976 201.000
55.23971 218.000
55.25966 223.000
55.27960 227.000
55.29955 253.000
55.31950 210.000
55.33944 219.000
55.35939 211.000
55.37934 217.000
55.39929 214.000
55.41923 198.000
55.43918 220.000
55.45913 259.000
55.47907 236.000
55.49902 229.000
55.51897 219.000
55.53891 224.000
55.55886 212.000
55.57881 218.000
55.59875 217.000
55.61870 226.000
55.63865 224.000
55.65860 218.000
55.67854 220.000
55.69849 226.000
55.71844 211.000
55.73838 227.000
55.75833 231.000
55.77828 202.000
55.79822 208.000
55.81817 222.000
55.83812 210.000
55.85807 220.000
55.87801 210.000
55.89796 199.000
55.91791 209.000
55.93785 224.000
55.95780 223.000
55.97775 225.000
55.99769 240.000
56.01764 215.000
56.03759 221.000
56.05753 227.000
56.07748 247.000
56.09743 207.000
56.11738 218.000
56.13732 193.000
56.15727 227.000
56.17722 197.000
56.19716 209.000
56.21711 237.000
56.23706 206.000
56.25700 237.000
56.27695 196.000
56.29690 230.000
56.31685 228.000
56.33679 205.000
56.35674 216.000
56.37669 222.000
56.39663 194.000
56.41658 223.000
56.43653 198.000
56.45647 218.000
56.47642 249.000
56.49637 225.000
56.51631 224.000
56.53626 221.000
56.55621 241.000
56.57616 223.000
56.59610 222.000
56.61605 227.000
56.63600 231.000
56.65594 249.000
56.67589 242.000
56.69584 247.000
56.71578 221.000
56.73573 220.000
56.75568 228.000
56.77563 211.000
56.79557 198.000
56.81552 249.000
56.83547 254.000
56.85541 196.000
56.87536 249.000
56.89531 211.000
56.91525 225.000
56.93520 198.000
56.95515 192.000
56.97510 202.000
56.99504 227.000
57.01499 184.000
57.03494 208.000
57.05488 247.000
57.07483 241.000
57.09478 205.000
57.11472 233.000
57.13467 223.000
57.15462 226.000
57.17456 218.000
57.19451 223.000
57.21446 206.000
57.23441 225.000
57.25435 219.000
57.27430 236.000
57.29425 246.000
57.31419 233.000
57.33414 238.000
57.35409 237.000
57.37403 212.000
57.39398 231.000
57.41393 247.000
57.43388 238.000
57.45382 243.000
57.47377 214.000
57.49372 248.000
57.51366 239.000
57.53361 209.000
57.55356 241.000
57.57350 256.000
57.59345 259.000
57.61340 248.000
57.63334 203.000
57.65329 260.000
57.67324 248.000
57.69319 250.000
57.71313 231.000
57.73308 228.000
57.75303 237.000
57.77297 247.000
57.79292 229.000
57.81287 207.000
57.83281 234.000
57.85276 246.000
57.87271 236.000
57.89266 229.000
57.91260 259.000
57.93255 250.000
57.95250 261.000
57.97244 244.000
57.99239 232.000
58.01234 226.000
58.03228 238.000
58.05223 262.000
58.07218 260.000
58.09212 247.000
58.11207 266.000
58.13202 305.000
58.15197 293.000
58.17191 304.000
58.19186 337.000
58.21181 354.000
58.23175 362.000
58.25170 404.000
58.27165 391.000
58.29159 342.000
58.31154 354.000
58.33149 355.000
58.35144 341.000
58.37138 273.000
58.39133 328.000
58.41128 360.000
58.43122 305.000
58.45117 346.000
58.47112 279.000
58.49106 277.000
58.51101 288.000
58.53096 266.000
58.55090 228.000
58.57085 242.000
58.59080 224.000
58.61075 218.000
58.63069 240.000
58.65064 233.000
58.67059 226.000
58.69053 243.000
58.71048 239.000
58.73043 225.000
58.75037 232.000
58.77032 240.000
58.79027 219.000
58.81022 238.000
58.83016 237.000
58.85011 231.000
58.87006 222.000
58.89000 213.000
58.90995 222.000
58.92990 237.000
58.94984 256.000
58.96979 243.000
58.98974 218.000
59.00969 226.000
59.02963 233.000
59.04958 203.000
59.06953 213.000
59.08947 218.000
59.10942 212.000
59.12937 225.000
59.14931 231.000
59.16926 230.000
59.18921 245.000
59.20915 238.000
59.22910 219.000
59.24905 218.000
59.26900 225.000
59.28894 231.000
59.30889 240.000
59.32884 212.000
59.34878 212.000
59.36873 222.000
59.38868 199.000
59.40862 247.000
59.42857 229.000
59.44852 224.000
59.46847 223.000
59.48841 224.000
59.50836 245.000
59.52831 230.000
59.54825 226.000
59.56820 206.000
59.58815 213.000
59.60809 226.000
59.62804 222.000
59.64799 250.000
59.66793 221.000
59.68788 198.000
59.70783 258.000
59.72778 241.000
59.74772 216.000
59.76767 244.000
59.78762 222.000
59.80756 210.000
59.82751 216.000
59.84746 206.000
59.86740 214.000
59.88735 222.000
59.90730 228.000
59.92725 238.000
59.94719 231.000
59.96714 219.000
59.98709 221.000
60.00703 248.000
60.02698 218.000
60.04693 213.000
60.06687 225.000
60.08682 242.000
60.10677 237.000
60.12671 186.000
60.14666 201.000
60.16661 204.000
60.18656 244.000
60.20650 213.000
60.22645 220.000
60.24640 223.000
60.26634 235.000
60.28629 197.000
60.30624 230.000
60.32618 229.000
60.34613 231.000
60.36608 241.000
60.38603 203.000
60.40597 202.000
60.42592 224.000
60.44587 219.000
60.46581 223.000
60.48576 210.000
60.50571 194.000
60.52565 231.000
60.54560 210.000
60.56555 243.000
60.58550 240.000
60.60544 200.000
60.62539 254.000
60.64534 221.000
60.66528 199.000
60.68523 217.000
60.70518 228.000
60.72512 229.000
60.74507 208.000
60.76502 232.000
60.78496 228.000
60.80491 238.000
60.82486 248.000
60.84481 245.000
60.86475 201.000
60.88470 210.000
60.90465 236.000
60.92459 220.000
60.94454 223.000
60.96449 234.000
60.98443 224.000
61.00438 239.000
61.02433 213.000
61.04428 210.000
61.06422 248.000
61.08417 251.000
61.10412 232.000
61.12406 189.000
61.14401 264.000
61.16396 245.000
61.18390 264.000
61.20385 272.000
61.22380 259.000
61.24374 246.000
61.26369 255.000
61.28364 268.000
61.30359 242.000
61.32353 261.000
61.34348 263.000
61.36343 273.000
61.38337 313.000
61.40332 304.000
61.42327 285.000
61.44321 355.000
61.46316 345.000
61.48311 382.000
61.50306 431.000
61.52300 493.000
61.54295 524.000
61.56290 508.000
61.58284 464.000
61.60279 487.000
61.62274 470.000
61.64268 448.000
61.66263 463.000
61.68258 441.000
61.70252 481.000
61.72247 489.000
61.74242 463.000
61.76237 519.000
61.78231 475.000
61.80226 527.000
61.82221 583.000
61.84215 598.000
61.86210 633.000
61.88205 660.000
61.90199 777.000
61.92194 720.000
61.94189 788.000
61.96184 790.000
61.98178 768.000
62.00173 777.000
62.02168 754.000
62.04162 724.000
62.06157 706.000
62.08152 687.000
62.10146 610.000
62.12141 689.000
62.14136 627.000
62.16131 590.000
62.18125 571.000
62.20120 486.000
62.22115 435.000
62.24109 424.000
62.26104 418.000
62.28099 383.000
62.30093 379.000
62.32088 352.000
62.34083 306.000
62.36077 294.000
62.38072 266.000
62.40067 276.000
62.42062 243.000
62.44056 262.000
62.46051 283.000
62.48046 257.000
62.50040 248.000
62.52035 261.000
62.54030 247.000
62.56024 278.000
62.58019 240.000
62.60014 279.000
62.62009 269.000
62.64003 251.000
62.65998 245.000
62.67993 233.000
62.69987 261.000
62.71982 242.000
62.73977 247.000
62.75971 259.000
62.77966 264.000
62.79961 256.000
62.81955 272.000
62.83950 233.000
62.85945 228.000
62.87940 280.000
62.89934 236.000
62.91929 246.000
62.93924 254.000
62.95918 215.000
62.97913 249.000
62.99908 248.000
63.01902 268.000
63.03897 219.000
63.05892 237.000
63.07887 231.000
63.09881 253.000
63.11876 219.000
63.13871 266.000
63.15865 242.000
63.17860 246.000
63.19855 250.000
63.21849 218.000
63.23844 249.000
63.25839 243.000
63.27833 264.000
63.29828 238.000
63.31823 242.000
63.33818 251.000
63.35812 262.000
63.37807 247.000
63.39802 233.000
63.41796 250.000
63.43791 245.000
63.45786 268.000
63.47780 247.000
63.49775 239.000
63.51770 268.000
63.53765 224.000
63.55759 259.000
63.57754 252.000
63.59749 217.000
63.61743 263.000
63.63738 268.000
63.65733 240.000
63.67727 238.000
63.69722 259.000
63.71717 237.000
63.73712 261.000
63.75706 298.000
63.77701 223.000
63.79696 262.000
63.81690 270.000
63.83685 247.000
63.85680 288.000
63.87674 283.000
63.89669 260.000
63.91664 304.000
63.93658 304.000
63.95653 289.000
63.97648 330.000
63.99643 331.000
64.01637 351.000
64.03632 378.000
64.05627 400.000
64.07621 400.000
64.09616 451.000
64.11611 418.000
64.13605 462.000
64.15600 500.000
64.17595 513.000
64.19590 469.000
64.21584 531.000
64.23579 553.000
64.25574 510.000
64.27568 501.000
64.29563 532.000
64.31558 463.000
64.33552 505.000
64.35547 461.000
64.37542 486.000
64.39536 416.000
64.41531 460.000
64.43526 417.000
64.45521 411.000
64.47515 342.000
64.49510 352.000
64.51505 318.000
64.53499 321.000
64.55494 303.000
64.57489 311.000
64.59483 293.000
64.61478 241.000
64.63473 258.000
64.65468 252.000
64.67462 251.000
64.69457 248.000
64.71452 259.000
64.73446 245.000
64.75441 236.000
64.77436 232.000
64.79430 258.000
64.81425 254.000
64.83420 218.000
64.85414 239.000
64.87409 254.000
64.89404 250.000
64.91399 239.000
64.93393 233.000
64.95388 241.000
64.97383 271.000
64.99377 241.000
65.01372 229.000
65.03367 224.000
65.05361 225.000
65.07356 242.000
65.09351 235.000
65.11346 228.000
65.13340 213.000
65.15335 238.000
65.17330 233.000
65.19324 254.000
65.21319 213.000
65.23314 235.000
65.25308 218.000
65.27303 233.000
65.29298 251.000
65.31293 267.000
65.33287 259.000
65.35282 221.000
65.37277 254.000
65.39271 249.000
65.41266 252.000
65.43261 240.000
65.45255 259.000
65.47250 222.000
65.49245 283.000
65.51239 275.000
65.53234 270.000
65.55229 326.000
65.57224 323.000
65.59218 309.000
65.61213 339.000
65.63208 317.000
65.65202 324.000
65.67197 364.000
65.69192 340.000
65.71186 335.000
65.73181 319.000
65.75176 352.000
65.77171 293.000
65.79165 379.000
65.81160 366.000
65.83155 331.000
65.85149 347.000
65.87144 356.000
65.89139 292.000
65.91133 313.000
65.93128 308.000
65.95123 335.000
65.97117 352.000
65.99112 303.000
66.01107 340.000
66.03102 304.000
66.05096 293.000
66.07091 295.000
66.09086 297.000
66.11080 325.000
66.13075 328.000
66.15070 325.000
66.17064 304.000
66.19059 349.000
66.21054 351.000
66.23049 391.000
66.25043 388.000
66.27038 413.000
66.29033 405.000
66.31027 433.000
66.33022 466.000
66.35017 418.000
66.37011 457.000
66.39006 481.000
66.41001 416.000
66.42995 442.000
66.44990 452.000
66.46985 460.000
66.48980 508.000
66.50974 456.000
66.52969 521.000
66.54964 507.000
66.56958 527.000
66.58953 502.000
66.60948 477.000
66.62942 465.000
66.64937 472.000
66.66932 490.000
66.68927 469.000
66.70921 468.000
66.72916 462.000
66.74911 480.000
66.76905 441.000
66.78900 454.000
66.80895 449.000
66.82889 384.000
66.84884 416.000
66.86879 381.000
66.88874 418.000
66.90868 407.000
66.92863 374.000
66.94858 385.000
66.96852 356.000
66.98847 363.000
67.00842 314.000
67.02836 331.000
67.04831 352.000
67.06826 326.000
67.08820 336.000
67.10815 272.000
67.12810 286.000
67.14805 301.000
67.16799 268.000
67.18794 250.000
67.20789 242.000
67.22783 278.000
67.24778 257.000
67.26773 260.000
67.28767 297.000
67.30762 248.000
67.32757 231.000
67.34752 221.000
67.36746 262.000
67.38741 274.000
67.40736 242.000
67.42730 238.000
67.44725 234.000
67.46720 268.000
67.48714 242.000
67.50709 248.000
67.52704 229.000
67.54698 273.000
67.56693 242.000
67.58688 242.000
67.60683 254.000
67.62677 232.000
67.64672 264.000
67.66667 287.000
67.68661 259.000
67.70656 262.000
67.72651 321.000
67.74645 247.000
67.76640 305.000
67.78635 317.000
67.80630 374.000
67.82624 268.000
67.84619 353.000
67.86614 326.000
67.88608 338.000
67.90603 330.000
67.92598 389.000
67.94592 356.000
67.96587 391.000
67.98582 402.000
68.00576 406.000
68.02571 362.000
68.04566 423.000
68.06561 344.000
68.08555 377.000
68.10550 363.000
68.12545 362.000
68.14539 378.000
68.16534 357.000
68.18529 338.000
68.20523 336.000
68.22518 306.000
68.24513 294.000
68.26508 304.000
68.28502 341.000
68.30497 290.000
68.32492 284.000
68.34486 264.000
68.36481 274.000
68.38476 274.000
68.40470 238.000
68.42465 261.000
68.44460 267.000
68.46455 252.000
68.48449 232.000
68.50444 242.000
68.52439 238.000
68.54433 236.000
68.56428 245.000
68.58423 264.000
68.60417 240.000
68.62412 243.000
68.64407 217.000
68.66401 204.000
68.68396 212.000
68.70391 213.000
68.72386 235.000
68.74380 217.000
68.76375 239.000
68.78370 245.000
68.80364 229.000
68.82359 209.000
68.84354 234.000
68.86348 252.000
68.88343 223.000
68.90338 237.000
68.92333 215.000
68.94327 210.000
68.96322 210.000
68.98317 234.000
69.00311 211.000
69.02306 223.000
69.04301 243.000
69.06295 221.000
69.08290 244.000
69.10285 264.000
69.12279 223.000
69.14274 239.000
69.16269 223.000
69.18264 235.000
69.20258 240.000
69.22253 226.000
69.24248 198.000
69.26242 222.000
69.28237 209.000
69.30232 233.000
69.32226 231.000
69.34221 227.000
69.36216 251.000
69.38211 214.000
69.40205 218.000
69.42200 222.000
69.44195 234.000
69.46189 225.000
69.48184 224.000
69.50179 217.000
69.52173 217.000
69.54168 215.000
69.56163 245.000
69.58157 235.000
69.60152 246.000
69.62147 230.000
69.64142 192.000
69.66136 191.000
69.68131 238.000
69.70126 210.000
69.72120 239.000
69.74115 225.000
69.76110 243.000
69.78104 250.000
69.80099 228.000
69.82094 215.000
69.84089 217.000
69.86083 233.000
69.88078 236.000
69.90073 237.000
69.92067 213.000
69.94062 234.000
69.96057 222.000
69.98051 214.000
70.00046 217.000
70.02041 230.000
70.04035 217.000
70.06030 196.000
70.08025 228.000
70.10020 232.000
70.12014 204.000
70.14009 196.000
70.16004 241.000
70.17998 224.000
70.19993 205.000
70.21988 200.000
70.23982 204.000
70.25977 237.000
70.27972 240.000
70.29967 241.000
70.31961 222.000
70.33956 256.000
70.35951 191.000
70.37945 215.000
70.39940 219.000
70.41935 212.000
70.43929 201.000
70.45924 208.000
70.47919 219.000
70.49914 249.000
70.51908 226.000
70.53903 202.000
70.55898 211.000
70.57892 224.000
70.59887 203.000
70.61882 215.000
70.63876 242.000
70.65871 219.000
70.67866 226.000
70.69860 219.000
70.71855 220.000
70.73850 239.000
70.75845 211.000
70.77839 215.000
70.79834 228.000
70.81829 218.000
70.83823 208.000
70.85818 233.000
70.87813 243.000
70.89807 200.000
70.91802 221.000
70.93797 221.000
70.95792 239.000
70.97786 229.000
70.99781 229.000
71.01776 215.000
71.03770 233.000
71.05765 233.000
71.07760 222.000
71.09754 221.000
71.11749 212.000
71.13744 211.000
71.15738 207.000
71.17733 229.000
71.19728 228.000
71.21723 232.000
71.23717 224.000
71.25712 214.000
71.27707 215.000
71.29701 206.000
71.31696 204.000
71.33691 215.000
71.35685 247.000
71.37680 236.000
71.39675 211.000
71.41670 230.000
71.43664 218.000
71.45659 215.000
71.47654 214.000
71.49648 228.000
71.51643 230.000
71.53638 235.000
71.55632 204.000
71.57627 195.000
71.59622 210.000
71.61616 214.000
71.63611 213.000
71.65606 249.000
71.67601 213.000
71.69595 235.000
71.71590 223.000
71.73585 204.000
71.75579 227.000
71.77574 204.000
71.79569 213.000
71.81563 204.000
71.83558 234.000
71.85553 201.000
71.87548 199.000
71.89542 251.000
71.91537 248.000
71.93532 210.000
71.95526 256.000
71.97521 247.000
71.99516 229.000
72.01510 229.000
72.03505 233.000
72.05500 231.000
72.07495 202.000
72.09489 240.000
72.11484 249.000
72.13479 208.000
72.15473 221.000
72.17468 249.000
72.19463 244.000
72.21457 261.000
72.23452 254.000
72.25447 220.000
72.27441 243.000
72.29436 257.000
72.31431 251.000
72.33426 285.000
72.35420 268.000
72.37415 277.000
72.39410 280.000
72.41404 294.000
72.43399 293.000
72.45394 281.000
72.47388 280.000
72.49383 288.000
72.51378 277.000
72.53373 270.000
72.55367 276.000
72.57362 245.000
72.59357 262.000
72.61351 243.000
72.63346 260.000
72.65341 260.000
72.67335 256.000
72.69330 238.000
72.71325 226.000
72.73319 234.000
72.75314 232.000
72.77309 248.000
72.79304 232.000
72.81298 242.000
72.83293 260.000
72.85288 232.000
72.87282 234.000
72.89277 247.000
72.91272 229.000
72.93266 232.000
72.95261 261.000
72.97256 222.000
72.99251 235.000
73.01245 242.000
73.03240 238.000
73.05235 231.000
73.07229 258.000
73.09224 229.000
73.11219 213.000
73.13213 244.000
73.15208 262.000
73.17203 241.000
73.19197 227.000
73.21192 256.000
73.23187 277.000
73.25182 240.000
73.27176 248.000
73.29171 246.000
73.31166 267.000
73.33160 247.000
73.35155 301.000
73.37150 261.000
73.39144 287.000
73.41139 291.000
73.43134 291.000
73.45129 326.000
73.47123 317.000
73.49118 287.000
73.51113 334.000
73.53107 363.000
73.55102 325.000
73.57097 325.000
73.59091 331.000
73.61086 305.000
73.63081 348.000
73.65076 310.000
73.67070 313.000
73.69065 320.000
73.71060 311.000
73.73054 282.000
73.75049 326.000
73.77044 308.000
73.79038 331.000
73.81033 288.000
73.83028 282.000
73.85022 251.000
73.87017 273.000
73.89012 257.000
73.91007 254.000
73.93001 226.000
73.94996 242.000
73.96991 221.000
73.98985 243.000
74.00980 255.000
74.02975 213.000
74.04969 240.000
74.06964 250.000
74.08959 261.000
74.10954 246.000
74.12948 236.000
74.14943 193.000
74.16938 242.000
74.18932 233.000
74.20927 231.000
74.22922 242.000
74.24916 226.000
74.26911 193.000
74.28906 257.000
74.30900 249.000
74.32895 219.000
74.34890 203.000
74.36885 238.000
74.38879 235.000
74.40874 239.000
74.42869 245.000
74.44863 231.000
74.46858 220.000
74.48853 224.000
74.50847 234.000
74.52842 217.000
74.54837 252.000
74.56832 231.000
74.58826 227.000
74.60821 239.000
74.62816 208.000
74.64810 233.000
74.66805 231.000
74.68800 221.000
74.70794 245.000
74.72789 232.000
74.74784 208.000
74.76778 255.000
74.78773 247.000
74.80768 262.000
74.82763 249.000
74.84757 241.000
74.86752 257.000
74.88747 271.000
74.90741 295.000
74.92736 283.000
74.94731 303.000
74.96725 293.000
74.98720 294.000
75.00715 306.000
75.02710 321.000
75.04704 277.000
75.06699 257.000
75.08694 286.000
75.10688 249.000
75.12683 308.000
75.14678 270.000
75.16672 299.000
75.18667 302.000
75.20662 341.000
75.22657 322.000
75.24651 326.000
75.26646 281.000
75.28641 291.000
75.30635 282.000
75.32630 305.000
75.34625 264.000
75.36619 301.000
75.38614 291.000
75.40609 249.000
75.42603 265.000
75.44598 291.000
75.46593 277.000
75.48588 258.000
75.50582 279.000
75.52577 284.000
75.54572 263.000
75.56566 236.000
75.58561 279.000
75.60556 251.000
75.62550 270.000
75.64545 257.000
75.66540 252.000
75.68535 244.000
75.70529 276.000
75.72524 292.000
75.74519 262.000
75.76513 262.000
75.78508 257.000
75.80503 279.000
75.82497 264.000
75.84492 265.000
75.86487 261.000
75.88481 245.000
75.90476 281.000
75.92471 241.000
75.94466 251.000
75.96460 229.000
75.98455 263.000
76.00450 243.000
76.02444 235.000
76.04439 259.000
76.06434 256.000
76.08428 196.000
76.10423 253.000
76.12418 276.000
76.14413 254.000
76.16407 238.000
76.18402 212.000
76.20397 231.000
76.22391 243.000
76.24386 236.000
76.26381 222.000
76.28375 227.000
76.30370 230.000
76.32365 219.000
76.34359 207.000
76.36354 229.000
76.38349 198.000
76.40344 245.000
76.42338 227.000
76.44333 203.000
76.46328 238.000
76.48322 227.000
76.50317 193.000
76.52312 219.000
76.54306 229.000
76.56301 224.000
76.58296 262.000
76.60291 211.000
76.62285 236.000
76.64280 240.000
76.66275 223.000
76.68269 243.000
76.70264 214.000
76.72259 242.000
76.74253 232.000
76.76248 287.000
76.78243 238.000
76.80238 218.000
76.82232 213.000
76.84227 235.000
76.86222 228.000
76.88216 239.000
76.90211 243.000
76.92206 230.000
76.94200 236.000
76.96195 228.000
76.98190 206.000
77.00184 226.000
77.02179 207.000
77.04174 218.000
77.06169 235.000
77.08163 211.000
77.10158 241.000
77.12153 204.000
77.14147 238.000
77.16142 210.000
77.18137 224.000
77.20131 242.000
77.22126 226.000
77.24121 233.000
77.26116 207.000
77.28110 256.000
77.30105 237.000
77.32100 262.000
77.34094 224.000
77.36089 229.000
77.38084 238.000
77.40078 228.000
77.42073 217.000
77.44068 239.000
77.46062 228.000
77.48057 220.000
77.50052 244.000
77.52047 222.000
77.54041 237.000
77.56036 228.000
77.58031 262.000
77.60025 247.000
77.62020 260.000
77.64015 257.000
77.66009 271.000
77.68004 269.000
77.69999 278.000
77.71994 254.000
77.73988 293.000
77.75983 264.000
77.77978 293.000
77.79972 282.000
77.81967 303.000
77.83962 305.000
77.85956 323.000
77.87951 299.000
77.89946 313.000
77.91940 355.000
77.93935 331.000
77.95930 377.000
77.97925 377.000
77.99919 381.000
78.01914 392.000
78.03909 417.000
78.05903 404.000
78.07898 393.000
78.09893 393.000
78.11887 400.000
78.13882 391.000
78.15877 405.000
78.17872 406.000
78.19866 398.000
78.21861 428.000
78.23856 397.000
78.25850 402.000
78.27845 409.000
78.29840 430.000
78.31834 403.000
78.33829 365.000
78.35824 385.000
78.37819 364.000
78.39813 356.000
78.41808 322.000
78.43803 348.000
78.45797 313.000
78.47792 315.000
78.49787 330.000
78.51781 297.000
78.53776 308.000
78.55771 294.000
78.57765 255.000
78.59760 273.000
78.61755 255.000
78.63750 250.000
78.65744 236.000
78.67739 265.000
78.69734 246.000
78.71728 256.000
78.73723 254.000
78.75718 255.000
78.77712 216.000
78.79707 229.000
78.81702 223.000
78.83697 220.000
78.85691 235.000
78.87686 228.000
78.89681 238.000
78.91675 215.000
78.93670 238.000
78.95665 221.000
78.97659 237.000
78.99654 227.000
79.01649 241.000
79.03643 243.000
79.05638 232.000
79.07633 221.000
79.09628 232.000
79.11622 236.000
79.13617 238.000
79.15612 256.000
79.17606 245.000
79.19601 230.000
79.21596 235.000
79.23590 211.000
79.25585 242.000
79.27580 235.000
79.29575 199.000
79.31569 198.000
79.33564 237.000
79.35559 226.000
79.37553 225.000
79.39548 246.000
79.41543 261.000
79.43537 211.000
79.45532 231.000
79.47527 219.000
79.49521 246.000
79.51516 236.000
79.53511 218.000
79.55506 200.000
79.57500 220.000
79.59495 241.000
79.61490 231.000
79.63484 237.000
79.65479 205.000
79.67474 263.000
79.69468 193.000
79.71463 251.000
79.73458 238.000
79.75453 213.000
79.77447 206.000
79.79442 231.000
79.81437 195.000
79.83431 247.000
79.85426 235.000
79.87421 230.000
79.89415 235.000
79.91410 211.000
79.93405 207.000
79.95399 213.000
79.97394 191.000
79.99389 245.000
80.01384 244.000
80.03378 256.000
80.05373 223.000
80.07368 211.000
80.09362 234.000
80.11357 239.000
80.13352 243.000
80.15346 240.000
80.17341 260.000
80.19336 224.000
80.21331 272.000
80.23325 252.000
80.25320 257.000
80.27315 244.000
80.29309 259.000
80.31304 253.000
80.33299 234.000
80.35293 260.000
80.37288 222.000
80.39283 239.000
80.41278 248.000
80.43272 245.000
80.45267 231.000
80.47262 218.000
80.49256 240.000
80.51251 245.000
80.53246 238.000
80.55240 217.000
80.57235 280.000
80.59230 222.000
80.61224 209.000
80.63219 245.000
80.65214 223.000
80.67209 221.000
80.69203 259.000
80.71198 237.000
80.73193 206.000
80.75187 251.000
80.77182 220.000
80.79177 231.000
80.81171 241.000
80.83166 227.000
80.85161 260.000
80.87156 217.000
80.89150 247.000
80.91145 208.000
80.93140 222.000
80.95134 233.000
80.97129 226.000
80.99124 222.000
81.01118 248.000
81.03113 221.000
81.05108 246.000
81.07102 219.000
81.09097 196.000
81.11092 221.000
81.13087 228.000
81.15081 208.000
81.17076 233.000
81.19071 257.000
81.21065 243.000
81.23060 215.000
81.25055 210.000
81.27049 205.000
81.29044 234.000
81.31039 212.000
81.33034 207.000
81.35028 230.000
81.37023 230.000
81.39018 231.000
81.41012 224.000
81.43007 226.000
81.45002 193.000
81.46996 228.000
81.48991 231.000
81.50986 237.000
81.52980 207.000
81.54975 216.000
81.56970 205.000
81.58965 184.000
81.60959 183.000
81.62954 209.000
81.64949 231.000
81.66943 251.000
81.68938 212.000
81.70933 243.000
81.72927 213.000
81.74922 207.000
81.76917 235.000
81.78912 208.000
81.80906 215.000
81.82901 217.000
81.84896 236.000
81.86890 227.000
81.88885 224.000
81.90880 221.000
81.92874 205.000
81.94869 217.000
81.96864 233.000
81.98859 223.000
82.00853 227.000
82.02848 210.000
82.04843 219.000
82.06837 213.000
82.08832 217.000
82.10827 230.000
82.12821 224.000
82.14816 209.000
82.16811 245.000
82.18805 214.000
82.20800 236.000
82.22795 250.000
82.24790 210.000
82.26784 248.000
82.28779 253.000
82.30774 224.000
82.32768 240.000
82.34763 256.000
82.36758 215.000
82.38752 248.000
82.40747 249.000
82.42742 221.000
82.44737 258.000
82.46731 240.000
82.48726 270.000
82.50721 274.000
82.52715 255.000
82.54710 277.000
82.56705 249.000
82.58699 246.000
82.60694 230.000
82.62689 271.000
82.64683 248.000
82.66678 247.000
82.68673 250.000
82.70668 249.000
82.72662 246.000
82.74657 244.000
82.76652 265.000
82.78646 257.000
82.80641 272.000
82.82636 255.000
82.84630 261.000
82.86625 265.000
82.88620 251.000
82.90615 285.000
82.92609 225.000
82.94604 244.000
82.96599 257.000
82.98593 251.000
83.00588 270.000
83.02583 257.000
83.04577 271.000
83.06572 225.000
83.08567 252.000
83.10561 243.000
83.12556 244.000
83.14551 252.000
83.16546 260.000
83.18540 209.000
83.20535 275.000
83.22530 250.000
83.24524 279.000
83.26519 232.000
83.28514 243.000
83.30508 246.000
83.32503 245.000
83.34498 250.000
83.36493 235.000
83.38487 244.000
83.40482 271.000
83.42477 221.000
83.44471 239.000
83.46466 225.000
83.48461 251.000
83.50455 240.000
83.52450 233.000
83.54445 244.000
83.56440 249.000
83.58434 253.000
83.60429 241.000
83.62424 274.000
83.64418 290.000
83.66413 224.000
83.68408 252.000
83.70402 240.000
83.72397 260.000
83.74392 273.000
83.76386 261.000
83.78381 222.000
83.80376 284.000
83.82371 257.000
83.84365 283.000
83.86360 242.000
83.88355 238.000
83.90349 257.000
83.92344 254.000
83.94339 219.000
83.96333 219.000
83.98328 250.000
84.00323 268.000
84.02318 248.000
84.04312 272.000
84.06307 268.000
84.08302 228.000
84.10296 241.000
84.12291 245.000
84.14286 251.000
84.16280 255.000
84.18275 250.000
84.20270 254.000
84.22264 231.000
84.24259 229.000
84.26254 264.000
84.28249 267.000
84.30243 261.000
84.32238 236.000
84.34233 266.000
84.36227 302.000
84.38222 282.000
84.40217 330.000
84.42211 258.000
84.44206 338.000
84.46201 306.000
84.48196 310.000
84.50190 308.000
84.52185 309.000
84.54180 339.000
84.56174 343.000
84.58169 311.000
84.60164 307.000
84.62158 360.000
84.64153 324.000
84.66148 341.000
84.68142 345.000
84.70137 317.000
84.72132 325.000
84.74127 334.000
84.76121 314.000
84.78116 282.000
84.80111 324.000
84.82105 250.000
84.84100 295.000
84.86095 310.000
84.88089 277.000
84.90084 261.000
84.92079 268.000
84.94074 265.000
84.96068 241.000
84.98063 275.000
85.00058 242.000
85.02052 277.000
85.04047 247.000
85.06042 251.000
85.08036 266.000
85.10031 254.000
85.12026 243.000
85.14021 237.000
85.16015 257.000
85.18010 239.000
85.20005 253.000
85.21999 221.000
85.23994 226.000
85.25989 240.000
85.27983 209.000
85.29978 222.000
85.31973 214.000
85.33967 230.000
85.35962 214.000
85.37957 225.000
85.39952 209.000
85.41946 210.000
85.43941 222.000
85.45936 211.000
85.47930 222.000
85.49925 214.000
85.51920 237.000
85.53914 252.000
85.55909 222.000
85.57904 205.000
85.59899 199.000
85.61893 224.000
85.63888 217.000
85.65883 242.000
85.67877 229.000
85.69872 218.000
85.71867 207.000
85.73861 217.000
85.75856 239.000
85.77851 200.000
85.79845 245.000
85.81840 229.000
85.83835 216.000
85.85830 229.000
85.87824 222.000
85.89819 229.000
85.91814 250.000
85.93808 218.000
85.95803 184.000
85.97798 226.000
85.99792 215.000
86.01787 229.000
86.03782 201.000
86.05777 215.000
86.07771 210.000
86.09766 216.000
86.11761 215.000
86.13755 231.000
86.15750 238.000
86.17745 224.000
86.19739 216.000
86.21734 210.000
86.23729 257.000
86.25723 226.000
86.27718 233.000
86.29713 218.000
86.31708 255.000
86.33702 239.000
86.35697 222.000
86.37692 222.000
86.39686 212.000
86.41681 234.000
86.43676 226.000
86.45670 226.000
86.47665 250.000
86.49660 222.000
86.51655 206.000
86.53649 224.000
86.55644 235.000
86.57639 234.000
86.59633 259.000
86.61628 245.000
86.63623 235.000
86.65617 228.000
86.67612 253.000
86.69607 228.000
86.71602 187.000
86.73596 207.000
86.75591 242.000
86.77586 246.000
86.79580 223.000
86.81575 239.000
86.83570 238.000
86.85564 231.000
86.87559 231.000
86.89554 286.000
86.91548 220.000
86.93543 222.000
86.95538 259.000
86.97533 256.000
86.99527 246.000
87.01522 265.000
87.03517 241.000
87.05511 250.000
87.07506 251.000
87.09501 253.000
87.11495 245.000
87.13490 260.000
87.15485 283.000
87.17480 293.000
87.19474 280.000
87.21469 251.000
87.23464 260.000
87.25458 274.000
87.27453 246.000
87.29448 243.000
87.31442 253.000
87.33437 256.000
87.35432 267.000
87.37426 255.000
87.39421 268.000
87.41416 248.000
87.43411 244.000
87.45405 270.000
87.47400 259.000
87.49395 242.000
87.51389 248.000
87.53384 252.000
87.55379 240.000
87.57373 241.000
87.59368 258.000
87.61363 224.000
87.63358 264.000
87.65352 267.000
87.67347 212.000
87.69342 231.000
87.71336 243.000
87.73331 275.000
87.75326 221.000
87.77320 228.000
87.79315 244.000
87.81310 234.000
87.83304 253.000
87.85299 241.000
87.87294 245.000
87.89289 237.000
87.91283 218.000
87.93278 241.000
87.95273 229.000
87.97267 195.000
87.99262 245.000
88.01257 223.000
88.03251 207.000
88.05246 211.000
88.07241 220.000
88.09236 242.000
88.11230 219.000
88.13225 223.000
88.15220 227.000
88.17214 244.000
88.19209 216.000
88.21204 205.000
88.23198 225.000
88.25193 229.000
88.27188 207.000
88.29183 187.000
88.31177 204.000
88.33172 228.000
88.35167 256.000
88.37161 237.000
88.39156 223.000
88.41151 230.000
88.43145 229.000
88.45140 212.000
88.47135 232.000
88.49129 236.000
88.51124 203.000
88.53119 248.000
88.55114 198.000
88.57108 216.000
88.59103 213.000
88.61098 223.000
88.63092 210.000
88.65087 217.000
88.67082 218.000
88.69076 209.000
88.71071 244.000
88.73066 191.000
88.75061 219.000
88.77055 236.000
88.79050 209.000
88.81045 207.000
88.83039 214.000
88.85034 220.000
88.87029 233.000
88.89023 217.000
88.91018 234.000
88.93013 222.000
88.95007 231.000
88.97002 209.000
88.98997 229.000
89.00992 232.000
89.02986 218.000
89.04981 238.000
89.06976 234.000
89.08970 222.000
89.10965 217.000
89.12960 205.000
89.14954 228.000
89.16949 248.000
89.18944 223.000
89.20939 198.000
89.22933 204.000
89.24928 240.000
89.26923 208.000
89.28917 224.000
89.30912 234.000
89.32907 237.000
89.34901 235.000
89.36896 235.000
89.38891 268.000
89.40885 234.000
89.42880 245.000
89.44875 288.000
89.46870 253.000
89.48864 251.000
89.50859 246.000
89.52854 238.000
89.54848 256.000
89.56843 243.000
89.58838 262.000
89.60832 256.000
89.62827 263.000
89.64822 256.000
89.66817 245.000
89.68811 228.000
89.70806 245.000
89.72801 267.000
89.74795 260.000
89.76790 253.000
89.78785 230.000
89.80779 217.000
89.82774 207.000
89.84769 253.000
89.86764 227.000
89.88758 238.000
89.90753 240.000
89.92748 252.000
89.94742 233.000
89.96737 209.000
89.98732 229.000
90.00726 247.000
