10.00000 134.000
10.01995 116.000
10.03989 135.000
10.05984 119.000
10.07979 149.000
10.09973 116.000
10.11968 143.000
10.13963 144.000
10.15958 133.000
10.17952 138.000
10.19947 122.000
10.21942 135.000
10.23936 166.000
10.25931 128.000
10.27926 160.000
10.29920 138.000
10.31915 136.000
10.33910 125.000
10.35905 141.000
10.37899 135.000
10.39894 136.000
10.41889 134.000
10.43883 131.000
10.45878 140.000
10.47873 144.000
10.49867 138.000
10.51862 144.000
10.53857 134.000
10.55851 147.000
10.57846 139.000
10.59841 133.000
10.61836 142.000
10.63830 120.000
10.65825 124.000
10.67820 130.000
10.69814 119.000
10.71809 123.000
10.73804 148.000
10.75798 139.000
10.77793 125.000
10.79788 135.000
10.81783 132.000
10.83777 145.000
10.85772 136.000
10.87767 152.000
10.89761 147.000
10.91756 149.000
10.93751 124.000
10.95745 133.000
10.97740 142.000
10.99735 131.000
11.01730 138.000
11.03724 129.000
11.05719 134.000
11.07714 138.000
11.09708 119.000
11.11703 123.000
11.13698 128.000
11.15692 150.000
11.17687 135.000
11.19682 127.000
11.21676 134.000
11.23671 157.000
11.25666 151.000
11.27661 153.000
11.29655 132.000
11.31650 129.000
11.33645 123.000
11.35639 124.000
11.37634 138.000
11.39629 121.000
11.41623 124.000
11.43618 138.000
11.45613 137.000
11.47608 125.000
11.49602 131.000
11.51597 129.000
11.53592 122.000
11.55586 151.000
11.57581 136.000
11.59576 127.000
11.61570 138.000
11.63565 151.000
11.65560 122.000
11.67554 137.000
11.69549 146.000
11.71544 130.000
11.73539 123.000
11.75533 133.000
11.77528 121.000
11.79523 146.000
11.81517 120.000
11.83512 133.000
11.85507 123.000
11.87501 109.000
11.89496 136.000
11.91491 133.000
11.93486 130.000
11.95480 124.000
11.97475 137.000
11.99470 132.000
12.01464 143.000
12.03459 124.000
12.05454 112.000
12.07448 127.000
12.09443 126.000
12.11438 132.000
12.13432 131.000
12.15427 144.000
12.17422 138.000
12.19417 125.000
12.21411 136.000
12.23406 133.000
12.25401 117.000
12.27395 140.000
12.29390 129.000
12.31385 122.000
12.33379 148.000
12.35374 134.000
12.37369 124.000
12.39364 141.000
12.41358 145.000
12.43353 131.000
12.45348 130.000
12.47342 136.000
12.49337 129.000
12.51332 154.000
12.53326 126.000
12.55321 123.000
12.57316 123.000
12.59311 150.000
12.61305 118.000
12.63300 129.000
12.65295 122.000
12.67289 157.000
12.69284 129.000
12.71279 121.000
12.73273 157.000
12.75268 152.000
12.77263 134.000
12.79257 130.000
12.81252 152.000
12.83247 123.000
12.85242 137.000
12.87236 134.000
12.89231 147.000
12.91226 141.000
12.93220 148.000
12.95215 117.000
12.97210 147.000
12.99204 130.000
13.01199 125.000
13.03194 131.000
13.05189 138.000
13.07183 156.000
13.09178 125.000
13.11173 148.000
13.13167 120.000
13.15162 149.000
13.17157 133.000
13.19151 133.000
13.21146 129.000
13.23141 128.000
13.25135 146.000
13.27130 119.000
13.29125 134.000
13.31120 131.000
13.33114 136.000
13.35109 132.000
13.37104 139.000
13.39098 138.000
13.41093 125.000
13.43088 130.000
13.45082 116.000
13.47077 145.000
13.49072 147.000
13.51067 110.000
13.53061 130.000
13.55056 129.000
13.57051 131.000
13.59045 120.000
13.61040 126.000
13.63035 140.000
13.65029 133.000
13.67024 115.000
13.69019 124.000
13.71013 145.000
13.73008 159.000
13.75003 129.000
13.76998 151.000
13.78992 147.000
13.80987 149.000
13.82982 139.000
13.84976 116.000
13.86971 131.000
13.88966 145.000
13.90960 130.000
13.92955 129.000
13.94950 141.000
13.96945 114.000
13.98939 131.000
14.00934 145.000
14.02929 151.000
14.04923 141.000
14.06918 117.000
14.08913 124.000
14.10907 134.000
14.12902 147.000
14.14897 131.000
14.16892 144.000
14.18886 136.000
14.20881 123.000
14.22876 142.000
14.24870 122.000
14.26865 139.000
14.28860 126.000
14.30854 149.000
14.32849 141.000
14.34844 121.000
14.36838 126.000
14.38833 138.000
14.40828 142.000
14.42823 126.000
14.44817 135.000
14.46812 134.000
14.48807 153.000
14.50801 152.000
14.52796 113.000
14.54791 142.000
14.56785 133.000
14.58780 133.000
14.60775 152.000
14.62770 134.000
14.64764 149.000
14.66759 138.000
14.68754 137.000
14.70748 144.000
14.72743 134.000
14.74738 130.000
14.76732 124.000
14.78727 147.000
14.80722 153.000
14.82716 121.000
14.84711 113.000
14.86706 141.000
14.88701 136.000
14.90695 109.000
14.92690 142.000
14.94685 120.000
14.96679 126.000
14.98674 141.000
15.00669 144.000
15.02663 136.000
15.04658 146.000
15.06653 129.000
15.08648 155.000
15.10642 144.000
15.12637 144.000
15.14632 158.000
15.16626 160.000
15.18621 173.000
15.20616 136.000
15.22610 140.000
15.24605 156.000
15.26600 144.000
15.28594 191.000
15.30589 162.000
15.32584 166.000
15.34579 162.000
15.36573 162.000
15.38568 168.000
15.40563 156.000
15.42557 154.000
15.44552 182.000
15.46547 160.000
15.48541 174.000
15.50536 175.000
15.52531 178.000
15.54526 187.000
15.56520 192.000
15.58515 189.000
15.60510 195.000
15.62504 236.000
15.64499 243.000
15.66494 237.000
15.68488 274.000
15.70483 308.000
15.72478 318.000
15.74472 393.000
15.76467 504.000
15.78462 687.000
15.80457 911.000
15.82451 1271.000
15.84446 1686.000
15.86441 2173.000
15.88435 2792.000
15.90430 2905.000
15.92425 2390.000
15.94419 1788.000
15.96414 1133.000
15.98409 773.000
16.00404 546.000
16.02398 481.000
16.04393 525.000
16.06388 558.000
16.08382 669.000
16.10377 801.000
16.12372 1075.000
16.14366 1367.000
16.16361 1746.000
16.18356 2136.000
16.20351 2812.000
16.22345 3208.000
16.24340 3518.000
16.26335 3569.000
16.28329 3142.000
16.30324 2489.000
16.32319 1844.000
16.34313 1295.000
16.36308 886.000
16.38303 633.000
16.40297 532.000
16.42292 392.000
16.44287 345.000
16.46282 317.000
16.48276 296.000
16.50271 246.000
16.52266 251.000
16.54260 226.000
16.56255 219.000
16.58250 211.000
16.60244 216.000
16.62239 198.000
16.64234 199.000
16.66229 199.000
16.68223 187.000
16.70218 179.000
16.72213 176.000
16.74207 197.000
16.76202 161.000
16.78197 183.000
16.80191 174.000
16.82186 187.000
16.84181 198.000
16.86175 191.000
16.88170 178.000
16.90165 178.000
16.92160 166.000
16.94154 156.000
16.96149 126.000
16.98144 172.000
17.00138 153.000
17.02133 127.000
17.04128 171.000
17.06122 186.000
17.08117 128.000
17.10112 162.000
17.12107 150.000
17.14101 157.000
17.16096 139.000
17.18091 162.000
17.20085 145.000
17.22080 149.000
17.24075 138.000
17.26069 125.000
17.28064 156.000
17.30059 144.000
17.32053 139.000
17.34048 139.000
17.36043 145.000
17.38038 143.000
17.40032 127.000
17.42027 135.000
17.44022 106.000
17.46016 161.000
17.48011 148.000
17.50006 116.000
17.52000 143.000
17.53995 138.000
17.55990 148.000
17.57985 155.000
17.59979 139.000
17.61974 144.000
17.63969 133.000
17.65963 147.000
17.67958 123.000
17.69953 143.000
17.71947 128.000
17.73942 157.000
17.75937 134.000
17.77932 130.000
17.79926 135.000
17.81921 139.000
17.83916 153.000
17.85910 152.000
17.87905 148.000
17.89900 135.000
17.91894 120.000
17.93889 138.000
17.95884 142.000
17.97878 131.000
17.99873 137.000
18.01868 130.000
18.03863 132.000
18.05857 122.000
18.07852 136.000
18.09847 125.000
18.11841 154.000
18.13836 137.000
18.15831 131.000
18.17825 116.000
18.19820 149.000
18.21815 126.000
18.23810 133.000
18.25804 135.000
18.27799 141.000
18.29794 161.000
18.31788 135.000
18.33783 157.000
18.35778 163.000
18.37772 188.000
18.39767 171.000
18.41762 185.000
18.43756 172.000
18.45751 170.000
18.47746 139.000
18.49741 170.000
18.51735 141.000
18.53730 125.000
18.55725 140.000
18.57719 131.000
18.59714 131.000
18.61709 136.000
18.63703 126.000
18.65698 136.000
18.67693 128.000
18.69688 120.000
18.71682 146.000
18.73677 123.000
18.75672 123.000
18.77666 126.000
18.79661 122.000
18.81656 148.000
18.83650 123.000
18.85645 116.000
18.87640 105.000
18.89634 123.000
18.91629 143.000
18.93624 125.000
18.95619 120.000
18.97613 122.000
18.99608 123.000
19.01603 123.000
19.03597 133.000
19.05592 148.000
19.07587 128.000
19.09581 120.000
19.11576 124.000
19.13571 142.000
19.15566 130.000
19.17560 120.000
19.19555 140.000
19.21550 139.000
19.23544 121.000
19.25539 119.000
19.27534 132.000
19.29528 140.000
19.31523 131.000
19.33518 129.000
19.35513 128.000
19.37507 126.000
19.39502 120.000
19.41497 137.000
19.43491 139.000
19.45486 128.000
19.47481 139.000
19.49475 111.000
19.51470 117.000
19.53465 123.000
19.55459 113.000
19.57454 130.000
19.59449 114.000
19.61444 119.000
19.63438 126.000
19.65433 95.000
19.67428 106.000
19.69422 125.000
19.71417 139.000
19.73412 137.000
19.75406 123.000
19.77401 140.000
19.79396 132.000
19.81391 135.000
19.83385 160.000
19.85380 105.000
19.87375 121.000
19.89369 145.000
19.91364 126.000
19.93359 145.000
19.95353 133.000
19.97348 125.000
19.99343 99.000
20.01337 127.000
20.03332 122.000
20.05327 145.000
20.07322 116.000
20.09316 127.000
20.11311 143.000
20.13306 127.000
20.15300 137.000
20.17295 145.000
20.19290 116.000
20.21284 128.000
20.23279 130.000
20.25274 142.000
20.27269 147.000
20.29263 139.000
20.31258 126.000
20.33253 119.000
20.35247 121.000
20.37242 141.000
20.39237 137.000
20.41231 135.000
20.43226 136.000
20.45221 141.000
20.47215 122.000
20.49210 142.000
20.51205 156.000
20.53200 156.000
20.55194 133.000
20.57189 135.000
20.59184 129.000
20.61178 140.000
20.63173 150.000
20.65168 132.000
20.67162 135.000
20.69157 154.000
20.71152 156.000
20.73147 180.000
20.75141 208.000
20.77136 232.000
20.79131 207.000
20.81125 316.000
20.83120 298.000
20.85115 344.000
20.87109 353.000
20.89104 400.000
20.91099 357.000
20.93094 304.000
20.95088 312.000
20.97083 259.000
20.99078 243.000
21.01072 221.000
21.03067 197.000
21.05062 227.000
21.07056 175.000
21.09051 158.000
21.11046 153.000
21.13040 167.000
21.15035 157.000
21.17030 146.000
21.19025 132.000
21.21019 121.000
21.23014 128.000
21.25009 146.000
21.27003 148.000
21.28998 137.000
21.30993 134.000
21.32987 118.000
21.34982 128.000
21.36977 112.000
21.38972 164.000
21.40966 131.000
21.42961 127.000
21.44956 148.000
21.46950 113.000
21.48945 156.000
21.50940 122.000
21.52934 106.000
21.54929 111.000
21.56924 127.000
21.58918 135.000
21.60913 130.000
21.62908 125.000
21.64903 119.000
21.66897 131.000
21.68892 134.000
21.70887 131.000
21.72881 146.000
21.74876 132.000
21.76871 131.000
21.78865 103.000
21.80860 117.000
21.82855 154.000
21.84850 115.000
21.86844 138.000
21.88839 135.000
21.90834 125.000
21.92828 132.000
21.94823 133.000
21.96818 105.000
21.98812 130.000
22.00807 142.000
22.02802 129.000
22.04796 146.000
22.06791 133.000
22.08786 140.000
22.10781 126.000
22.12775 126.000
22.14770 161.000
22.16765 117.000
22.18759 134.000
22.20754 136.000
22.22749 110.000
22.24743 121.000
22.26738 139.000
22.28733 125.000
22.30728 115.000
22.32722 117.000
22.34717 116.000
22.36712 138.000
22.38706 152.000
22.40701 130.000
22.42696 124.000
22.44690 121.000
22.46685 146.000
22.48680 134.000
22.50675 131.000
22.52669 141.000
22.54664 132.000
22.56659 136.000
22.58653 148.000
22.60648 141.000
22.62643 120.000
22.64637 133.000
22.66632 130.000
22.68627 124.000
22.70621 130.000
22.72616 123.000
22.74611 114.000
22.76606 132.000
22.78600 138.000
22.80595 138.000
22.82590 114.000
22.84584 133.000
22.86579 125.000
22.88574 138.000
22.90568 137.000
22.92563 144.000
22.94558 122.000
22.96553 125.000
22.98547 143.000
23.00542 141.000
23.02537 132.000
23.04531 114.000
23.06526 121.000
23.08521 144.000
23.10515 135.000
23.12510 135.000
23.14505 130.000
23.16499 142.000
23.18494 125.000
23.20489 140.000
23.22484 117.000
23.24478 113.000
23.26473 143.000
23.28468 143.000
23.30462 119.000
23.32457 145.000
23.34452 140.000
23.36446 129.000
23.38441 115.000
23.40436 133.000
23.42431 106.000
23.44425 144.000
23.46420 107.000
23.48415 125.000
23.50409 129.000
23.52404 130.000
23.54399 130.000
23.56393 122.000
23.58388 131.000
23.60383 131.000
23.62377 146.000
23.64372 146.000
23.66367 137.000
23.68362 156.000
23.70356 119.000
23.72351 125.000
23.74346 136.000
23.76340 129.000
23.78335 134.000
23.80330 133.000
23.82324 111.000
23.84319 142.000
23.86314 111.000
23.88309 136.000
23.90303 145.000
23.92298 113.000
23.94293 111.000
23.96287 117.000
23.98282 138.000
24.00277 131.000
24.02271 136.000
24.04266 138.000
24.06261 109.000
24.08256 122.000
24.10250 119.000
24.12245 141.000
24.14240 153.000
24.16234 146.000
24.18229 152.000
24.20224 139.000
24.22218 100.000
24.24213 129.000
24.26208 152.000
24.28202 129.000
24.30197 131.000
24.32192 151.000
24.34187 133.000
24.36181 129.000
24.38176 129.000
24.40171 133.000
24.42165 135.000
24.44160 120.000
24.46155 135.000
24.48149 138.000
24.50144 132.000
24.52139 103.000
24.54134 136.000
24.56128 123.000
24.58123 149.000
24.60118 153.000
24.62112 133.000
24.64107 130.000
24.66102 140.000
24.68096 136.000
24.70091 133.000
24.72086 148.000
24.74080 125.000
24.76075 121.000
24.78070 139.000
24.80065 132.000
24.82059 129.000
24.84054 134.000
24.86049 145.000
24.88043 145.000
24.90038 129.000
24.92033 151.000
24.94027 126.000
24.96022 165.000
24.98017 148.000
25.00012 163.000
25.02006 150.000
25.04001 145.000
25.05996 146.000
25.07990 148.000
25.09985 119.000
25.11980 139.000
25.13974 116.000
25.15969 127.000
25.17964 127.000
25.19958 142.000
25.21953 125.000
25.23948 118.000
25.25943 146.000
25.27937 152.000
25.29932 127.000
25.31927 133.000
25.33921 140.000
25.35916 137.000
25.37911 121.000
25.39905 119.000
25.41900 119.000
25.43895 150.000
25.45890 140.000
25.47884 114.000
25.49879 133.000
25.51874 135.000
25.53868 131.000
25.55863 135.000
25.57858 136.000
25.59852 124.000
25.61847 139.000
25.63842 127.000
25.65837 121.000
25.67831 128.000
25.69826 111.000
25.71821 128.000
25.73815 138.000
25.75810 133.000
25.77805 143.000
25.79799 142.000
25.81794 135.000
25.83789 110.000
25.85783 118.000
25.87778 132.000
25.89773 146.000
25.91768 131.000
25.93762 118.000
25.95757 126.000
25.97752 150.000
25.99746 147.000
26.01741 123.000
26.03736 158.000
26.05730 146.000
26.07725 133.000
26.09720 129.000
26.11715 124.000
26.13709 137.000
26.15704 120.000
26.17699 128.000
26.19693 123.000
26.21688 134.000
26.23683 139.000
26.25677 154.000
26.27672 132.000
26.29667 141.000
26.31661 131.000
26.33656 136.000
26.35651 142.000
26.37646 130.000
26.39640 148.000
26.41635 130.000
26.43630 130.000
26.45624 145.000
26.47619 138.000
26.49614 119.000
26.51608 155.000
26.53603 138.000
26.55598 141.000
26.57593 140.000
26.59587 146.000
26.61582 137.000
26.63577 136.000
26.65571 138.000
26.67566 137.000
26.69561 144.000
26.71555 130.000
26.73550 121.000
26.75545 132.000
26.77539 113.000
26.79534 126.000
26.81529 136.000
26.83524 120.000
26.85518 139.000
26.87513 122.000
26.89508 128.000
26.91502 134.000
26.93497 131.000
26.95492 130.000
26.97486 154.000
26.99481 129.000
27.01476 145.000
27.03471 132.000
27.05465 137.000
27.07460 133.000
27.09455 141.000
27.11449 137.000
27.13444 125.000
27.15439 146.000
27.17433 141.000
27.19428 130.000
27.21423 135.000
27.23417 146.000
27.25412 127.000
27.27407 150.000
27.29402 138.000
27.31396 138.000
27.33391 159.000
27.35386 115.000
27.37380 141.000
27.39375 124.000
27.41370 139.000
27.43364 123.000
27.45359 145.000
27.47354 157.000
27.49349 120.000
27.51343 118.000
27.53338 127.000
27.55333 141.000
27.57327 121.000
27.59322 138.000
27.61317 138.000
27.63311 141.000
27.65306 155.000
27.67301 133.000
27.69296 138.000
27.71290 127.000
27.73285 105.000
27.75280 128.000
27.77274 150.000
27.79269 126.000
27.81264 112.000
27.83258 149.000
27.85253 124.000
27.87248 130.000
27.89242 143.000
27.91237 139.000
27.93232 137.000
27.95227 138.000
27.97221 140.000
27.99216 118.000
28.01211 138.000
28.03205 146.000
28.05200 141.000
28.07195 157.000
28.09189 158.000
28.11184 145.000
28.13179 158.000
28.15174 132.000
28.17168 140.000
28.19163 135.000
28.21158 126.000
28.23152 140.000
28.25147 131.000
28.27142 146.000
28.29136 131.000
28.31131 134.000
28.33126 137.000
28.35120 143.000
28.37115 127.000
28.39110 134.000
28.41105 150.000
28.43099 140.000
28.45094 105.000
28.47089 123.000
28.49083 138.000
28.51078 155.000
28.53073 145.000
28.55067 125.000
28.57062 128.000
28.59057 110.000
28.61052 131.000
28.63046 130.000
28.65041 146.000
28.67036 148.000
28.69030 131.000
28.71025 136.000
28.73020 131.000
28.75014 129.000
28.77009 130.000
28.79004 142.000
28.80998 124.000
28.82993 130.000
28.84988 133.000
28.86983 146.000
28.88977 141.000
28.90972 150.000
28.92967 123.000
28.94961 136.000
28.96956 147.000
28.98951 142.000
29.00945 146.000
29.02940 134.000
29.04935 134.000
29.06930 128.000
29.08924 135.000
29.10919 139.000
29.12914 131.000
29.14908 136.000
29.16903 167.000
29.18898 144.000
29.20892 151.000
29.22887 159.000
29.24882 179.000
29.26877 175.000
29.28871 169.000
29.30866 195.000
29.32861 218.000
29.34855 186.000
29.36850 226.000
29.38845 225.000
29.40839 224.000
29.42834 222.000
29.44829 203.000
29.46823 175.000
29.48818 182.000
29.50813 174.000
29.52808 152.000
29.54802 176.000
29.56797 142.000
29.58792 136.000
29.60786 138.000
29.62781 156.000
29.64776 150.000
29.66770 144.000
29.68765 148.000
29.70760 139.000
29.72755 129.000
29.74749 148.000
29.76744 131.000
29.78739 135.000
29.80733 124.000
29.82728 137.000
29.84723 148.000
29.86717 140.000
29.88712 138.000
29.90707 158.000
29.92701 138.000
29.94696 149.000
29.96691 156.000
29.98686 135.000
30.00680 171.000
30.02675 151.000
30.04670 162.000
30.06664 153.000
30.08659 150.000
30.10654 171.000
30.12648 160.000
30.14643 173.000
30.16638 173.000
30.18633 189.000
30.20627 208.000
30.22622 214.000
30.24617 230.000
30.26611 260.000
30.28606 286.000
30.30601 251.000
30.32595 228.000
30.34590 222.000
30.36585 203.000
30.38579 190.000
30.40574 163.000
30.42569 162.000
30.44564 153.000
30.46558 154.000
30.48553 141.000
30.50548 136.000
30.52542 152.000
30.54537 138.000
30.56532 165.000
30.58526 161.000
30.60521 141.000
30.62516 149.000
30.64511 139.000
30.66505 152.000
30.68500 143.000
30.70495 157.000
30.72489 145.000
30.74484 126.000
30.76479 147.000
30.78473 141.000
30.80468 133.000
30.82463 142.000
30.84458 142.000
30.86452 150.000
30.88447 127.000
30.90442 147.000
30.92436 152.000
30.94431 124.000
30.96426 141.000
30.98420 145.000
31.00415 170.000
31.02410 132.000
31.04404 141.000
31.06399 131.000
31.08394 122.000
31.10389 119.000
31.12383 124.000
31.14378 143.000
31.16373 134.000
31.18367 142.000
31.20362 140.000
31.22357 120.000
31.24351 155.000
31.26346 130.000
31.28341 143.000
31.30336 130.000
31.32330 140.000
31.34325 129.000
31.36320 150.000
31.38314 141.000
31.40309 149.000
31.42304 131.000
31.44298 134.000
31.46293 136.000
31.48288 140.000
31.50282 155.000
31.52277 154.000
31.54272 155.000
31.56267 133.000
31.58261 129.000
31.60256 145.000
31.62251 163.000
31.64245 137.000
31.66240 146.000
31.68235 140.000
31.70229 143.000
31.72224 125.000
31.74219 146.000
31.76214 119.000
31.78208 134.000
31.80203 126.000
31.82198 165.000
31.84192 146.000
31.86187 137.000
31.88182 148.000
31.90176 164.000
31.92171 164.000
31.94166 177.000
31.96160 188.000
31.98155 201.000
32.00150 212.000
32.02145 212.000
32.04139 250.000
32.06134 268.000
32.08129 281.000
32.10123 328.000
32.12118 372.000
32.14113 328.000
32.16107 348.000
32.18102 289.000
32.20097 254.000
32.22092 242.000
32.24086 215.000
32.26081 198.000
32.28076 154.000
32.30070 176.000
32.32065 171.000
32.34060 168.000
32.36054 154.000
32.38049 168.000
32.40044 161.000
32.42039 161.000
32.44033 156.000
32.46028 175.000
32.48023 167.000
32.50017 155.000
32.52012 204.000
32.54007 179.000
32.56001 184.000
32.57996 205.000
32.59991 179.000
32.61985 218.000
32.63980 209.000
32.65975 217.000
32.67970 259.000
32.69964 286.000
32.71959 294.000
32.73954 329.000
32.75948 336.000
32.77943 372.000
32.79938 385.000
32.81932 363.000
32.83927 405.000
32.85922 424.000
32.87917 426.000
32.89911 376.000
32.91906 400.000
32.93901 399.000
32.95895 349.000
32.97890 318.000
32.99885 291.000
33.01879 272.000
33.03874 252.000
33.05869 233.000
33.07863 200.000
33.09858 199.000
33.11853 183.000
33.13848 183.000
33.15842 170.000
33.17837 174.000
33.19832 172.000
33.21826 157.000
33.23821 168.000
33.25816 150.000
33.27810 155.000
33.29805 129.000
33.31800 156.000
33.33795 131.000
33.35789 152.000
33.37784 156.000
33.39779 134.000
33.41773 131.000
33.43768 140.000
33.45763 143.000
33.47757 153.000
33.49752 147.000
33.51747 153.000
33.53741 160.000
33.55736 147.000
33.57731 138.000
33.59726 146.000
33.61720 142.000
33.63715 152.000
33.65710 168.000
33.67704 126.000
33.69699 161.000
33.71694 154.000
33.73688 151.000
33.75683 140.000
33.77678 150.000
33.79673 137.000
33.81667 152.000
33.83662 155.000
33.85657 144.000
33.87651 142.000
33.89646 158.000
33.91641 149.000
33.93635 154.000
33.95630 176.000
33.97625 155.000
33.99620 160.000
34.01614 168.000
34.03609 163.000
34.05604 154.000
34.07598 162.000
34.09593 176.000
34.11588 187.000
34.13582 167.000
34.15577 184.000
34.17572 194.000
34.19566 194.000
34.21561 201.000
34.23556 207.000
34.25551 238.000
34.27545 247.000
34.29540 256.000
34.31535 237.000
34.33529 333.000
34.35524 325.000
34.37519 328.000
34.39513 377.000
34.41508 341.000
34.43503 363.000
34.45498 378.000
34.47492 357.000
34.49487 318.000
34.51482 319.000
34.53476 304.000
34.55471 296.000
34.57466 280.000
34.59460 259.000
34.61455 243.000
34.63450 256.000
34.65444 222.000
34.67439 208.000
34.69434 190.000
34.71429 201.000
34.73423 197.000
34.75418 188.000
34.77413 166.000
34.79407 207.000
34.81402 204.000
34.83397 198.000
34.85391 202.000
34.87386 207.000
34.89381 199.000
34.91376 189.000
34.93370 171.000
34.95365 203.000
34.97360 177.000
34.99354 158.000
35.01349 186.000
35.03344 146.000
35.05338 159.000
35.07333 155.000
35.09328 148.000
35.11322 200.000
35.13317 195.000
35.15312 183.000
35.17307 200.000
35.19301 183.000
35.21296 192.000
35.23291 195.000
35.25285 209.000
35.27280 244.000
35.29275 231.000
35.31269 262.000
35.33264 302.000
35.35259 276.000
35.37254 312.000
35.39248 337.000
35.41243 355.000
35.43238 434.000
35.45232 470.000
35.47227 560.000
35.49222 646.000
35.51216 732.000
35.53211 751.000
35.55206 798.000
35.57201 785.000
35.59195 848.000
35.61190 850.000
35.63185 997.000
35.65179 1002.000
35.67174 942.000
35.69169 791.000
35.71163 677.000
35.73158 667.000
35.75153 600.000
35.77147 585.000
35.79142 477.000
35.81137 388.000
35.83132 357.000
35.85126 301.000
35.87121 288.000
35.89116 249.000
35.91110 230.000
35.93105 223.000
35.95100 242.000
35.97094 222.000
35.99089 215.000
36.01084 207.000
36.03079 180.000
36.05073 201.000
36.07068 195.000
36.09063 214.000
36.11057 201.000
36.13052 180.000
36.15047 191.000
36.17041 183.000
36.19036 169.000
36.21031 176.000
36.23025 181.000
36.25020 158.000
36.27015 177.000
36.29010 184.000
36.31004 204.000
36.32999 201.000
36.34994 193.000
36.36988 200.000
36.38983 177.000
36.40978 197.000
36.42972 191.000
36.44967 194.000
36.46962 213.000
36.48957 189.000
36.50951 194.000
36.52946 210.000
36.54941 225.000
36.56935 201.000
36.58930 224.000
36.60925 229.000
36.62919 265.000
36.64914 301.000
36.66909 319.000
36.68903 323.000
36.70898 366.000
36.72893 460.000
36.74888 497.000
36.76882 562.000
36.78877 613.000
36.80872 717.000
36.82866 772.000
36.84861 766.000
36.86856 818.000
36.88850 813.000
36.90845 883.000
36.92840 892.000
36.94835 909.000
36.96829 868.000
36.98824 830.000
37.00819 847.000
37.02813 793.000
37.04808 723.000
37.06803 749.000
37.08797 655.000
37.10792 651.000
37.12787 581.000
37.14781 557.000
37.16776 518.000
37.18771 404.000
37.20766 422.000
37.22760 362.000
37.24755 282.000
37.26750 303.000
37.28744 304.000
37.30739 252.000
37.32734 238.000
37.34728 252.000
37.36723 195.000
37.38718 209.000
37.40713 200.000
37.42707 202.000
37.44702 191.000
37.46697 178.000
37.48691 178.000
37.50686 188.000
37.52681 159.000
37.54675 167.000
37.56670 173.000
37.58665 142.000
37.60660 160.000
37.62654 176.000
37.64649 153.000
37.66644 157.000
37.68638 177.000
37.70633 140.000
37.72628 153.000
37.74622 156.000
37.76617 151.000
37.78612 185.000
37.80606 142.000
37.82601 165.000
37.84596 167.000
37.86591 178.000
37.88585 156.000
37.90580 165.000
37.92575 170.000
37.94569 167.000
37.96564 178.000
37.98559 194.000
38.00553 184.000
38.02548 187.000
38.04543 168.000
38.06538 162.000
38.08532 181.000
38.10527 171.000
38.12522 183.000
38.14516 171.000
38.16511 164.000
38.18506 139.000
38.20500 161.000
38.22495 147.000
38.24490 154.000
38.26484 183.000
38.28479 188.000
38.30474 149.000
38.32469 170.000
38.34463 165.000
38.36458 154.000
38.38453 183.000
38.40447 176.000
38.42442 162.000
38.44437 175.000
38.46431 173.000
38.48426 170.000
38.50421 197.000
38.52416 187.000
38.54410 179.000
38.56405 225.000
38.58400 226.000
38.60394 218.000
38.62389 217.000
38.64384 218.000
38.66378 227.000
38.68373 255.000
38.70368 249.000
38.72362 269.000
38.74357 274.000
38.76352 225.000
38.78347 237.000
38.80341 247.000
38.82336 247.000
38.84331 221.000
38.86325 225.000
38.88320 216.000
38.90315 227.000
38.92309 240.000
38.94304 197.000
38.96299 240.000
38.98294 231.000
39.00288 222.000
39.02283 234.000
39.04278 217.000
39.06272 249.000
39.08267 293.000
39.10262 278.000
39.12256 330.000
39.14251 332.000
39.16246 366.000
39.18241 391.000
39.20235 421.000
39.22230 419.000
39.24225 471.000
39.26219 434.000
39.28214 449.000
39.30209 442.000
39.32203 417.000
39.34198 402.000
39.36193 363.000
39.38187 309.000
39.40182 296.000
39.42177 274.000
39.44172 248.000
39.46166 234.000
39.48161 225.000
39.50156 223.000
39.52150 163.000
39.54145 155.000
39.56140 184.000
39.58134 182.000
39.60129 168.000
39.62124 164.000
39.64119 143.000
39.66113 172.000
39.68108 154.000
39.70103 153.000
39.72097 170.000
39.74092 166.000
39.76087 171.000
39.78081 147.000
39.80076 170.000
39.82071 156.000
39.84065 167.000
39.86060 193.000
39.88055 171.000
39.90050 160.000
39.92044 190.000
39.94039 158.000
39.96034 172.000
39.98028 156.000
40.00023 154.000
40.02018 165.000
40.04012 154.000
40.06007 170.000
40.08002 155.000
40.09997 148.000
40.11991 149.000
40.13986 153.000
40.15981 164.000
40.17975 133.000
40.19970 155.000
40.21965 152.000
40.23959 134.000
40.25954 172.000
40.27949 155.000
40.29943 156.000
40.31938 151.000
40.33933 142.000
40.35928 135.000
40.37922 186.000
40.39917 165.000
40.41912 147.000
40.43906 142.000
40.45901 143.000
40.47896 145.000
40.49890 134.000
40.51885 159.000
40.53880 146.000
40.55875 171.000
40.57869 166.000
40.59864 141.000
40.61859 148.000
40.63853 129.000
40.65848 161.000
40.67843 172.000
40.69837 150.000
40.71832 159.000
40.73827 179.000
40.75822 134.000
40.77816 150.000
40.79811 182.000
40.81806 156.000
40.83800 157.000
40.85795 172.000
40.87790 154.000
40.89784 158.000
40.91779 148.000
40.93774 168.000
40.95768 163.000
40.97763 187.000
40.99758 152.000
41.01753 177.000
41.03747 170.000
41.05742 179.000
41.07737 170.000
41.09731 169.000
41.11726 181.000
41.13721 187.000
41.15715 172.000
41.17710 153.000
41.19705 190.000
41.21700 180.000
41.23694 231.000
41.25689 201.000
41.27684 229.000
41.29678 196.000
41.31673 201.000
41.33668 244.000
41.35662 225.000
41.37657 267.000
41.39652 296.000
41.41646 323.000
41.43641 321.000
41.45636 353.000
41.47631 423.000
41.49625 479.000
41.51620 527.000
41.53615 667.000
41.55609 843.000
41.57604 1130.000
41.59599 1430.000
41.61593 1854.000
41.63588 2241.000
41.65583 2436.000
41.67578 2384.000
41.69572 2218.000
41.71567 2086.000
41.73562 1921.000
41.75556 1710.000
41.77551 1650.000
41.79546 1390.000
41.81540 1223.000
41.83535 908.000
41.85530 669.000
41.87524 591.000
41.89519 457.000
41.91514 425.000
41.93509 361.000
41.95503 285.000
41.97498 293.000
41.99493 263.000
42.01487 271.000
42.03482 237.000
42.05477 268.000
42.07471 224.000
42.09466 224.000
42.11461 212.000
42.13456 219.000
42.15450 248.000
42.17445 205.000
42.19440 189.000
42.21434 205.000
42.23429 231.000
42.25424 213.000
42.27418 211.000
42.29413 195.000
42.31408 223.000
42.33403 182.000
42.35397 190.000
42.37392 198.000
42.39387 208.000
42.41381 221.000
42.43376 213.000
42.45371 217.000
42.47365 245.000
42.49360 217.000
42.51355 235.000
42.53349 229.000
42.55344 234.000
42.57339 227.000
42.59334 239.000
42.61328 248.000
42.63323 245.000
42.65318 267.000
42.67312 291.000
42.69307 284.000
42.71302 315.000
42.73296 310.000
42.75291 286.000
42.77286 329.000
42.79281 349.000
42.81275 370.000
42.83270 414.000
42.85265 400.000
42.87259 457.000
42.89254 494.000
42.91249 489.000
42.93243 554.000
42.95238 539.000
42.97233 597.000
42.99227 681.000
43.01222 692.000
43.03217 657.000
43.05212 727.000
43.07206 698.000
43.09201 690.000
43.11196 686.000
43.13190 726.000
43.15185 633.000
43.17180 630.000
43.19174 644.000
43.21169 600.000
43.23164 561.000
43.25159 487.000
43.27153 501.000
43.29148 520.000
43.31143 525.000
43.33137 519.000
43.35132 477.000
43.37127 509.000
43.39121 474.000
43.41116 443.000
43.43111 453.000
43.45105 439.000
43.47100 382.000
43.49095 362.000
43.51090 301.000
43.53084 285.000
43.55079 247.000
43.57074 248.000
43.59068 232.000
43.61063 253.000
43.63058 198.000
43.65052 196.000
43.67047 176.000
43.69042 206.000
43.71037 185.000
43.73031 190.000
43.75026 181.000
43.77021 191.000
43.79015 155.000
43.81010 175.000
43.83005 158.000
43.84999 180.000
43.86994 179.000
43.88989 171.000
43.90984 188.000
43.92978 146.000
43.94973 143.000
43.96968 140.000
43.98962 149.000
44.00957 174.000
44.02952 161.000
44.04946 148.000
44.06941 160.000
44.08936 148.000
44.10930 154.000
44.12925 141.000
44.14920 158.000
44.16915 173.000
44.18909 162.000
44.20904 152.000
44.22899 123.000
44.24893 150.000
44.26888 178.000
44.28883 152.000
44.30877 144.000
44.32872 153.000
44.34867 133.000
44.36862 151.000
44.38856 185.000
44.40851 163.000
44.42846 144.000
44.44840 153.000
44.46835 160.000
44.48830 174.000
44.50824 142.000
44.52819 148.000
44.54814 176.000
44.56808 172.000
44.58803 151.000
44.60798 148.000
44.62793 162.000
44.64787 146.000
44.66782 139.000
44.68777 146.000
44.70771 168.000
44.72766 159.000
44.74761 162.000
44.76755 165.000
44.78750 171.000
44.80745 140.000
44.82740 171.000
44.84734 162.000
44.86729 142.000
44.88724 142.000
44.90718 174.000
44.92713 150.000
44.94708 202.000
44.96702 230.000
44.98697 239.000
45.00692 235.000
45.02686 198.000
45.04681 216.000
45.06676 213.000
45.08671 201.000
45.10665 220.000
45.12660 201.000
45.14655 172.000
45.16649 169.000
45.18644 188.000
45.20639 148.000
45.22633 161.000
45.24628 150.000
45.26623 136.000
45.28618 128.000
45.30612 156.000
45.32607 143.000
45.34602 135.000
45.36596 152.000
45.38591 152.000
45.40586 170.000
45.42580 132.000
45.44575 141.000
45.46570 133.000
45.48565 147.000
45.50559 158.000
45.52554 149.000
45.54549 163.000
45.56543 147.000
45.58538 150.000
45.60533 147.000
45.62527 143.000
45.64522 143.000
45.66517 148.000
45.68511 150.000
45.70506 108.000
45.72501 158.000
45.74496 132.000
45.76490 126.000
45.78485 127.000
45.80480 134.000
45.82474 167.000
45.84469 158.000
45.86464 131.000
45.88458 127.000
45.90453 142.000
45.92448 144.000
45.94443 118.000
45.96437 133.000
45.98432 165.000
46.00427 148.000
46.02421 133.000
46.04416 149.000
46.06411 129.000
46.08405 124.000
46.10400 125.000
46.12395 136.000
46.14389 131.000
46.16384 131.000
46.18379 145.000
46.20374 156.000
46.22368 141.000
46.24363 131.000
46.26358 152.000
46.28352 138.000
46.30347 159.000
46.32342 120.000
46.34336 155.000
46.36331 141.000
46.38326 151.000
46.40321 138.000
46.42315 107.000
46.44310 140.000
46.46305 146.000
46.48299 134.000
46.50294 117.000
46.52289 154.000
46.54283 155.000
46.56278 155.000
46.58273 145.000
46.60267 142.000
46.62262 158.000
46.64257 142.000
46.66252 130.000
46.68246 150.000
46.70241 139.000
46.72236 157.000
46.74230 139.000
46.76225 121.000
46.78220 134.000
46.80214 131.000
46.82209 122.000
46.84204 113.000
46.86199 139.000
46.88193 127.000
46.90188 141.000
46.92183 129.000
46.94177 144.000
46.96172 157.000
46.98167 143.000
47.00161 145.000
47.02156 147.000
47.04151 133.000
47.06146 132.000
47.08140 122.000
47.10135 150.000
47.12130 132.000
47.14124 123.000
47.16119 131.000
47.18114 155.000
47.20108 136.000
47.22103 138.000
47.24098 129.000
47.26092 130.000
47.28087 157.000
47.30082 129.000
47.32077 126.000
47.34071 130.000
47.36066 157.000
47.38061 131.000
47.40055 130.000
47.42050 107.000
47.44045 144.000
47.46039 136.000
47.48034 139.000
47.50029 148.000
47.52024 120.000
47.54018 130.000
47.56013 133.000
47.58008 129.000
47.60002 152.000
47.61997 149.000
47.63992 142.000
47.65986 157.000
47.67981 141.000
47.69976 161.000
47.71970 147.000
47.73965 151.000
47.75960 143.000
47.77955 132.000
47.79949 129.000
47.81944 136.000
47.83939 144.000
47.85933 163.000
47.87928 146.000
47.89923 138.000
47.91917 148.000
47.93912 161.000
47.95907 145.000
47.97902 125.000
47.99896 143.000
48.01891 140.000
48.03886 153.000
48.05880 157.000
48.07875 157.000
48.09870 156.000
48.11864 166.000
48.13859 159.000
48.15854 153.000
48.17848 152.000
48.19843 158.000
48.21838 166.000
48.23833 134.000
48.25827 163.000
48.27822 175.000
48.29817 147.000
48.31811 147.000
48.33806 157.000
48.35801 159.000
48.37795 163.000
48.39790 157.000
48.41785 171.000
48.43780 164.000
48.45774 180.000
48.47769 184.000
48.49764 183.000
48.51758 195.000
48.53753 209.000
48.55748 201.000
48.57742 259.000
48.59737 248.000
48.61732 312.000
48.63726 334.000
48.65721 358.000
48.67716 401.000
48.69711 419.000
48.71705 402.000
48.73700 431.000
48.75695 423.000
48.77689 372.000
48.79684 353.000
48.81679 354.000
48.83673 353.000
48.85668 326.000
48.87663 302.000
48.89658 284.000
48.91652 270.000
48.93647 236.000
48.95642 225.000
48.97636 192.000
48.99631 194.000
49.01626 174.000
49.03620 181.000
49.05615 183.000
49.07610 158.000
49.09605 161.000
49.11599 153.000
49.13594 165.000
49.15589 150.000
49.17583 154.000
49.19578 175.000
49.21573 132.000
49.23567 159.000
49.25562 155.000
49.27557 164.000
49.29551 154.000
49.31546 160.000
49.33541 171.000
49.35536 158.000
49.37530 126.000
49.39525 130.000
49.41520 168.000
49.43514 170.000
49.45509 136.000
49.47504 147.000
49.49498 154.000
49.51493 162.000
49.53488 130.000
49.55483 155.000
49.57477 144.000
49.59472 164.000
49.61467 151.000
49.63461 156.000
49.65456 155.000
49.67451 153.000
49.69445 148.000
49.71440 141.000
49.73435 161.000
49.75429 146.000
49.77424 135.000
49.79419 130.000
49.81414 118.000
49.83408 127.000
49.85403 124.000
49.87398 126.000
49.89392 146.000
49.91387 142.000
49.93382 129.000
49.95376 157.000
49.97371 153.000
49.99366 144.000
50.01361 124.000
50.03355 141.000
50.05350 152.000
50.07345 142.000
50.09339 133.000
50.11334 158.000
50.13329 131.000
50.15323 121.000
50.17318 114.000
50.19313 145.000
50.21307 126.000
50.23302 116.000
50.25297 125.000
50.27292 124.000
50.29286 112.000
50.31281 127.000
50.33276 138.000
50.35270 137.000
50.37265 129.000
50.39260 146.000
50.41254 129.000
50.43249 147.000
50.45244 141.000
50.47239 140.000
50.49233 120.000
50.51228 127.000
50.53223 140.000
50.55217 150.000
50.57212 129.000
50.59207 157.000
50.61201 120.000
50.63196 147.000
50.65191 116.000
50.67186 127.000
50.69180 144.000
50.71175 121.000
50.73170 132.000
50.75164 141.000
50.77159 134.000
50.79154 138.000
50.81148 104.000
50.83143 137.000
50.85138 139.000
50.87132 141.000
50.89127 127.000
50.91122 149.000
50.93117 131.000
50.95111 120.000
50.97106 101.000
50.99101 113.000
51.01095 156.000
51.03090 136.000
51.05085 132.000
51.07079 129.000
51.09074 131.000
51.11069 133.000
51.13064 151.000
51.15058 142.000
51.17053 145.000
51.19048 150.000
51.21042 140.000
51.23037 129.000
51.25032 117.000
51.27026 125.000
51.29021 129.000
51.31016 120.000
51.33010 123.000
51.35005 132.000
51.37000 115.000
51.38995 149.000
51.40989 154.000
51.42984 141.000
51.44979 143.000
51.46973 138.000
51.48968 153.000
51.50963 125.000
51.52957 122.000
51.54952 140.000
51.56947 125.000
51.58942 109.000
51.60936 131.000
51.62931 133.000
51.64926 133.000
51.66920 129.000
51.68915 118.000
51.70910 134.000
51.72904 118.000
51.74899 123.000
51.76894 141.000
51.78888 126.000
51.80883 135.000
51.82878 147.000
51.84873 134.000
51.86867 136.000
51.88862 137.000
51.90857 129.000
51.92851 133.000
51.94846 133.000
51.96841 153.000
51.98835 170.000
52.00830 130.000
52.02825 150.000
52.04820 149.000
52.06814 171.000
52.08809 159.000
52.10804 160.000
52.12798 154.000
52.14793 154.000
52.16788 146.000
52.18782 139.000
52.20777 166.000
52.22772 128.000
52.24767 161.000
52.26761 164.000
52.28756 165.000
52.30751 124.000
52.32745 154.000
52.34740 133.000
52.36735 138.000
52.38729 136.000
52.40724 152.000
52.42719 135.000
52.44713 129.000
52.46708 147.000
52.48703 164.000
52.50698 147.000
52.52692 140.000
52.54687 131.000
52.56682 127.000
52.58676 137.000
52.60671 140.000
52.62666 137.000
52.64660 135.000
52.66655 134.000
52.68650 158.000
52.70645 138.000
52.72639 158.000
52.74634 149.000
52.76629 119.000
52.78623 159.000
52.80618 145.000
52.82613 159.000
52.84607 160.000
52.86602 151.000
52.88597 154.000
52.90591 167.000
52.92586 207.000
52.94581 213.000
52.96576 231.000
52.98570 224.000
53.00565 295.000
53.02560 325.000
53.04554 396.000
53.06549 399.000
53.08544 454.000
53.10538 440.000
53.12533 456.000
53.14528 389.000
53.16523 359.000
53.18517 334.000
53.20512 375.000
53.22507 340.000
53.24501 320.000
53.26496 304.000
53.28491 279.000
53.30485 231.000
53.32480 225.000
53.34475 210.000
53.36469 188.000
53.38464 178.000
53.40459 173.000
53.42454 152.000
53.44448 152.000
53.46443 160.000
53.48438 172.000
53.50432 142.000
53.52427 150.000
53.54422 158.000
53.56416 178.000
53.58411 163.000
53.60406 143.000
53.62401 140.000
53.64395 154.000
53.66390 170.000
53.68385 140.000
53.70379 153.000
53.72374 152.000
53.74369 144.000
53.76363 174.000
53.78358 186.000
53.80353 188.000
53.82348 160.000
53.84342 168.000
53.86337 162.000
53.88332 146.000
53.90326 150.000
53.92321 171.000
53.94316 164.000
53.96310 157.000
53.98305 128.000
54.00300 178.000
54.02294 156.000
54.04289 146.000
54.06284 144.000
54.08279 150.000
54.10273 159.000
54.12268 125.000
54.14263 150.000
54.16257 138.000
54.18252 157.000
54.20247 140.000
54.22241 150.000
54.24236 129.000
54.26231 132.000
54.28226 134.000
54.30220 130.000
54.32215 152.000
54.34210 141.000
54.36204 129.000
54.38199 126.000
54.40194 127.000
54.42188 130.000
54.44183 130.000
54.46178 140.000
54.48172 127.000
54.50167 155.000
54.52162 155.000
54.54157 131.000
54.56151 120.000
54.58146 150.000
54.60141 145.000
54.62135 136.000
54.64130 122.000
54.66125 128.000
54.68119 118.000
54.70114 132.000
54.72109 137.000
54.74104 134.000
54.76098 153.000
54.78093 144.000
54.80088 124.000
54.82082 136.000
54.84077 145.000
54.86072 119.000
54.88066 137.000
54.90061 115.000
54.92056 120.000
54.94050 122.000
54.96045 140.000
54.98040 124.000
55.00035 142.000
55.02029 125.000
55.04024 107.000
55.06019 145.000
55.08013 126.000
55.10008 125.000
55.12003 140.000
55.13997 142.000
55.15992 120.000
55.17987 125.000
55.19982 118.000
55.21976 123.000
55.23971 135.000
55.25966 131.000
55.27960 126.000
55.29955 111.000
55.31950 152.000
55.33944 128.000
55.35939 128.000
55.37934 138.000
55.39929 122.000
55.41923 130.000
55.43918 135.000
55.45913 146.000
55.47907 131.000
55.49902 165.000
55.51897 134.000
55.53891 133.000
55.55886 157.000
55.57881 157.000
55.59875 155.000
55.61870 149.000
55.63865 138.000
55.65860 131.000
55.67854 141.000
55.69849 131.000
55.71844 133.000
55.73838 131.000
55.75833 142.000
55.77828 145.000
55.79822 152.000
55.81817 125.000
55.83812 140.000
55.85807 137.000
55.87801 144.000
55.89796 156.000
55.91791 123.000
55.93785 137.000
55.95780 117.000
55.97775 126.000
55.99769 119.000
56.01764 131.000
56.03759 148.000
56.05753 121.000
56.07748 145.000
56.09743 136.000
56.11738 143.000
56.13732 127.000
56.15727 144.000
56.17722 137.000
56.19716 136.000
56.21711 136.000
56.23706 137.000
56.25700 130.000
56.27695 152.000
56.29690 149.000
56.31685 132.000
56.33679 130.000
56.35674 162.000
56.37669 108.000
56.39663 130.000
56.41658 145.000
56.43653 123.000
56.45647 133.000
56.47642 154.000
56.49637 116.000
56.51631 145.000
56.53626 135.000
56.55621 155.000
56.57616 149.000
56.59610 120.000
56.61605 135.000
56.63600 144.000
56.65594 135.000
56.67589 123.000
56.69584 109.000
56.71578 137.000
56.73573 119.000
56.75568 134.000
56.77563 119.000
56.79557 150.000
56.81552 151.000
56.83547 149.000
56.85541 151.000
56.87536 126.000
56.89531 159.000
56.91525 157.000
56.93520 143.000
56.95515 139.000
56.97510 163.000
56.99504 141.000
57.01499 135.000
57.03494 145.000
57.05488 138.000
57.07483 156.000
57.09478 128.000
57.11472 131.000
57.13467 160.000
57.15462 191.000
57.17456 172.000
57.19451 179.000
57.21446 178.000
57.23441 152.000
57.25435 200.000
57.27430 184.000
57.29425 198.000
57.31419 202.000
57.33414 250.000
57.35409 236.000
57.37403 268.000
57.39398 239.000
57.41393 210.000
57.43388 205.000
57.45382 231.000
57.47377 239.000
57.49372 239.000
57.51366 262.000
57.53361 253.000
57.55356 230.000
57.57350 244.000
57.59345 279.000
57.61340 296.000
57.63334 339.000
57.65329 425.000
57.67324 460.000
57.69319 486.000
57.71313 490.000
57.73308 563.000
57.75303 519.000
57.77297 585.000
57.79292 525.000
57.81287 498.000
57.83281 446.000
57.85276 463.000
57.87271 384.000
57.89266 399.000
57.91260 345.000
57.93255 384.000
57.95250 297.000
57.97244 263.000
57.99239 287.000
58.01234 233.000
58.03228 215.000
58.05223 209.000
58.07218 187.000
58.09212 180.000
58.11207 193.000
58.13202 145.000
58.15197 174.000
58.17191 185.000
58.19186 178.000
58.21181 146.000
58.23175 151.000
58.25170 159.000
58.27165 167.000
58.29159 177.000
58.31154 172.000
58.33149 128.000
58.35144 158.000
58.37138 145.000
58.39133 174.000
58.41128 143.000
58.43122 143.000
58.45117 150.000
58.47112 153.000
58.49106 165.000
58.51101 130.000
58.53096 143.000
58.55090 143.000
58.57085 178.000
58.59080 134.000
58.61075 134.000
58.63069 131.000
58.65064 147.000
58.67059 170.000
58.69053 155.000
58.71048 134.000
58.73043 131.000
58.75037 130.000
58.77032 129.000
58.79027 148.000
58.81022 144.000
58.83016 122.000
58.85011 144.000
58.87006 155.000
58.89000 166.000
58.90995 140.000
58.92990 150.000
58.94984 129.000
58.96979 138.000
58.98974 140.000
59.00969 141.000
59.02963 140.000
59.04958 154.000
59.06953 154.000
59.08947 154.000
59.10942 144.000
59.12937 135.000
59.14931 159.000
59.16926 162.000
59.18921 121.000
59.20915 158.000
59.22910 144.000
59.24905 132.000
59.26900 148.000
59.28894 152.000
59.30889 151.000
59.32884 143.000
59.34878 132.000
59.36873 164.000
59.38868 135.000
59.40862 137.000
59.42857 145.000
59.44852 132.000
59.46847 128.000
59.48841 144.000
59.50836 151.000
59.52831 142.000
59.54825 140.000
59.56820 134.000
59.58815 139.000
59.60809 135.000
59.62804 107.000
59.64799 144.000
59.66793 145.000
59.68788 144.000
59.70783 135.000
59.72778 152.000
59.74772 146.000
59.76767 157.000
59.78762 153.000
59.80756 134.000
59.82751 136.000
59.84746 140.000
59.86740 150.000
59.88735 141.000
59.90730 150.000
59.92725 153.000
59.94719 142.000
59.96714 145.000
59.98709 148.000
60.00703 148.000
60.02698 152.000
60.04693 140.000
60.06687 113.000
60.08682 145.000
60.10677 128.000
60.12671 122.000
60.14666 154.000
60.16661 158.000
60.18656 138.000
60.20650 147.000
60.22645 127.000
60.24640 142.000
60.26634 144.000
60.28629 138.000
60.30624 131.000
60.32618 151.000
60.34613 132.000
60.36608 163.000
60.38603 145.000
60.40597 167.000
60.42592 147.000
60.44587 156.000
60.46581 164.000
60.48576 122.000
60.50571 161.000
60.52565 137.000
60.54560 144.000
60.56555 155.000
60.58550 131.000
60.60544 181.000
60.62539 148.000
60.64534 113.000
60.66528 166.000
60.68523 134.000
60.70518 131.000
60.72512 148.000
60.74507 144.000
60.76502 159.000
60.78496 150.000
60.80491 145.000
60.82486 129.000
60.84481 142.000
60.86475 146.000
60.88470 134.000
60.90465 123.000
60.92459 170.000
60.94454 154.000
60.96449 153.000
60.98443 171.000
61.00438 121.000
61.02433 147.000
61.04428 148.000
61.06422 158.000
61.08417 168.000
61.10412 152.000
61.12406 160.000
61.14401 133.000
61.16396 139.000
61.18390 159.000
61.20385 134.000
61.22380 168.000
61.24374 165.000
61.26369 186.000
61.28364 170.000
61.30359 167.000
61.32353 148.000
61.34348 152.000
61.36343 163.000
61.38337 176.000
61.40332 172.000
61.42327 171.000
61.44321 181.000
61.46316 183.000
61.48311 178.000
61.50306 193.000
61.52300 183.000
61.54295 193.000
61.56290 196.000
61.58284 206.000
61.60279 194.000
61.62274 195.000
61.64268 222.000
61.66263 199.000
61.68258 226.000
61.70252 224.000
61.72247 207.000
61.74242 235.000
61.76237 232.000
61.78231 219.000
61.80226 216.000
61.82221 230.000
61.84215 238.000
61.86210 243.000
61.88205 229.000
61.90199 220.000
61.92194 236.000
61.94189 263.000
61.96184 257.000
61.98178 300.000
62.00173 304.000
62.02168 319.000
62.04162 296.000
62.06157 317.000
62.08152 300.000
62.10146 311.000
62.12141 306.000
62.14136 300.000
62.16131 282.000
62.18125 327.000
62.20120 321.000
62.22115 305.000
62.24109 317.000
62.26104 321.000
62.28099 319.000
62.30093 327.000
62.32088 345.000
62.34083 347.000
62.36077 337.000
62.38072 339.000
62.40067 340.000
62.42062 401.000
62.44056 383.000
62.46051 378.000
62.48046 401.000
62.50040 427.000
62.52035 421.000
62.54030 406.000
62.56024 412.000
62.58019 372.000
62.60014 405.000
62.62009 374.000
62.64003 413.000
62.65998 367.000
62.67993 429.000
62.69987 394.000
62.71982 366.000
62.73977 419.000
62.75971 405.000
62.77966 403.000
62.79961 408.000
62.81955 406.000
62.83950 410.000
62.85945 468.000
62.87940 457.000
62.89934 445.000
62.91929 499.000
62.93924 524.000
62.95918 555.000
62.97913 547.000
62.99908 533.000
63.01902 502.000
63.03897 525.000
63.05892 459.000
63.07887 475.000
63.09881 463.000
63.11876 420.000
63.13871 418.000
63.15865 435.000
63.17860 386.000
63.19855 397.000
63.21849 362.000
63.23844 314.000
63.25839 313.000
63.27833 304.000
63.29828 243.000
63.31823 257.000
63.33818 256.000
63.35812 244.000
63.37807 228.000
63.39802 205.000
63.41796 193.000
63.43791 194.000
63.45786 211.000
63.47780 189.000
63.49775 205.000
63.51770 185.000
63.53765 187.000
63.55759 169.000
63.57754 165.000
63.59749 180.000
63.61743 188.000
63.63738 179.000
63.65733 154.000
63.67727 185.000
63.69722 169.000
63.71717 184.000
63.73712 181.000
63.75706 201.000
63.77701 175.000
63.79696 186.000
63.81690 194.000
63.83685 178.000
63.85680 174.000
63.87674 167.000
63.89669 202.000
63.91664 197.000
63.93658 184.000
63.95653 222.000
63.97648 217.000
63.99643 201.000
64.01637 176.000
64.03632 201.000
64.05627 215.000
64.07621 192.000
64.09616 226.000
64.11611 180.000
64.13605 208.000
64.15600 185.000
64.17595 188.000
64.19590 201.000
64.21584 182.000
64.23579 190.000
64.25574 186.000
64.27568 189.000
64.29563 162.000
64.31558 161.000
64.33552 183.000
64.35547 162.000
64.37542 165.000
64.39536 162.000
64.41531 158.000
64.43526 161.000
64.45521 170.000
64.47515 158.000
64.49510 151.000
64.51505 162.000
64.53499 185.000
64.55494 142.000
64.57489 147.000
64.59483 127.000
64.61478 157.000
64.63473 131.000
64.65468 147.000
64.67462 169.000
64.69457 155.000
64.71452 156.000
64.73446 137.000
64.75441 171.000
64.77436 152.000
64.79430 134.000
64.81425 155.000
64.83420 157.000
64.85414 169.000
64.87409 146.000
64.89404 152.000
64.91399 168.000
64.93393 134.000
64.95388 169.000
64.97383 135.000
64.99377 149.000
65.01372 122.000
65.03367 150.000
65.05361 171.000
65.07356 173.000
65.09351 142.000
65.11346 161.000
65.13340 152.000
65.15335 143.000
65.17330 163.000
65.19324 186.000
65.21319 175.000
65.23314 149.000
65.25308 164.000
65.27303 172.000
65.29298 179.000
65.31293 198.000
65.33287 172.000
65.35282 202.000
65.37277 204.000
65.39271 221.000
65.41266 231.000
65.43261 241.000
65.45255 258.000
65.47250 277.000
65.49245 276.000
65.51239 265.000
65.53234 269.000
65.55229 276.000
65.57224 297.000
65.59218 271.000
65.61213 279.000
65.63208 251.000
65.65202 288.000
65.67197 250.000
65.69192 252.000
65.71186 257.000
65.73181 239.000
65.75176 256.000
65.77171 266.000
65.79165 242.000
65.81160 202.000
65.83155 203.000
65.85149 194.000
65.87144 219.000
65.89139 207.000
65.91133 214.000
65.93128 182.000
65.95123 180.000
65.97117 209.000
65.99112 176.000
66.01107 187.000
66.03102 195.000
66.05096 149.000
66.07091 162.000
66.09086 186.000
66.11080 169.000
66.13075 164.000
66.15070 162.000
66.17064 192.000
66.19059 163.000
66.21054 166.000
66.23049 189.000
66.25043 188.000
66.27038 182.000
66.29033 186.000
66.31027 175.000
66.33022 195.000
66.35017 180.000
66.37011 197.000
66.39006 194.000
66.41001 192.000
66.42995 191.000
66.44990 194.000
66.46985 206.000
66.48980 170.000
66.50974 180.000
66.52969 162.000
66.54964 192.000
66.56958 174.000
66.58953 181.000
66.60948 168.000
66.62942 185.000
66.64937 163.000
66.66932 158.000
66.68927 186.000
66.70921 160.000
66.72916 155.000
66.74911 185.000
66.76905 154.000
66.78900 144.000
66.80895 141.000
66.82889 167.000
66.84884 143.000
66.86879 158.000
66.88874 153.000
66.90868 172.000
66.92863 131.000
66.94858 160.000
66.96852 153.000
66.98847 195.000
67.00842 157.000
67.02836 134.000
67.04831 175.000
67.06826 132.000
67.08820 135.000
67.10815 147.000
67.12810 153.000
67.14805 123.000
67.16799 175.000
67.18794 156.000
67.20789 168.000
67.22783 138.000
67.24778 154.000
67.26773 164.000
67.28767 146.000
67.30762 146.000
67.32757 147.000
67.34752 171.000
67.36746 144.000
67.38741 159.000
67.40736 141.000
67.42730 154.000
67.44725 138.000
67.46720 146.000
67.48714 143.000
67.50709 164.000
67.52704 130.000
67.54698 127.000
67.56693 152.000
67.58688 146.000
67.60683 157.000
67.62677 165.000
67.64672 142.000
67.66667 150.000
67.68661 157.000
67.70656 133.000
67.72651 145.000
67.74645 160.000
67.76640 171.000
67.78635 136.000
67.80630 165.000
67.82624 140.000
67.84619 180.000
67.86614 184.000
67.88608 194.000
67.90603 191.000
67.92598 200.000
67.94592 220.000
67.96587 210.000
67.98582 229.000
68.00576 239.000
68.02571 213.000
68.04566 223.000
68.06561 234.000
68.08555 238.000
68.10550 248.000
68.12545 238.000
68.14539 210.000
68.16534 215.000
68.18529 235.000
68.20523 214.000
68.22518 222.000
68.24513 203.000
68.26508 222.000
68.28502 203.000
68.30497 181.000
68.32492 182.000
68.34486 211.000
68.36481 178.000
68.38476 152.000
68.40470 179.000
68.42465 166.000
68.44460 195.000
68.46455 156.000
68.48449 190.000
68.50444 142.000
68.52439 155.000
68.54433 152.000
68.56428 149.000
68.58423 157.000
68.60417 157.000
68.62412 141.000
68.64407 155.000
68.66401 153.000
68.68396 159.000
68.70391 153.000
68.72386 170.000
68.74380 155.000
68.76375 166.000
68.78370 181.000
68.80364 173.000
68.82359 172.000
68.84354 164.000
68.86348 152.000
68.88343 153.000
68.90338 171.000
68.92333 149.000
68.94327 192.000
68.96322 165.000
68.98317 148.000
69.00311 161.000
69.02306 169.000
69.04301 161.000
69.06295 147.000
69.08290 144.000
69.10285 151.000
69.12279 162.000
69.14274 151.000
69.16269 136.000
69.18264 145.000
69.20258 153.000
69.22253 141.000
69.24248 141.000
69.26242 145.000
69.28237 147.000
69.30232 135.000
69.32226 156.000
69.34221 148.000
69.36216 154.000
69.38211 150.000
69.40205 158.000
69.42200 158.000
69.44195 134.000
69.46189 135.000
69.48184 147.000
69.50179 148.000
69.52173 125.000
69.54168 140.000
69.56163 120.000
69.58157 124.000
69.60152 140.000
69.62147 132.000
69.64142 150.000
69.66136 126.000
69.68131 133.000
69.70126 142.000
69.72120 138.000
69.74115 141.000
69.76110 132.000
69.78104 133.000
69.80099 135.000
69.82094 147.000
69.84089 146.000
69.86083 150.000
69.88078 146.000
69.90073 162.000
69.92067 121.000
69.94062 134.000
69.96057 147.000
69.98051 134.000
70.00046 125.000
70.02041 131.000
70.04035 140.000
70.06030 140.000
70.08025 128.000
70.10020 129.000
70.12014 146.000
70.14009 138.000
70.16004 119.000
70.17998 99.000
70.19993 115.000
70.21988 130.000
70.23982 111.000
70.25977 95.000
70.27972 154.000
70.29967 131.000
70.31961 120.000
70.33956 129.000
70.35951 125.000
70.37945 123.000
70.39940 128.000
70.41935 135.000
70.43929 120.000
70.45924 125.000
70.47919 140.000
70.49914 117.000
70.51908 128.000
70.53903 122.000
70.55898 134.000
70.57892 142.000
70.59887 124.000
70.61882 137.000
70.63876 118.000
70.65871 152.000
70.67866 136.000
70.69860 124.000
70.71855 143.000
70.73850 147.000
70.75845 133.000
70.77839 144.000
70.79834 129.000
70.81829 121.000
70.83823 142.000
70.85818 145.000
70.87813 113.000
70.89807 123.000
70.91802 137.000
70.93797 118.000
70.95792 146.000
70.97786 121.000
70.99781 125.000
71.01776 130.000
71.03770 131.000
71.05765 141.000
71.07760 131.000
71.09754 132.000
71.11749 122.000
71.13744 125.000
71.15738 137.000
71.17733 126.000
71.19728 135.000
71.21723 116.000
71.23717 120.000
71.25712 110.000
71.27707 135.000
71.29701 143.000
71.31696 128.000
71.33691 148.000
71.35685 126.000
71.37680 119.000
71.39675 127.000
71.41670 121.000
71.43664 130.000
71.45659 133.000
71.47654 160.000
71.49648 159.000
71.51643 135.000
71.53638 137.000
71.55632 133.000
71.57627 150.000
71.59622 141.000
71.61616 131.000
71.63611 140.000
71.65606 133.000
71.67601 153.000
71.69595 124.000
71.71590 151.000
71.73585 127.000
71.75579 113.000
71.77574 121.000
71.79569 146.000
71.81563 156.000
71.83558 147.000
71.85553 139.000
71.87548 129.000
71.89542 143.000
71.91537 124.000
71.93532 120.000
71.95526 134.000
71.97521 117.000
71.99516 131.000
72.01510 136.000
72.03505 155.000
72.05500 145.000
72.07495 135.000
72.09489 145.000
72.11484 145.000
72.13479 140.000
72.15473 166.000
72.17468 124.000
72.19463 140.000
72.21457 133.000
72.23452 130.000
72.25447 129.000
72.27441 146.000
72.29436 133.000
72.31431 144.000
72.33426 141.000
72.35420 162.000
72.37415 130.000
72.39410 170.000
72.41404 144.000
72.43399 156.000
72.45394 158.000
72.47388 138.000
72.49383 149.000
72.51378 164.000
72.53373 145.000
72.55367 155.000
72.57362 162.000
72.59357 152.000
72.61351 165.000
72.63346 176.000
72.65341 165.000
72.67335 175.000
72.69330 162.000
72.71325 149.000
72.73319 181.000
72.75314 221.000
72.77309 218.000
72.79304 216.000
72.81298 198.000
72.83293 228.000
72.85288 220.000
72.87282 215.000
72.89277 243.000
72.91272 219.000
72.93266 221.000
72.95261 216.000
72.97256 218.000
72.99251 240.000
73.01245 196.000
73.03240 211.000
73.05235 220.000
73.07229 198.000
73.09224 221.000
73.11219 191.000
73.13213 201.000
73.15208 184.000
73.17203 201.000
73.19197 178.000
73.21192 203.000
73.23187 187.000
73.25182 187.000
73.27176 162.000
73.29171 192.000
73.31166 168.000
73.33160 182.000
73.35155 156.000
73.37150 190.000
73.39144 148.000
73.41139 183.000
73.43134 182.000
73.45129 200.000
73.47123 188.000
73.49118 190.000
73.51113 173.000
73.53107 197.000
73.55102 209.000
73.57097 192.000
73.59091 175.000
73.61086 180.000
73.63081 208.000
73.65076 195.000
73.67070 197.000
73.69065 216.000
73.71060 206.000
73.73054 151.000
73.75049 203.000
73.77044 189.000
73.79038 216.000
73.81033 213.000
73.83028 185.000
73.85022 206.000
73.87017 188.000
73.89012 179.000
73.91007 184.000
73.93001 176.000
73.94996 169.000
73.96991 165.000
73.98985 164.000
74.00980 154.000
74.02975 180.000
74.04969 154.000
74.06964 159.000
74.08959 147.000
74.10954 143.000
74.12948 161.000
74.14943 195.000
74.16938 172.000
74.18932 177.000
74.20927 146.000
74.22922 164.000
74.24916 140.000
74.26911 178.000
74.28906 166.000
74.30900 151.000
74.32895 172.000
74.34890 181.000
74.36885 182.000
74.38879 175.000
74.40874 194.000
74.42869 173.000
74.44863 176.000
74.46858 185.000
74.48853 165.000
74.50847 179.000
74.52842 207.000
74.54837 200.000
74.56832 185.000
74.58826 186.000
74.60821 180.000
74.62816 208.000
74.64810 189.000
74.66805 204.000
74.68800 204.000
74.70794 199.000
74.72789 208.000
74.74784 189.000
74.76778 210.000
74.78773 208.000
74.80768 203.000
74.82763 197.000
74.84757 237.000
74.86752 216.000
74.88747 211.000
74.90741 212.000
74.92736 231.000
74.94731 201.000
74.96725 227.000
74.98720 217.000
75.00715 234.000
75.02710 242.000
75.04704 223.000
75.06699 201.000
75.08694 203.000
75.10688 233.000
75.12683 221.000
75.14678 216.000
75.16672 235.000
75.18667 237.000
75.20662 205.000
75.22657 222.000
75.24651 232.000
75.26646 206.000
75.28641 232.000
75.30635 213.000
75.32630 198.000
75.34625 205.000
75.36619 198.000
75.38614 200.000
75.40609 197.000
75.42603 200.000
75.44598 174.000
75.46593 187.000
75.48588 194.000
75.50582 185.000
75.52577 187.000
75.54572 171.000
75.56566 164.000
75.58561 179.000
75.60556 144.000
75.62550 143.000
75.64545 176.000
75.66540 174.000
75.68535 196.000
75.70529 151.000
75.72524 167.000
75.74519 152.000
75.76513 156.000
75.78508 153.000
75.80503 151.000
75.82497 151.000
75.84492 153.000
75.86487 123.000
75.88481 140.000
75.90476 145.000
75.92471 150.000
75.94466 133.000
75.96460 150.000
75.98455 129.000
76.00450 153.000
76.02444 131.000
76.04439 135.000
76.06434 128.000
76.08428 165.000
76.10423 134.000
76.12418 123.000
76.14413 143.000
76.16407 125.000
76.18402 136.000
76.20397 145.000
76.22391 142.000
76.24386 130.000
76.26381 133.000
76.28375 141.000
76.30370 140.000
76.32365 148.000
76.34359 145.000
76.36354 139.000
76.38349 131.000
76.40344 122.000
76.42338 151.000
76.44333 140.000
76.46328 146.000
76.48322 150.000
76.50317 127.000
76.52312 133.000
76.54306 137.000
76.56301 137.000
76.58296 118.000
76.60291 144.000
76.62285 135.000
76.64280 133.000
76.66275 120.000
76.68269 107.000
76.70264 151.000
76.72259 153.000
76.74253 124.000
76.76248 141.000
76.78243 130.000
76.80238 129.000
76.82232 137.000
76.84227 162.000
76.86222 122.000
76.88216 142.000
76.90211 146.000
76.92206 125.000
76.94200 122.000
76.96195 146.000
76.98190 140.000
77.00184 122.000
77.02179 125.000
77.04174 129.000
77.06169 107.000
77.08163 133.000
77.10158 135.000
77.12153 130.000
77.14147 124.000
77.16142 126.000
77.18137 129.000
77.20131 133.000
77.22126 130.000
77.24121 123.000
77.26116 116.000
77.28110 130.000
77.30105 129.000
77.32100 134.000
77.34094 113.000
77.36089 119.000
77.38084 142.000
77.40078 142.000
77.42073 149.000
77.44068 132.000
77.46062 129.000
77.48057 145.000
77.50052 149.000
77.52047 164.000
77.54041 135.000
77.56036 140.000
77.58031 150.000
77.60025 137.000
77.62020 160.000
77.64015 130.000
77.66009 160.000
77.68004 136.000
77.69999 147.000
77.71994 168.000
77.73988 145.000
77.75983 142.000
77.77978 167.000
77.79972 157.000
77.81967 168.000
77.83962 150.000
77.85956 154.000
77.87951 161.000
77.89946 160.000
77.91940 170.000
77.93935 149.000
77.95930 175.000
77.97925 151.000
77.99919 173.000
78.01914 173.000
78.03909 170.000
78.05903 174.000
78.07898 171.000
78.09893 184.000
78.11887 165.000
78.13882 178.000
78.15877 166.000
78.17872 195.000
78.19866 196.000
78.21861 187.000
78.23856 217.000
78.25850 205.000
78.27845 218.000
78.29840 225.000
78.31834 239.000
78.33829 238.000
78.35824 283.000
78.37819 235.000
78.39813 261.000
78.41808 232.000
78.43803 260.000
78.45797 241.000
78.47792 265.000
78.49787 239.000
78.51781 257.000
78.53776 252.000
78.55771 251.000
78.57765 275.000
78.59760 217.000
78.61755 217.000
78.63750 251.000
78.65744 237.000
78.67739 233.000
78.69734 255.000
78.71728 223.000
78.73723 233.000
78.75718 199.000
78.77712 235.000
78.79707 213.000
78.81702 211.000
78.83697 219.000
78.85691 182.000
78.87686 211.000
78.89681 177.000
78.91675 204.000
78.93670 192.000
78.95665 195.000
78.97659 194.000
78.99654 204.000
79.01649 172.000
79.03643 188.000
79.05638 193.000
79.07633 180.000
79.09628 182.000
79.11622 176.000
79.13617 165.000
79.15612 187.000
79.17606 200.000
79.19601 175.000
79.21596 152.000
79.23590 165.000
79.25585 162.000
79.27580 149.000
79.29575 166.000
79.31569 142.000
79.33564 127.000
79.35559 161.000
79.37553 145.000
79.39548 155.000
79.41543 141.000
79.43537 146.000
79.45532 166.000
79.47527 149.000
79.49521 154.000
79.51516 131.000
79.53511 147.000
79.55506 150.000
79.57500 136.000
79.59495 139.000
79.61490 148.000
79.63484 139.000
79.65479 141.000
79.67474 132.000
79.69468 141.000
79.71463 129.000
79.73458 143.000
79.75453 142.000
79.77447 119.000
79.79442 165.000
79.81437 139.000
79.83431 148.000
79.85426 119.000
79.87421 129.000
79.89415 140.000
79.91410 146.000
79.93405 134.000
79.95399 133.000
79.97394 134.000
79.99389 151.000
80.01384 137.000
80.03378 157.000
80.05373 130.000
80.07368 149.000
80.09362 149.000
80.11357 131.000
80.13352 126.000
80.15346 139.000
80.17341 139.000
80.19336 122.000
80.21331 125.000
80.23325 149.000
80.25320 155.000
80.27315 139.000
80.29309 126.000
80.31304 140.000
80.33299 136.000
80.35293 137.000
80.37288 160.000
80.39283 153.000
80.41278 148.000
80.43272 136.000
80.45267 133.000
80.47262 153.000
80.49256 151.000
80.51251 145.000
80.53246 121.000
80.55240 143.000
80.57235 126.000
80.59230 141.000
80.61224 133.000
80.63219 129.000
80.65214 125.000
80.67209 135.000
80.69203 141.000
80.71198 140.000
80.73193 123.000
80.75187 142.000
80.77182 153.000
80.79177 122.000
80.81171 146.000
80.83166 128.000
80.85161 132.000
80.87156 143.000
80.89150 152.000
80.91145 138.000
80.93140 130.000
80.95134 141.000
80.97129 142.000
80.99124 136.000
81.01118 131.000
81.03113 141.000
81.05108 143.000
81.07102 138.000
81.09097 126.000
81.11092 129.000
81.13087 134.000
81.15081 119.000
81.17076 131.000
81.19071 131.000
81.21065 157.000
81.23060 117.000
81.25055 112.000
81.27049 121.000
81.29044 126.000
81.31039 133.000
81.33034 124.000
81.35028 144.000
81.37023 140.000
81.39018 103.000
81.41012 144.000
81.43007 143.000
81.45002 130.000
81.46996 141.000
81.48991 123.000
81.50986 138.000
81.52980 138.000
81.54975 131.000
81.56970 138.000
81.58965 142.000
81.60959 111.000
81.62954 131.000
81.64949 127.000
81.66943 106.000
81.68938 135.000
81.70933 126.000
81.72927 115.000
81.74922 134.000
81.76917 134.000
81.78912 129.000
81.80906 128.000
81.82901 138.000
81.84896 138.000
81.86890 130.000
81.88885 139.000
81.90880 128.000
81.92874 123.000
81.94869 142.000
81.96864 136.000
81.98859 163.000
82.00853 117.000
82.02848 128.000
82.04843 136.000
82.06837 136.000
82.08832 126.000
82.10827 127.000
82.12821 118.000
82.14816 129.000
82.16811 106.000
82.18805 138.000
82.20800 147.000
82.22795 140.000
82.24790 145.000
82.26784 125.000
82.28779 138.000
82.30774 135.000
82.32768 136.000
82.34763 147.000
82.36758 135.000
82.38752 134.000
82.40747 107.000
82.42742 129.000
82.44737 130.000
82.46731 151.000
82.48726 147.000
82.50721 123.000
82.52715 146.000
82.54710 132.000
82.56705 146.000
82.58699 159.000
82.60694 126.000
82.62689 139.000
82.64683 159.000
82.66678 125.000
82.68673 141.000
82.70668 134.000
82.72662 127.000
82.74657 125.000
82.76652 131.000
82.78646 123.000
82.80641 127.000
82.82636 135.000
82.84630 128.000
82.86625 116.000
82.88620 112.000
82.90615 124.000
82.92609 150.000
82.94604 139.000
82.96599 134.000
82.98593 140.000
83.00588 155.000
83.02583 126.000
83.04577 111.000
83.06572 119.000
83.08567 124.000
83.10561 110.000
83.12556 143.000
83.14551 129.000
83.16546 141.000
83.18540 120.000
83.20535 135.000
83.22530 131.000
83.24524 136.000
83.26519 125.000
83.28514 114.000
83.30508 115.000
83.32503 123.000
83.34498 126.000
83.36493 134.000
83.38487 151.000
83.40482 125.000
83.42477 143.000
83.44471 118.000
83.46466 138.000
83.48461 140.000
83.50455 137.000
83.52450 125.000
83.54445 125.000
83.56440 124.000
83.58434 124.000
83.60429 135.000
83.62424 133.000
83.64418 131.000
83.66413 119.000
83.68408 129.000
83.70402 146.000
83.72397 134.000
83.74392 117.000
83.76386 126.000
83.78381 117.000
83.80376 149.000
83.82371 137.000
83.84365 139.000
83.86360 133.000
83.88355 127.000
83.90349 130.000
83.92344 140.000
83.94339 138.000
83.96333 161.000
83.98328 151.000
84.00323 132.000
84.02318 129.000
84.04312 133.000
84.06307 141.000
84.08302 153.000
84.10296 132.000
84.12291 157.000
84.14286 137.000
84.16280 134.000
84.18275 151.000
84.20270 123.000
84.22264 133.000
84.24259 151.000
84.26254 147.000
84.28249 141.000
84.30243 137.000
84.32238 151.000
84.34233 142.000
84.36227 159.000
84.38222 135.000
84.40217 153.000
84.42211 141.000
84.44206 149.000
84.46201 143.000
84.48196 154.000
84.50190 192.000
84.52185 146.000
84.54180 145.000
84.56174 158.000
84.58169 140.000
84.60164 180.000
84.62158 158.000
84.64153 125.000
84.66148 172.000
84.68142 163.000
84.70137 149.000
84.72132 144.000
84.74127 170.000
84.76121 136.000
84.78116 167.000
84.80111 128.000
84.82105 129.000
84.84100 140.000
84.86095 147.000
84.88089 153.000
84.90084 156.000
84.92079 153.000
84.94074 155.000
84.96068 121.000
84.98063 123.000
85.00058 132.000
85.02052 123.000
85.04047 137.000
85.06042 123.000
85.08036 133.000
85.10031 114.000
85.12026 122.000
85.14021 119.000
85.16015 121.000
85.18010 123.000
85.20005 124.000
85.21999 111.000
85.23994 137.000
85.25989 136.000
85.27983 106.000
85.29978 135.000
85.31973 106.000
85.33967 138.000
85.35962 117.000
85.37957 145.000
85.39952 126.000
85.41946 129.000
85.43941 124.000
85.45936 127.000
85.47930 124.000
85.49925 115.000
85.51920 139.000
85.53914 124.000
85.55909 128.000
85.57904 125.000
85.59899 119.000
85.61893 126.000
85.63888 113.000
85.65883 139.000
85.67877 117.000
85.69872 130.000
85.71867 116.000
85.73861 119.000
85.75856 138.000
85.77851 115.000
85.79845 120.000
85.81840 100.000
85.83835 136.000
85.85830 136.000
85.87824 130.000
85.89819 138.000
85.91814 130.000
85.93808 128.000
85.95803 125.000
85.97798 150.000
85.99792 134.000
86.01787 136.000
86.03782 120.000
86.05777 132.000
86.07771 125.000
86.09766 150.000
86.11761 121.000
86.13755 145.000
86.15750 135.000
86.17745 130.000
86.19739 132.000
86.21734 124.000
86.23729 103.000
86.25723 119.000
86.27718 126.000
86.29713 126.000
86.31708 141.000
86.33702 156.000
86.35697 147.000
86.37692 135.000
86.39686 136.000
86.41681 142.000
86.43676 109.000
86.45670 127.000
86.47665 124.000
86.49660 132.000
86.51655 128.000
86.53649 124.000
86.55644 134.000
86.57639 153.000
86.59633 124.000
86.61628 129.000
86.63623 137.000
86.65617 130.000
86.67612 144.000
86.69607 141.000
86.71602 154.000
86.73596 147.000
86.75591 134.000
86.77586 141.000
86.79580 155.000
86.81575 178.000
86.83570 170.000
86.85564 163.000
86.87559 122.000
86.89554 168.000
86.91548 158.000
86.93543 135.000
86.95538 155.000
86.97533 141.000
86.99527 140.000
87.01522 152.000
87.03517 154.000
87.05511 144.000
87.07506 173.000
87.09501 151.000
87.11495 150.000
87.13490 161.000
87.15485 152.000
87.17480 153.000
87.19474 157.000
87.21469 149.000
87.23464 136.000
87.25458 156.000
87.27453 145.000
87.29448 127.000
87.31442 157.000
87.33437 145.000
87.35432 145.000
87.37426 119.000
87.39421 147.000
87.41416 144.000
87.43411 169.000
87.45405 136.000
87.47400 143.000
87.49395 150.000
87.51389 134.000
87.53384 140.000
87.55379 120.000
87.57373 135.000
87.59368 120.000
87.61363 160.000
87.63358 172.000
87.65352 148.000
87.67347 117.000
87.69342 139.000
87.71336 161.000
87.73331 155.000
87.75326 156.000
87.77320 142.000
87.79315 151.000
87.81310 141.000
87.83304 110.000
87.85299 151.000
87.87294 137.000
87.89289 133.000
87.91283 138.000
87.93278 148.000
87.95273 148.000
87.97267 137.000
87.99262 125.000
88.01257 145.000
88.03251 119.000
88.05246 135.000
88.07241 127.000
88.09236 128.000
88.11230 129.000
88.13225 128.000
88.15220 125.000
88.17214 126.000
88.19209 127.000
88.21204 139.000
88.23198 150.000
88.25193 136.000
88.27188 130.000
88.29183 142.000
88.31177 134.000
88.33172 139.000
88.35167 118.000
88.37161 126.000
88.39156 135.000
88.41151 128.000
88.43145 140.000
88.45140 115.000
88.47135 136.000
88.49129 131.000
88.51124 139.000
88.53119 149.000
88.55114 129.000
88.57108 112.000
88.59103 129.000
88.61098 127.000
88.63092 122.000
88.65087 113.000
88.67082 140.000
88.69076 139.000
88.71071 134.000
88.73066 153.000
88.75061 144.000
88.77055 131.000
88.79050 129.000
88.81045 100.000
88.83039 111.000
88.85034 134.000
88.87029 125.000
88.89023 138.000
88.91018 125.000
88.93013 120.000
88.95007 143.000
88.97002 129.000
88.98997 144.000
89.00992 115.000
89.02986 141.000
89.04981 138.000
89.06976 131.000
89.08970 156.000
89.10965 115.000
89.12960 138.000
89.14954 138.000
89.16949 124.000
89.18944 136.000
89.20939 113.000
89.22933 125.000
89.24928 123.000
89.26923 141.000
89.28917 125.000
89.30912 125.000
89.32907 142.000
89.34901 124.000
89.36896 143.000
89.38891 113.000
89.40885 144.000
89.42880 132.000
89.44875 129.000
89.46870 119.000
89.48864 135.000
89.50859 139.000
89.52854 141.000
89.54848 130.000
89.56843 137.000
89.58838 131.000
89.60832 133.000
89.62827 126.000
89.64822 123.000
89.66817 123.000
89.68811 142.000
89.70806 130.000
89.72801 132.000
89.74795 139.000
89.76790 139.000
89.78785 128.000
89.80779 129.000
89.82774 111.000
89.84769 126.000
89.86764 116.000
89.88758 146.000
89.90753 135.000
89.92748 118.000
89.94742 131.000
89.96737 147.000
89.98732 133.000
90.00726 141.000
