10.00000 176.000
10.01995 177.000
10.03989 175.000
10.05984 190.000
10.07979 163.000
10.09973 176.000
10.11968 179.000
10.13963 171.000
10.15958 210.000
10.17952 173.000
10.19947 195.000
10.21942 176.000
10.23936 174.000
10.25931 171.000
10.27926 204.000
10.29920 187.000
10.31915 184.000
10.33910 172.000
10.35905 170.000
10.37899 158.000
10.39894 177.000
10.41889 186.000
10.43883 191.000
10.45878 183.000
10.47873 211.000
10.49867 161.000
10.51862 171.000
10.53857 185.000
10.55851 162.000
10.57846 175.000
10.59841 200.000
10.61836 160.000
10.63830 187.000
10.65825 166.000
10.67820 196.000
10.69814 191.000
10.71809 214.000
10.73804 175.000
10.75798 198.000
10.77793 160.000
10.79788 159.000
10.81783 202.000
10.83777 179.000
10.85772 185.000
10.87767 184.000
10.89761 174.000
10.91756 185.000
10.93751 184.000
10.95745 178.000
10.97740 189.000
10.99735 181.000
11.01730 184.000
11.03724 195.000
11.05719 196.000
11.07714 155.000
11.09708 196.000
11.11703 193.000
11.13698 179.000
11.15692 197.000
11.17687 192.000
11.19682 164.000
11.21676 183.000
11.23671 169.000
11.25666 188.000
11.27661 180.000
11.29655 172.000
11.31650 201.000
11.33645 196.000
11.35639 177.000
11.37634 199.000
11.39629 179.000
11.41623 195.000
11.43618 204.000
11.45613 185.000
11.47608 188.000
11.49602 192.000
11.51597 193.000
11.53592 190.000
11.55586 204.000
11.57581 189.000
11.59576 181.000
11.61570 195.000
11.63565 204.000
11.65560 194.000
11.67554 202.000
11.69549 187.000
11.71544 186.000
11.73539 169.000
11.75533 169.000
11.77528 203.000
11.79523 183.000
11.81517 185.000
11.83512 183.000
11.85507 198.000
11.87501 183.000
11.89496 199.000
11.91491 204.000
11.93486 188.000
11.95480 199.000
11.97475 170.000
11.99470 198.000
12.01464 199.000
12.03459 169.000
12.05454 186.000
12.07448 195.000
12.09443 201.000
12.11438 198.000
12.13432 194.000
12.15427 189.000
12.17422 204.000
12.19417 188.000
12.21411 193.000
12.23406 198.000
12.25401 202.000
12.27395 186.000
12.29390 181.000
12.31385 177.000
12.33379 193.000
12.35374 172.000
12.37369 166.000
12.39364 184.000
12.41358 200.000
12.43353 195.000
12.45348 172.000
12.47342 198.000
12.49337 199.000
12.51332 185.000
12.53326 182.000
12.55321 170.000
12.57316 206.000
12.59311 168.000
12.61305 214.000
12.63300 190.000
12.65295 188.000
12.67289 180.000
12.69284 200.000
12.71279 189.000
12.73273 227.000
12.75268 194.000
12.77263 199.000
12.79257 230.000
12.81252 192.000
12.83247 197.000
12.85242 202.000
12.87236 195.000
12.89231 182.000
12.91226 171.000
12.93220 222.000
12.95215 211.000
12.97210 209.000
12.99204 201.000
13.01199 223.000
13.03194 196.000
13.05189 221.000
13.07183 185.000
13.09178 193.000
13.11173 204.000
13.13167 180.000
13.15162 179.000
13.17157 205.000
13.19151 183.000
13.21146 210.000
13.23141 211.000
13.25135 203.000
13.27130 195.000
13.29125 206.000
13.31120 179.000
13.33114 179.000
13.35109 185.000
13.37104 209.000
13.39098 206.000
13.41093 205.000
13.43088 178.000
13.45082 194.000
13.47077 196.000
13.49072 208.000
13.51067 181.000
13.53061 193.000
13.55056 214.000
13.57051 217.000
13.59045 200.000
13.61040 183.000
13.63035 223.000
13.65029 182.000
13.67024 183.000
13.69019 183.000
13.71013 191.000
13.73008 209.000
13.75003 204.000
13.76998 178.000
13.78992 198.000
13.80987 212.000
13.82982 192.000
13.84976 199.000
13.86971 191.000
13.88966 212.000
13.90960 189.000
13.92955 188.000
13.94950 192.000
13.96945 182.000
13.98939 203.000
14.00934 206.000
14.02929 177.000
14.04923 195.000
14.06918 235.000
14.08913 197.000
14.10907 200.000
14.12902 204.000
14.14897 180.000
14.16892 202.000
14.18886 171.000
14.20881 201.000
14.22876 191.000
14.24870 180.000
14.26865 199.000
14.28860 203.000
14.30854 194.000
14.32849 177.000
14.34844 186.000
14.36838 170.000
14.38833 194.000
14.40828 194.000
14.42823 198.000
14.44817 163.000
14.46812 200.000
14.48807 201.000
14.50801 213.000
14.52796 193.000
14.54791 208.000
14.56785 187.000
14.58780 200.000
14.60775 199.000
14.62770 173.000
14.64764 188.000
14.66759 194.000
14.68754 203.000
14.70748 241.000
14.72743 215.000
14.74738 196.000
14.76732 209.000
14.78727 191.000
14.80722 188.000
14.82716 206.000
14.84711 185.000
14.86706 173.000
14.88701 197.000
14.90695 178.000
14.92690 200.000
14.94685 185.000
14.96679 198.000
14.98674 222.000
15.00669 224.000
15.02663 198.000
15.04658 206.000
15.06653 231.000
15.08648 185.000
15.10642 189.000
15.12637 187.000
15.14632 202.000
15.16626 200.000
15.18621 188.000
15.20616 208.000
15.22610 218.000
15.24605 214.000
15.26600 207.000
15.28594 216.000
15.30589 214.000
15.32584 193.000
15.34579 197.000
15.36573 186.000
15.38568 200.000
15.40563 205.000
15.42557 241.000
15.44552 219.000
15.46547 203.000
15.48541 215.000
15.50536 213.000
15.52531 231.000
15.54526 241.000
15.56520 202.000
15.58515 205.000
15.60510 223.000
15.62504 249.000
15.64499 209.000
15.66494 225.000
15.68488 248.000
15.70483 214.000
15.72478 264.000
15.74472 269.000
15.76467 272.000
15.78462 282.000
15.80457 286.000
15.82451 328.000
15.84446 411.000
15.86441 479.000
15.88435 628.000
15.90430 744.000
15.92425 1036.000
15.94419 1126.000
15.96414 1193.000
15.98409 1053.000
16.00404 836.000
16.02398 596.000
16.04393 490.000
16.06388 379.000
16.08382 342.000
16.10377 329.000
16.12372 361.000
16.14366 402.000
16.16361 440.000
16.18356 532.000
16.20351 539.000
16.22345 647.000
16.24340 687.000
16.26335 793.000
16.28329 849.000
16.30324 849.000
16.32319 802.000
16.34313 778.000
16.36308 745.000
16.38303 658.000
16.40297 638.000
16.42292 704.000
16.44287 664.000
16.46282 667.000
16.48276 656.000
16.50271 629.000
16.52266 765.000
16.54260 789.000
16.56255 833.000
16.58250 817.000
16.60244 759.000
16.62239 661.000
16.64234 487.000
16.66229 351.000
16.68223 303.000
16.70218 252.000
16.72213 263.000
16.74207 249.000
16.76202 269.000
16.78197 274.000
16.80191 268.000
16.82186 272.000
16.84181 333.000
16.86175 328.000
16.88170 428.000
16.90165 386.000
16.92160 410.000
16.94154 398.000
16.96149 353.000
16.98144 319.000
17.00138 228.000
17.02133 251.000
17.04128 220.000
17.06122 233.000
17.08117 213.000
17.10112 203.000
17.12107 215.000
17.14101 199.000
17.16096 205.000
17.18091 218.000
17.20085 214.000
17.22080 204.000
17.24075 232.000
17.26069 192.000
17.28064 205.000
17.30059 202.000
17.32053 213.000
17.34048 217.000
17.36043 185.000
17.38038 222.000
17.40032 191.000
17.42027 224.000
17.44022 210.000
17.46016 214.000
17.48011 205.000
17.50006 204.000
17.52000 180.000
17.53995 189.000
17.55990 199.000
17.57985 197.000
17.59979 213.000
17.61974 222.000
17.63969 230.000
17.65963 206.000
17.67958 209.000
17.69953 212.000
17.71947 199.000
17.73942 193.000
17.75937 214.000
17.77932 222.000
17.79926 194.000
17.81921 217.000
17.83916 195.000
17.85910 227.000
17.87905 208.000
17.89900 199.000
17.91894 193.000
17.93889 202.000
17.95884 235.000
17.97878 198.000
17.99873 218.000
18.01868 203.000
18.03863 203.000
18.05857 211.000
18.07852 200.000
18.09847 215.000
18.11841 231.000
18.13836 216.000
18.15831 203.000
18.17825 188.000
18.19820 198.000
18.21815 201.000
18.23810 194.000
18.25804 205.000
18.27799 210.000
18.29794 220.000
18.31788 195.000
18.33783 215.000
18.35778 248.000
18.37772 210.000
18.39767 219.000
18.41762 241.000
18.43756 235.000
18.45751 225.000
18.47746 256.000
18.49741 216.000
18.51735 204.000
18.53730 212.000
18.55725 213.000
18.57719 229.000
18.59714 205.000
18.61709 219.000
18.63703 197.000
18.65698 178.000
18.67693 207.000
18.69688 197.000
18.71682 226.000
18.73677 187.000
18.75672 216.000
18.77666 210.000
18.79661 190.000
18.81656 187.000
18.83650 200.000
18.85645 199.000
18.87640 215.000
18.89634 197.000
18.91629 184.000
18.93624 214.000
18.95619 192.000
18.97613 234.000
18.99608 209.000
19.01603 179.000
19.03597 229.000
19.05592 205.000
19.07587 226.000
19.09581 219.000
19.11576 196.000
19.13571 209.000
19.15566 210.000
19.17560 209.000
19.19555 212.000
19.21550 176.000
19.23544 225.000
19.25539 209.000
19.27534 206.000
19.29528 214.000
19.31523 185.000
19.33518 202.000
19.35513 194.000
19.37507 191.000
19.39502 202.000
19.41497 218.000
19.43491 215.000
19.45486 238.000
19.47481 210.000
19.49475 214.000
19.51470 215.000
19.53465 219.000
19.55459 197.000
19.57454 189.000
19.59449 220.000
19.61444 232.000
19.63438 204.000
19.65433 221.000
19.67428 189.000
19.69422 198.000
19.71417 219.000
19.73412 181.000
19.75406 213.000
19.77401 194.000
19.79396 213.000
19.81391 209.000
19.83385 195.000
19.85380 182.000
19.87375 215.000
19.89369 170.000
19.91364 225.000
19.93359 212.000
19.95353 211.000
19.97348 240.000
19.99343 173.000
20.01337 213.000
20.03332 217.000
20.05327 226.000
20.07322 238.000
20.09316 210.000
20.11311 210.000
20.13306 231.000
20.15300 200.000
20.17295 199.000
20.19290 201.000
20.21284 230.000
20.23279 230.000
20.25274 242.000
20.27269 266.000
20.29263 204.000
20.31258 211.000
20.33253 204.000
20.35247 223.000
20.37242 219.000
20.39237 230.000
20.41231 218.000
20.43226 222.000
20.45221 247.000
20.47215 217.000
20.49210 212.000
20.51205 205.000
20.53200 211.000
20.55194 199.000
20.57189 244.000
20.59184 239.000
20.61178 239.000
20.63173 211.000
20.65168 245.000
20.67162 245.000
20.69157 256.000
20.71152 262.000
20.73147 269.000
20.75141 274.000
20.77136 276.000
20.79131 321.000
20.81125 314.000
20.83120 369.000
20.85115 416.000
20.87109 484.000
20.89104 462.000
20.91099 481.000
20.93094 422.000
20.95088 430.000
20.97083 448.000
20.99078 444.000
21.01072 439.000
21.03067 444.000
21.05062 426.000
21.07056 415.000
21.09051 415.000
21.11046 401.000
21.13040 376.000
21.15035 367.000
21.17030 315.000
21.19025 289.000
21.21019 218.000
21.23014 248.000
21.25009 233.000
21.27003 229.000
21.28998 241.000
21.30993 242.000
21.32987 212.000
21.34982 217.000
21.36977 254.000
21.38972 218.000
21.40966 243.000
21.42961 241.000
21.44956 214.000
21.46950 187.000
21.48945 222.000
21.50940 202.000
21.52934 196.000
21.54929 235.000
21.56924 198.000
21.58918 243.000
21.60913 204.000
21.62908 178.000
21.64903 218.000
21.66897 260.000
21.68892 209.000
21.70887 215.000
21.72881 219.000
21.74876 222.000
21.76871 206.000
21.78865 242.000
21.80860 207.000
21.82855 220.000
21.84850 223.000
21.86844 218.000
21.88839 211.000
21.90834 201.000
21.92828 195.000
21.94823 207.000
21.96818 230.000
21.98812 188.000
22.00807 205.000
22.02802 215.000
22.04796 219.000
22.06791 220.000
22.08786 206.000
22.10781 218.000
22.12775 199.000
22.14770 187.000
22.16765 225.000
22.18759 232.000
22.20754 242.000
22.22749 222.000
22.24743 238.000
22.26738 216.000
22.28733 208.000
22.30728 226.000
22.32722 218.000
22.34717 246.000
22.36712 214.000
22.38706 219.000
22.40701 231.000
22.42696 232.000
22.44690 211.000
22.46685 190.000
22.48680 217.000
22.50675 207.000
22.52669 184.000
22.54664 208.000
22.56659 215.000
22.58653 214.000
22.60648 216.000
22.62643 220.000
22.64637 186.000
22.66632 227.000
22.68627 229.000
22.70621 204.000
22.72616 221.000
22.74611 207.000
22.76606 214.000
22.78600 209.000
22.80595 237.000
22.82590 212.000
22.84584 224.000
22.86579 264.000
22.88574 217.000
22.90568 240.000
22.92563 229.000
22.94558 229.000
22.96553 222.000
22.98547 194.000
23.00542 248.000
23.02537 222.000
23.04531 226.000
23.06526 206.000
23.08521 193.000
23.10515 189.000
23.12510 224.000
23.14505 256.000
23.16499 225.000
23.18494 213.000
23.20489 226.000
23.22484 229.000
23.24478 210.000
23.26473 218.000
23.28468 222.000
23.30462 197.000
23.32457 240.000
23.34452 218.000
23.36446 219.000
23.38441 251.000
23.40436 210.000
23.42431 209.000
23.44425 215.000
23.46420 207.000
23.48415 211.000
23.50409 229.000
23.52404 240.000
23.54399 218.000
23.56393 206.000
23.58388 221.000
23.60383 235.000
23.62377 245.000
23.64372 215.000
23.66367 231.000
23.68362 215.000
23.70356 253.000
23.72351 231.000
23.74346 212.000
23.76340 214.000
23.78335 222.000
23.80330 209.000
23.82324 222.000
23.84319 233.000
23.86314 210.000
23.88309 209.000
23.90303 192.000
23.92298 230.000
23.94293 230.000
23.96287 198.000
23.98282 238.000
24.00277 208.000
24.02271 266.000
24.04266 227.000
24.06261 254.000
24.08256 233.000
24.10250 214.000
24.12245 259.000
24.14240 212.000
24.16234 240.000
24.18229 225.000
24.20224 249.000
24.22218 187.000
24.24213 238.000
24.26208 222.000
24.28202 221.000
24.30197 238.000
24.32192 213.000
24.34187 233.000
24.36181 222.000
24.38176 219.000
24.40171 229.000
24.42165 254.000
24.44160 230.000
24.46155 227.000
24.48149 224.000
24.50144 219.000
24.52139 244.000
24.54134 211.000
24.56128 244.000
24.58123 257.000
24.60118 221.000
24.62112 234.000
24.64107 202.000
24.66102 227.000
24.68096 226.000
24.70091 240.000
24.72086 204.000
24.74080 230.000
24.76075 231.000
24.78070 225.000
24.80065 221.000
24.82059 235.000
24.84054 255.000
24.86049 232.000
24.88043 239.000
24.90038 247.000
24.92033 260.000
24.94027 260.000
24.96022 292.000
24.98017 291.000
25.00012 280.000
25.02006 333.000
25.04001 355.000
25.05996 377.000
25.07990 332.000
25.09985 348.000
25.11980 293.000
25.13974 293.000
25.15969 267.000
25.17964 250.000
25.19958 248.000
25.21953 231.000
25.23948 223.000
25.25943 227.000
25.27937 236.000
25.29932 242.000
25.31927 235.000
25.33921 235.000
25.35916 268.000
25.37911 246.000
25.39905 208.000
25.41900 238.000
25.43895 213.000
25.45890 212.000
25.47884 220.000
25.49879 247.000
25.51874 234.000
25.53868 242.000
25.55863 249.000
25.57858 230.000
25.59852 227.000
25.61847 250.000
25.63842 234.000
25.65837 210.000
25.67831 209.000
25.69826 238.000
25.71821 258.000
25.73815 236.000
25.75810 225.000
25.77805 236.000
25.79799 246.000
25.81794 240.000
25.83789 213.000
25.85783 204.000
25.87778 220.000
25.89773 210.000
25.91768 232.000
25.93762 227.000
25.95757 221.000
25.97752 221.000
25.99746 238.000
26.01741 208.000
26.03736 241.000
26.05730 221.000
26.07725 240.000
26.09720 269.000
26.11715 232.000
26.13709 213.000
26.15704 255.000
26.17699 215.000
26.19693 236.000
26.21688 215.000
26.23683 218.000
26.25677 253.000
26.27672 236.000
26.29667 240.000
26.31661 240.000
26.33656 211.000
26.35651 231.000
26.37646 246.000
26.39640 263.000
26.41635 210.000
26.43630 236.000
26.45624 247.000
26.47619 269.000
26.49614 236.000
26.51608 238.000
26.53603 230.000
26.55598 246.000
26.57593 246.000
26.59587 202.000
26.61582 229.000
26.63577 231.000
26.65571 258.000
26.67566 211.000
26.69561 211.000
26.71555 228.000
26.73550 223.000
26.75545 245.000
26.77539 247.000
26.79534 210.000
26.81529 231.000
26.83524 248.000
26.85518 235.000
26.87513 220.000
26.89508 211.000
26.91502 256.000
26.93497 233.000
26.95492 233.000
26.97486 254.000
26.99481 245.000
27.01476 258.000
27.03471 239.000
27.05465 227.000
27.07460 233.000
27.09455 250.000
27.11449 213.000
27.13444 279.000
27.15439 295.000
27.17433 242.000
27.19428 257.000
27.21423 241.000
27.23417 247.000
27.25412 234.000
27.27407 246.000
27.29402 242.000
27.31396 233.000
27.33391 213.000
27.35386 208.000
27.37380 227.000
27.39375 250.000
27.41370 230.000
27.43364 233.000
27.45359 216.000
27.47354 252.000
27.49349 258.000
27.51343 240.000
27.53338 236.000
27.55333 228.000
27.57327 255.000
27.59322 253.000
27.61317 266.000
27.63311 240.000
27.65306 238.000
27.67301 238.000
27.69296 240.000
27.71290 260.000
27.73285 228.000
27.75280 267.000
27.77274 232.000
27.79269 257.000
27.81264 231.000
27.83258 244.000
27.85253 236.000
27.87248 252.000
27.89242 234.000
27.91237 260.000
27.93232 266.000
27.95227 231.000
27.97221 250.000
27.99216 239.000
28.01211 262.000
28.03205 236.000
28.05200 243.000
28.07195 250.000
28.09189 250.000
28.11184 245.000
28.13179 219.000
28.15174 245.000
28.17168 236.000
28.19163 247.000
28.21158 246.000
28.23152 240.000
28.25147 220.000
28.27142 251.000
28.29136 234.000
28.31131 243.000
28.33126 257.000
28.35120 259.000
28.37115 221.000
28.39110 261.000
28.41105 273.000
28.43099 233.000
28.45094 232.000
28.47089 243.000
28.49083 259.000
28.51078 248.000
28.53073 255.000
28.55067 266.000
28.57062 262.000
28.59057 259.000
28.61052 243.000
28.63046 248.000
28.65041 274.000
28.67036 269.000
28.69030 244.000
28.71025 259.000
28.73020 229.000
28.75014 235.000
28.77009 268.000
28.79004 241.000
28.80998 240.000
28.82993 266.000
28.84988 256.000
28.86983 235.000
28.88977 261.000
28.90972 278.000
28.92967 256.000
28.94961 229.000
28.96956 261.000
28.98951 270.000
29.00945 252.000
29.02940 260.000
29.04935 271.000
29.06930 268.000
29.08924 287.000
29.10919 243.000
29.12914 280.000
29.14908 256.000
29.16903 274.000
29.18898 242.000
29.20892 266.000
29.22887 293.000
29.24882 315.000
29.26877 329.000
29.28871 325.000
29.30866 393.000
29.32861 426.000
29.34855 473.000
29.36850 527.000
29.38845 589.000
29.40839 641.000
29.42834 667.000
29.44829 684.000
29.46823 693.000
29.48818 601.000
29.50813 600.000
29.52808 501.000
29.54802 452.000
29.56797 422.000
29.58792 421.000
29.60786 328.000
29.62781 360.000
29.64776 321.000
29.66770 319.000
29.68765 289.000
29.70760 286.000
29.72755 255.000
29.74749 282.000
29.76744 257.000
29.78739 268.000
29.80733 269.000
29.82728 244.000
29.84723 246.000
29.86717 269.000
29.88712 274.000
29.90707 221.000
29.92701 260.000
29.94696 262.000
29.96691 268.000
29.98686 273.000
30.00680 266.000
30.02675 256.000
30.04670 270.000
30.06664 269.000
30.08659 244.000
30.10654 264.000
30.12648 280.000
30.14643 272.000
30.16638 285.000
30.18633 264.000
30.20627 310.000
30.22622 306.000
30.24617 275.000
30.26611 307.000
30.28606 260.000
30.30601 309.000
30.32595 282.000
30.34590 258.000
30.36585 309.000
30.38579 299.000
30.40574 277.000
30.42569 296.000
30.44564 269.000
30.46558 294.000
30.48553 260.000
30.50548 258.000
30.52542 248.000
30.54537 258.000
30.56532 257.000
30.58526 273.000
30.60521 286.000
30.62516 254.000
30.64511 265.000
30.66505 255.000
30.68500 228.000
30.70495 270.000
30.72489 243.000
30.74484 272.000
30.76479 231.000
30.78473 272.000
30.80468 268.000
30.82463 236.000
30.84458 261.000
30.86452 247.000
30.88447 255.000
30.90442 245.000
30.92436 262.000
30.94431 257.000
30.96426 259.000
30.98420 222.000
31.00415 233.000
31.02410 241.000
31.04404 283.000
31.06399 219.000
31.08394 230.000
31.10389 237.000
31.12383 255.000
31.14378 247.000
31.16373 256.000
31.18367 235.000
31.20362 277.000
31.22357 279.000
31.24351 236.000
31.26346 238.000
31.28341 255.000
31.30336 245.000
31.32330 240.000
31.34325 280.000
31.36320 251.000
31.38314 246.000
31.40309 252.000
31.42304 235.000
31.44298 229.000
31.46293 235.000
31.48288 276.000
31.50282 240.000
31.52277 226.000
31.54272 249.000
31.56267 245.000
31.58261 274.000
31.60256 254.000
31.62251 258.000
31.64245 230.000
31.66240 224.000
31.68235 241.000
31.70229 245.000
31.72224 232.000
31.74219 229.000
31.76214 240.000
31.78208 248.000
31.80203 238.000
31.82198 246.000
31.84192 239.000
31.86187 257.000
31.88182 257.000
31.90176 228.000
31.92171 227.000
31.94166 239.000
31.96160 246.000
31.98155 251.000
32.00150 254.000
32.02145 278.000
32.04139 278.000
32.06134 281.000
32.08129 312.000
32.10123 298.000
32.12118 283.000
32.14113 317.000
32.16107 313.000
32.18102 321.000
32.20097 338.000
32.22092 335.000
32.24086 362.000
32.26081 266.000
32.28076 301.000
32.30070 251.000
32.32065 280.000
32.34060 255.000
32.36054 260.000
32.38049 260.000
32.40044 238.000
32.42039 239.000
32.44033 288.000
32.46028 255.000
32.48023 243.000
32.50017 253.000
32.52012 243.000
32.54007 274.000
32.56001 266.000
32.57996 242.000
32.59991 264.000
32.61985 279.000
32.63980 262.000
32.65975 240.000
32.67970 274.000
32.69964 274.000
32.71959 269.000
32.73954 324.000
32.75948 324.000
32.77943 285.000
32.79938 310.000
32.81932 290.000
32.83927 300.000
32.85922 278.000
32.87917 315.000
32.89911 305.000
32.91906 310.000
32.93901 293.000
32.95895 283.000
32.97890 297.000
32.99885 293.000
33.01879 298.000
33.03874 286.000
33.05869 286.000
33.07863 280.000
33.09858 306.000
33.11853 306.000
33.13848 278.000
33.15842 257.000
33.17837 310.000
33.19832 295.000
33.21826 290.000
33.23821 273.000
33.25816 280.000
33.27810 286.000
33.29805 244.000
33.31800 280.000
33.33795 273.000
33.35789 293.000
33.37784 304.000
33.39779 334.000
33.41773 318.000
33.43768 361.000
33.45763 301.000
33.47757 334.000
33.49752 314.000
33.51747 351.000
33.53741 319.000
33.55736 308.000
33.57731 286.000
33.59726 254.000
33.61720 289.000
33.63715 287.000
33.65710 272.000
33.67704 256.000
33.69699 270.000
33.71694 256.000
33.73688 274.000
33.75683 289.000
33.77678 247.000
33.79673 263.000
33.81667 267.000
33.83662 298.000
33.85657 255.000
33.87651 240.000
33.89646 214.000
33.91641 250.000
33.93635 264.000
33.95630 267.000
33.97625 237.000
33.99620 234.000
34.01614 292.000
34.03609 276.000
34.05604 263.000
34.07598 300.000
34.09593 296.000
34.11588 328.000
34.13582 307.000
34.15577 307.000
34.17572 325.000
34.19566 360.000
34.21561 331.000
34.23556 386.000
34.25551 377.000
34.27545 420.000
34.29540 432.000
34.31535 433.000
34.33529 464.000
34.35524 477.000
34.37519 491.000
34.39513 469.000
34.41508 480.000
34.43503 482.000
34.45498 472.000
34.47492 493.000
34.49487 474.000
34.51482 496.000
34.53476 470.000
34.55471 450.000
34.57466 437.000
34.59460 467.000
34.61455 449.000
34.63450 495.000
34.65444 424.000
34.67439 453.000
34.69434 442.000
34.71429 483.000
34.73423 435.000
34.75418 450.000
34.77413 444.000
34.79407 440.000
34.81402 456.000
34.83397 483.000
34.85391 488.000
34.87386 523.000
34.89381 471.000
34.91376 481.000
34.93370 445.000
34.95365 441.000
34.97360 439.000
34.99354 399.000
35.01349 422.000
35.03344 384.000
35.05338 356.000
35.07333 323.000
35.09328 296.000
35.11322 300.000
35.13317 303.000
35.15312 295.000
35.17307 309.000
35.19301 321.000
35.21296 309.000
35.23291 324.000
35.25285 287.000
35.27280 329.000
35.29275 318.000
35.31269 301.000
35.33264 341.000
35.35259 323.000
35.37254 364.000
35.39248 341.000
35.41243 349.000
35.43238 367.000
35.45232 340.000
35.47227 397.000
35.49222 397.000
35.51216 385.000
35.53211 392.000
35.55206 399.000
35.57201 444.000
35.59195 453.000
35.61190 458.000
35.63185 513.000
35.65179 521.000
35.67174 538.000
35.69169 526.000
35.71163 519.000
35.73158 525.000
35.75153 529.000
35.77147 547.000
35.79142 519.000
35.81137 472.000
35.83132 444.000
35.85126 447.000
35.87121 428.000
35.89116 405.000
35.91110 398.000
35.93105 341.000
35.95100 353.000
35.97094 316.000
35.99089 293.000
36.01084 329.000
36.03079 299.000
36.05073 273.000
36.07068 314.000
36.09063 301.000
36.11057 272.000
36.13052 319.000
36.15047 301.000
36.17041 303.000
36.19036 266.000
36.21031 288.000
36.23025 263.000
36.25020 282.000
36.27015 281.000
36.29010 294.000
36.31004 288.000
36.32999 333.000
36.34994 307.000
36.36988 333.000
36.38983 322.000
36.40978 329.000
36.42972 315.000
36.44967 316.000
36.46962 361.000
36.48957 315.000
36.50951 310.000
36.52946 340.000
36.54941 319.000
36.56935 350.000
36.58930 369.000
36.60925 400.000
36.62919 354.000
36.64914 370.000
36.66909 407.000
36.68903 412.000
36.70898 485.000
36.72893 467.000
36.74888 517.000
36.76882 497.000
36.78877 541.000
36.80872 562.000
36.82866 576.000
36.84861 596.000
36.86856 581.000
36.88850 670.000
36.90845 701.000
36.92840 765.000
36.94835 851.000
36.96829 965.000
36.98824 1228.000
37.00819 1483.000
37.02813 1820.000
37.04808 2194.000
37.06803 2699.000
37.08797 3263.000
37.10792 3536.000
37.12787 3667.000
37.14781 3740.000
37.16776 3735.000
37.18771 3567.000
37.20766 3511.000
37.22760 3076.000
37.24755 2749.000
37.26750 2322.000
37.28744 1998.000
37.30739 1541.000
37.32734 1289.000
37.34728 1026.000
37.36723 887.000
37.38718 725.000
37.40713 579.000
37.42707 522.000
37.44702 480.000
37.46697 402.000
37.48691 359.000
37.50686 361.000
37.52681 345.000
37.54675 309.000
37.56670 300.000
37.58665 309.000
37.60660 291.000
37.62654 297.000
37.64649 287.000
37.66644 278.000
37.68638 310.000
37.70633 287.000
37.72628 283.000
37.74622 273.000
37.76617 257.000
37.78612 280.000
37.80606 302.000
37.82601 286.000
37.84596 266.000
37.86591 276.000
37.88585 256.000
37.90580 304.000
37.92575 272.000
37.94569 272.000
37.96564 272.000
37.98559 265.000
38.00553 291.000
38.02548 279.000
38.04543 274.000
38.06538 253.000
38.08532 257.000
38.10527 256.000
38.12522 280.000
38.14516 297.000
38.16511 271.000
38.18506 280.000
38.20500 291.000
38.22495 260.000
38.24490 238.000
38.26484 253.000
38.28479 247.000
38.30474 260.000
38.32469 252.000
38.34463 262.000
38.36458 238.000
38.38453 250.000
38.40447 273.000
38.42442 246.000
38.44437 238.000
38.46431 250.000
38.48426 261.000
38.50421 256.000
38.52416 230.000
38.54410 259.000
38.56405 251.000
38.58400 254.000
38.60394 251.000
38.62389 244.000
38.64384 270.000
38.66378 284.000
38.68373 297.000
38.70368 249.000
38.72362 290.000
38.74357 260.000
38.76352 251.000
38.78347 309.000
38.80341 285.000
38.82336 264.000
38.84331 294.000
38.86325 297.000
38.88320 279.000
38.90315 267.000
38.92309 294.000
38.94304 314.000
38.96299 286.000
38.98294 293.000
39.00288 306.000
39.02283 287.000
39.04278 298.000
39.06272 298.000
39.08267 293.000
39.10262 261.000
39.12256 283.000
39.14251 302.000
39.16246 298.000
39.18241 280.000
39.20235 294.000
39.22230 324.000
39.24225 381.000
39.26219 399.000
39.28214 420.000
39.30209 429.000
39.32203 447.000
39.34198 466.000
39.36193 444.000
39.38187 476.000
39.40182 425.000
39.42177 401.000
39.44172 359.000
39.46166 391.000
39.48161 346.000
39.50156 367.000
39.52150 318.000
39.54145 315.000
39.56140 310.000
39.58134 285.000
39.60129 303.000
39.62124 269.000
39.64119 284.000
39.66113 267.000
39.68108 267.000
39.70103 262.000
39.72097 258.000
39.74092 233.000
39.76087 254.000
39.78081 257.000
39.80076 261.000
39.82071 241.000
39.84065 251.000
39.86060 266.000
39.88055 274.000
39.90050 256.000
39.92044 260.000
39.94039 260.000
39.96034 268.000
39.98028 281.000
40.00023 240.000
40.02018 234.000
40.04012 234.000
40.06007 243.000
40.08002 250.000
40.09997 253.000
40.11991 219.000
40.13986 260.000
40.15981 256.000
40.17975 217.000
40.19970 275.000
40.21965 256.000
40.23959 249.000
40.25954 243.000
40.27949 241.000
40.29943 234.000
40.31938 263.000
40.33933 245.000
40.35928 234.000
40.37922 252.000
40.39917 254.000
40.41912 240.000
40.43906 226.000
40.45901 269.000
40.47896 213.000
40.49890 261.000
40.51885 274.000
40.53880 237.000
40.55875 236.000
40.57869 236.000
40.59864 252.000
40.61859 269.000
40.63853 239.000
40.65848 244.000
40.67843 239.000
40.69837 233.000
40.71832 270.000
40.73827 278.000
40.75822 219.000
40.77816 239.000
40.79811 254.000
40.81806 263.000
40.83800 268.000
40.85795 256.000
40.87790 267.000
40.89784 239.000
40.91779 261.000
40.93774 234.000
40.95768 266.000
40.97763 257.000
40.99758 262.000
41.01753 275.000
41.03747 241.000
41.05742 264.000
41.07737 239.000
41.09731 263.000
41.11726 308.000
41.13721 273.000
41.15715 255.000
41.17710 277.000
41.19705 280.000
41.21700 287.000
41.23694 341.000
41.25689 293.000
41.27684 285.000
41.29678 309.000
41.31673 296.000
41.33668 288.000
41.35662 324.000
41.37657 305.000
41.39652 320.000
41.41646 328.000
41.43641 321.000
41.45636 333.000
41.47631 345.000
41.49625 367.000
41.51620 362.000
41.53615 381.000
41.55609 457.000
41.57604 424.000
41.59599 499.000
41.61593 559.000
41.63588 668.000
41.65583 709.000
41.67578 788.000
41.69572 838.000
41.71567 991.000
41.73562 1133.000
41.75556 1126.000
41.77551 1252.000
41.79546 1242.000
41.81540 1183.000
41.83535 1128.000
41.85530 1044.000
41.87524 946.000
41.89519 868.000
41.91514 744.000
41.93509 710.000
41.95503 615.000
41.97498 543.000
41.99493 479.000
42.01487 420.000
42.03482 386.000
42.05477 361.000
42.07471 328.000
42.09466 343.000
42.11461 341.000
42.13456 289.000
42.15450 324.000
42.17445 276.000
42.19440 315.000
42.21434 310.000
42.23429 346.000
42.25424 349.000
42.27418 329.000
42.29413 323.000
42.31408 354.000
42.33403 353.000
42.35397 354.000
42.37392 327.000
42.39387 314.000
42.41381 317.000
42.43376 305.000
42.45371 352.000
42.47365 358.000
42.49360 359.000
42.51355 363.000
42.53349 371.000
42.55344 390.000
42.57339 381.000
42.59334 402.000
42.61328 411.000
42.63323 402.000
42.65318 409.000
42.67312 422.000
42.69307 405.000
42.71302 433.000
42.73296 453.000
42.75291 458.000
42.77286 516.000
42.79281 534.000
42.81275 606.000
42.83270 624.000
42.85265 683.000
42.87259 758.000
42.89254 847.000
42.91249 958.000
42.93243 1017.000
42.95238 1345.000
42.97233 1571.000
42.99227 2031.000
43.01222 2323.000
43.03217 2754.000
43.05212 3311.000
43.07206 3804.000
43.09201 4168.000
43.11196 4556.000
43.13190 4575.000
43.15185 4617.000
43.17180 4519.000
43.19174 4603.000
43.21169 4348.000
43.23164 4004.000
43.25159 4036.000
43.27153 3540.000
43.29148 2986.000
43.31143 2743.000
43.33137 2294.000
43.35132 1892.000
43.37127 1656.000
43.39121 1396.000
43.41116 1239.000
43.43111 986.000
43.45105 849.000
43.47100 739.000
43.49095 649.000
43.51090 518.000
43.53084 532.000
43.55079 476.000
43.57074 417.000
43.59068 421.000
43.61063 381.000
43.63058 380.000
43.65052 366.000
43.67047 353.000
43.69042 332.000
43.71037 330.000
43.73031 337.000
43.75026 312.000
43.77021 323.000
43.79015 298.000
43.81010 307.000
43.83005 292.000
43.84999 291.000
43.86994 304.000
43.88989 285.000
43.90984 264.000
43.92978 271.000
43.94973 297.000
43.96968 269.000
43.98962 285.000
44.00957 289.000
44.02952 284.000
44.04946 273.000
44.06941 271.000
44.08936 276.000
44.10930 254.000
44.12925 247.000
44.14920 256.000
44.16915 233.000
44.18909 250.000
44.20904 226.000
44.22899 243.000
44.24893 289.000
44.26888 243.000
44.28883 295.000
44.30877 270.000
44.32872 244.000
44.34867 259.000
44.36862 248.000
44.38856 240.000
44.40851 247.000
44.42846 250.000
44.44840 245.000
44.46835 272.000
44.48830 263.000
44.50824 257.000
44.52819 272.000
44.54814 270.000
44.56808 255.000
44.58803 271.000
44.60798 296.000
44.62793 256.000
44.64787 257.000
44.66782 246.000
44.68777 227.000
44.70771 261.000
44.72766 279.000
44.74761 269.000
44.76755 266.000
44.78750 248.000
44.80745 232.000
44.82740 267.000
44.84734 277.000
44.86729 225.000
44.88724 266.000
44.90718 248.000
44.92713 250.000
44.94708 257.000
44.96702 237.000
44.98697 265.000
45.00692 255.000
45.02686 262.000
45.04681 262.000
45.06676 272.000
45.08671 252.000
45.10665 304.000
45.12660 297.000
45.14655 265.000
45.16649 261.000
45.18644 292.000
45.20639 294.000
45.22633 299.000
45.24628 289.000
45.26623 253.000
45.28618 268.000
45.30612 278.000
45.32607 253.000
45.34602 258.000
45.36596 284.000
45.38591 253.000
45.40586 232.000
45.42580 254.000
45.44575 276.000
45.46570 252.000
45.48565 229.000
45.50559 267.000
45.52554 272.000
45.54549 269.000
45.56543 254.000
45.58538 267.000
45.60533 259.000
45.62527 253.000
45.64522 281.000
45.66517 282.000
45.68511 285.000
45.70506 230.000
45.72501 296.000
45.74496 268.000
45.76490 268.000
45.78485 259.000
45.80480 252.000
45.82474 263.000
45.84469 252.000
45.86464 245.000
45.88458 260.000
45.90453 251.000
45.92448 216.000
45.94443 226.000
45.96437 264.000
45.98432 224.000
46.00427 277.000
46.02421 258.000
46.04416 230.000
46.06411 240.000
46.08405 230.000
46.10400 229.000
46.12395 240.000
46.14389 227.000
46.16384 232.000
46.18379 217.000
46.20374 227.000
46.22368 229.000
46.24363 254.000
46.26358 270.000
46.28352 218.000
46.30347 217.000
46.32342 241.000
46.34336 230.000
46.36331 216.000
46.38326 236.000
46.40321 229.000
46.42315 246.000
46.44310 233.000
46.46305 244.000
46.48299 257.000
46.50294 232.000
46.52289 286.000
46.54283 240.000
46.56278 235.000
46.58273 261.000
46.60267 269.000
46.62262 241.000
46.64257 234.000
46.66252 221.000
46.68246 251.000
46.70241 236.000
46.72236 263.000
46.74230 251.000
46.76225 229.000
46.78220 229.000
46.80214 254.000
46.82209 214.000
46.84204 216.000
46.86199 229.000
46.88193 221.000
46.90188 238.000
46.92183 260.000
46.94177 231.000
46.96172 220.000
46.98167 248.000
47.00161 259.000
47.02156 223.000
47.04151 225.000
47.06146 247.000
47.08140 259.000
47.10135 231.000
47.12130 213.000
47.14124 237.000
47.16119 235.000
47.18114 263.000
47.20108 227.000
47.22103 255.000
47.24098 222.000
47.26092 264.000
47.28087 230.000
47.30082 249.000
47.32077 231.000
47.34071 255.000
47.36066 257.000
47.38061 262.000
47.40055 236.000
47.42050 222.000
47.44045 256.000
47.46039 232.000
47.48034 239.000
47.50029 252.000
47.52024 228.000
47.54018 216.000
47.56013 268.000
47.58008 253.000
47.60002 258.000
47.61997 236.000
47.63992 284.000
47.65986 238.000
47.67981 248.000
47.69976 224.000
47.71970 268.000
47.73965 253.000
47.75960 258.000
47.77955 242.000
47.79949 252.000
47.81944 242.000
47.83939 257.000
47.85933 266.000
47.87928 269.000
47.89923 278.000
47.91917 269.000
47.93912 286.000
47.95907 262.000
47.97902 295.000
47.99896 264.000
48.01891 276.000
48.03886 307.000
48.05880 291.000
48.07875 289.000
48.09870 314.000
48.11864 288.000
48.13859 318.000
48.15854 311.000
48.17848 294.000
48.19843 290.000
48.21838 305.000
48.23833 305.000
48.25827 289.000
48.27822 291.000
48.29817 287.000
48.31811 286.000
48.33806 263.000
48.35801 236.000
48.37795 286.000
48.39790 265.000
48.41785 268.000
48.43780 254.000
48.45774 249.000
48.47769 274.000
48.49764 265.000
48.51758 269.000
48.53753 282.000
48.55748 278.000
48.57742 267.000
48.59737 265.000
48.61732 258.000
48.63726 299.000
48.65721 272.000
48.67716 311.000
48.69711 326.000
48.71705 343.000
48.73700 357.000
48.75695 390.000
48.77689 400.000
48.79684 412.000
48.81679 387.000
48.83673 462.000
48.85668 409.000
48.87663 432.000
48.89658 365.000
48.91652 405.000
48.93647 395.000
48.95642 374.000
48.97636 330.000
48.99631 321.000
49.01626 297.000
49.03620 262.000
49.05615 284.000
49.07610 265.000
49.09605 255.000
49.11599 257.000
49.13594 294.000
49.15589 268.000
49.17583 271.000
49.19578 224.000
49.21573 268.000
49.23567 254.000
49.25562 261.000
49.27557 269.000
49.29551 280.000
49.31546 263.000
49.33541 240.000
49.35536 235.000
49.37530 268.000
49.39525 286.000
49.41520 292.000
49.43514 278.000
49.45509 252.000
49.47504 277.000
49.49498 279.000
49.51493 267.000
49.53488 257.000
49.55483 260.000
49.57477 266.000
49.59472 298.000
49.61467 301.000
49.63461 309.000
49.65456 300.000
49.67451 275.000
49.69445 239.000
49.71440 278.000
49.73435 246.000
49.75429 257.000
49.77424 265.000
49.79419 272.000
49.81414 241.000
49.83408 248.000
49.85403 241.000
49.87398 258.000
49.89392 260.000
49.91387 247.000
49.93382 277.000
49.95376 238.000
49.97371 272.000
49.99366 249.000
50.01361 217.000
50.03355 221.000
50.05350 216.000
50.07345 233.000
50.09339 271.000
50.11334 269.000
50.13329 235.000
50.15323 237.000
50.17318 259.000
50.19313 247.000
50.21307 229.000
50.23302 261.000
50.25297 256.000
50.27292 236.000
50.29286 232.000
50.31281 201.000
50.33276 231.000
50.35270 245.000
50.37265 209.000
50.39260 234.000
50.41254 230.000
50.43249 253.000
50.45244 247.000
50.47239 236.000
50.49233 214.000
50.51228 265.000
50.53223 236.000
50.55217 224.000
50.57212 277.000
50.59207 237.000
50.61201 241.000
50.63196 227.000
50.65191 227.000
50.67186 220.000
50.69180 221.000
50.71175 215.000
50.73170 230.000
50.75164 248.000
50.77159 228.000
50.79154 245.000
50.81148 241.000
50.83143 229.000
50.85138 263.000
50.87132 232.000
50.89127 243.000
50.91122 240.000
50.93117 248.000
50.95111 242.000
50.97106 235.000
50.99101 230.000
51.01095 220.000
51.03090 257.000
51.05085 235.000
51.07079 247.000
51.09074 217.000
51.11069 222.000
51.13064 224.000
51.15058 255.000
51.17053 241.000
51.19048 220.000
51.21042 246.000
51.23037 259.000
51.25032 231.000
51.27026 245.000
51.29021 238.000
51.31016 273.000
51.33010 265.000
51.35005 239.000
51.37000 237.000
51.38995 255.000
51.40989 254.000
51.42984 238.000
51.44979 243.000
51.46973 239.000
51.48968 214.000
51.50963 233.000
51.52957 273.000
51.54952 242.000
51.56947 220.000
51.58942 261.000
51.60936 225.000
51.62931 218.000
51.64926 243.000
51.66920 263.000
51.68915 256.000
51.70910 213.000
51.72904 230.000
51.74899 230.000
51.76894 227.000
51.78888 261.000
51.80883 243.000
51.82878 239.000
51.84873 243.000
51.86867 255.000
51.88862 270.000
51.90857 233.000
51.92851 274.000
51.94846 280.000
51.96841 274.000
51.98835 272.000
52.00830 273.000
52.02825 287.000
52.04820 266.000
52.06814 286.000
52.08809 332.000
52.10804 320.000
52.12798 329.000
52.14793 334.000
52.16788 334.000
52.18782 335.000
52.20777 343.000
52.22772 355.000
52.24767 310.000
52.26761 318.000
52.28756 304.000
52.30751 317.000
52.32745 272.000
52.34740 296.000
52.36735 261.000
52.38729 289.000
52.40724 264.000
52.42719 253.000
52.44713 259.000
52.46708 263.000
52.48703 260.000
52.50698 276.000
52.52692 225.000
52.54687 246.000
52.56682 233.000
52.58676 239.000
52.60671 251.000
52.62666 240.000
52.64660 252.000
52.66655 233.000
52.68650 229.000
52.70645 245.000
52.72639 233.000
52.74634 259.000
52.76629 250.000
52.78623 231.000
52.80618 226.000
52.82613 237.000
52.84607 235.000
52.86602 249.000
52.88597 225.000
52.90591 232.000
52.92586 253.000
52.94581 244.000
52.96576 233.000
52.98570 237.000
53.00565 262.000
53.02560 285.000
53.04554 279.000
53.06549 231.000
53.08544 263.000
53.10538 279.000
53.12533 286.000
53.14528 313.000
53.16523 310.000
53.18517 293.000
53.20512 315.000
53.22507 306.000
53.24501 311.000
53.26496 289.000
53.28491 308.000
53.30485 305.000
53.32480 305.000
53.34475 282.000
53.36469 313.000
53.38464 325.000
53.40459 290.000
53.42454 296.000
53.44448 291.000
53.46443 316.000
53.48438 319.000
53.50432 315.000
53.52427 298.000
53.54422 307.000
53.56416 300.000
53.58411 299.000
53.60406 262.000
53.62401 273.000
53.64395 270.000
53.66390 273.000
53.68385 250.000
53.70379 275.000
53.72374 260.000
53.74369 240.000
53.76363 288.000
53.78358 236.000
53.80353 230.000
53.82348 277.000
53.84342 255.000
53.86337 250.000
53.88332 236.000
53.90326 253.000
53.92321 253.000
53.94316 242.000
53.96310 249.000
53.98305 242.000
54.00300 240.000
54.02294 243.000
54.04289 254.000
54.06284 234.000
54.08279 224.000
54.10273 232.000
54.12268 217.000
54.14263 243.000
54.16257 251.000
54.18252 261.000
54.20247 216.000
54.22241 236.000
54.24236 249.000
54.26231 227.000
54.28226 266.000
54.30220 233.000
54.32215 243.000
54.34210 223.000
54.36204 233.000
54.38199 266.000
54.40194 235.000
54.42188 259.000
54.44183 255.000
54.46178 205.000
54.48172 252.000
54.50167 233.000
54.52162 265.000
54.54157 252.000
54.56151 245.000
54.58146 245.000
54.60141 234.000
54.62135 210.000
54.64130 240.000
54.66125 237.000
54.68119 251.000
54.70114 231.000
54.72109 246.000
54.74104 216.000
54.76098 230.000
54.78093 226.000
54.80088 236.000
54.82082 244.000
54.84077 233.000
54.86072 222.000
54.88066 233.000
54.90061 236.000
54.92056 253.000
54.94050 261.000
54.96045 241.000
54.98040 215.000
55.00035 248.000
55.02029 207.000
55.04024 272.000
55.06019 235.000
55.08013 205.000
55.10008 221.000
55.12003 217.000
55.13997 239.000
55.15992 253.000
55.17987 252.000
55.19982 240.000
55.21976 209.000
55.23971 223.000
55.25966 212.000
55.27960 208.000
55.29955 278.000
55.31950 238.000
55.33944 224.000
55.35939 222.000
55.37934 247.000
55.39929 245.000
55.41923 228.000
55.43918 231.000
55.45913 212.000
55.47907 229.000
55.49902 242.000
55.51897 259.000
55.53891 216.000
55.55886 245.000
55.57881 288.000
55.59875 267.000
55.61870 237.000
55.63865 229.000
55.65860 221.000
55.67854 257.000
55.69849 214.000
55.71844 215.000
55.73838 268.000
55.75833 248.000
55.77828 254.000
55.79822 256.000
55.81817 261.000
55.83812 251.000
55.85807 213.000
55.87801 238.000
55.89796 237.000
55.91791 230.000
55.93785 265.000
55.95780 247.000
55.97775 229.000
55.99769 241.000
56.01764 248.000
56.03759 252.000
56.05753 215.000
56.07748 247.000
56.09743 250.000
56.11738 207.000
56.13732 258.000
56.15727 253.000
56.17722 226.000
56.19716 223.000
56.21711 226.000
56.23706 268.000
56.25700 267.000
56.27695 236.000
56.29690 245.000
56.31685 234.000
56.33679 228.000
56.35674 243.000
56.37669 232.000
56.39663 212.000
56.41658 229.000
56.43653 240.000
56.45647 240.000
56.47642 240.000
56.49637 237.000
56.51631 238.000
56.53626 251.000
56.55621 270.000
56.57616 261.000
56.59610 250.000
56.61605 228.000
56.63600 266.000
56.65594 224.000
56.67589 223.000
56.69584 235.000
56.71578 214.000
56.73573 240.000
56.75568 242.000
56.77563 241.000
56.79557 229.000
56.81552 221.000
56.83547 237.000
56.85541 248.000
56.87536 243.000
56.89531 259.000
56.91525 230.000
56.93520 220.000
56.95515 240.000
56.97510 279.000
56.99504 267.000
57.01499 264.000
57.03494 256.000
57.05488 216.000
57.07483 248.000
57.09478 242.000
57.11472 224.000
57.13467 282.000
57.15462 243.000
57.17456 271.000
57.19451 260.000
57.21446 233.000
57.23441 231.000
57.25435 287.000
57.27430 289.000
57.29425 280.000
57.31419 259.000
57.33414 252.000
57.35409 268.000
57.37403 274.000
57.39398 241.000
57.41393 266.000
57.43388 265.000
57.45382 267.000
57.47377 274.000
57.49372 274.000
57.51366 285.000
57.53361 287.000
57.55356 273.000
57.57350 277.000
57.59345 280.000
57.61340 276.000
57.63334 289.000
57.65329 299.000
57.67324 282.000
57.69319 339.000
57.71313 293.000
57.73308 313.000
57.75303 316.000
57.77297 314.000
57.79292 314.000
57.81287 328.000
57.83281 344.000
57.85276 297.000
57.87271 314.000
57.89266 328.000
57.91260 354.000
57.93255 328.000
57.95250 317.000
57.97244 326.000
57.99239 313.000
58.01234 315.000
58.03228 324.000
58.05223 311.000
58.07218 301.000
58.09212 303.000
58.11207 312.000
58.13202 308.000
58.15197 296.000
58.17191 379.000
58.19186 343.000
58.21181 325.000
58.23175 352.000
58.25170 355.000
58.27165 354.000
58.29159 337.000
58.31154 326.000
58.33149 361.000
58.35144 311.000
58.37138 344.000
58.39133 302.000
58.41128 332.000
58.43122 338.000
58.45117 258.000
58.47112 290.000
58.49106 268.000
58.51101 284.000
58.53096 279.000
58.55090 265.000
58.57085 271.000
58.59080 285.000
58.61075 255.000
58.63069 258.000
58.65064 256.000
58.67059 269.000
58.69053 254.000
58.71048 240.000
58.73043 267.000
58.75037 239.000
58.77032 251.000
58.79027 246.000
58.81022 249.000
58.83016 252.000
58.85011 248.000
58.87006 214.000
58.89000 244.000
58.90995 253.000
58.92990 233.000
58.94984 238.000
58.96979 265.000
58.98974 241.000
59.00969 232.000
59.02963 260.000
59.04958 237.000
59.06953 260.000
59.08947 227.000
59.10942 255.000
59.12937 248.000
59.14931 237.000
59.16926 234.000
59.18921 252.000
59.20915 246.000
59.22910 258.000
59.24905 253.000
59.26900 255.000
59.28894 249.000
59.30889 247.000
59.32884 246.000
59.34878 226.000
59.36873 259.000
59.38868 238.000
59.40862 235.000
59.42857 232.000
59.44852 251.000
59.46847 235.000
59.48841 258.000
59.50836 246.000
59.52831 232.000
59.54825 266.000
59.56820 259.000
59.58815 250.000
59.60809 240.000
59.62804 237.000
59.64799 256.000
59.66793 238.000
59.68788 267.000
59.70783 242.000
59.72778 240.000
59.74772 256.000
59.76767 261.000
59.78762 225.000
59.80756 212.000
59.82751 274.000
59.84746 274.000
59.86740 255.000
59.88735 233.000
59.90730 266.000
59.92725 236.000
59.94719 256.000
59.96714 256.000
59.98709 238.000
60.00703 281.000
60.02698 240.000
60.04693 259.000
60.06687 265.000
60.08682 246.000
60.10677 256.000
60.12671 283.000
60.14666 265.000
60.16661 276.000
60.18656 271.000
60.20650 251.000
60.22645 222.000
60.24640 267.000
60.26634 239.000
60.28629 263.000
60.30624 284.000
60.32618 249.000
60.34613 242.000
60.36608 246.000
60.38603 230.000
60.40597 250.000
60.42592 242.000
60.44587 229.000
60.46581 249.000
60.48576 256.000
60.50571 256.000
60.52565 230.000
60.54560 252.000
60.56555 238.000
60.58550 256.000
60.60544 237.000
60.62539 243.000
60.64534 238.000
60.66528 272.000
60.68523 251.000
60.70518 219.000
60.72512 235.000
60.74507 268.000
60.76502 259.000
60.78496 230.000
60.80491 236.000
60.82486 249.000
60.84481 256.000
60.86475 268.000
60.88470 246.000
60.90465 261.000
60.92459 276.000
60.94454 238.000
60.96449 242.000
60.98443 271.000
61.00438 270.000
61.02433 257.000
61.04428 243.000
61.06422 259.000
61.08417 255.000
61.10412 268.000
61.12406 270.000
61.14401 204.000
61.16396 265.000
61.18390 261.000
61.20385 251.000
61.22380 262.000
61.24374 259.000
61.26369 228.000
61.28364 260.000
61.30359 259.000
61.32353 274.000
61.34348 273.000
61.36343 288.000
61.38337 285.000
61.40332 300.000
61.42327 249.000
61.44321 267.000
61.46316 283.000
61.48311 293.000
61.50306 281.000
61.52300 284.000
61.54295 291.000
61.56290 293.000
61.58284 279.000
61.60279 305.000
61.62274 305.000
61.64268 314.000
61.66263 288.000
61.68258 310.000
61.70252 357.000
61.72247 290.000
61.74242 302.000
61.76237 316.000
61.78231 335.000
61.80226 326.000
61.82221 303.000
61.84215 313.000
61.86210 311.000
61.88205 348.000
61.90199 326.000
61.92194 337.000
61.94189 329.000
61.96184 340.000
61.98178 354.000
62.00173 349.000
62.02168 373.000
62.04162 359.000
62.06157 345.000
62.08152 397.000
62.10146 397.000
62.12141 406.000
62.14136 401.000
62.16131 453.000
62.18125 454.000
62.20120 475.000
62.22115 450.000
62.24109 500.000
62.26104 493.000
62.28099 555.000
62.30093 590.000
62.32088 609.000
62.34083 627.000
62.36077 679.000
62.38072 774.000
62.40067 839.000
62.42062 940.000
62.44056 1065.000
62.46051 1257.000
62.48046 1367.000
62.50040 1497.000
62.52035 1676.000
62.54030 1718.000
62.56024 1829.000
62.58019 1861.000
62.60014 1999.000
62.62009 1952.000
62.64003 1902.000
62.65998 1963.000
62.67993 2018.000
62.69987 1921.000
62.71982 1885.000
62.73977 1853.000
62.75971 1833.000
62.77966 1762.000
62.79961 1631.000
62.81955 1559.000
62.83950 1366.000
62.85945 1345.000
62.87940 1151.000
62.89934 1150.000
62.91929 959.000
62.93924 912.000
62.95918 854.000
62.97913 749.000
62.99908 803.000
63.01902 672.000
63.03897 570.000
63.05892 556.000
63.07887 550.000
63.09881 488.000
63.11876 463.000
63.13871 454.000
63.15865 445.000
63.17860 438.000
63.19855 415.000
63.21849 369.000
63.23844 397.000
63.25839 354.000
63.27833 335.000
63.29828 347.000
63.31823 343.000
63.33818 344.000
63.35812 352.000
63.37807 324.000
63.39802 334.000
63.41796 329.000
63.43791 315.000
63.45786 311.000
63.47780 277.000
63.49775 300.000
63.51770 312.000
63.53765 311.000
63.55759 298.000
63.57754 309.000
63.59749 280.000
63.61743 258.000
63.63738 251.000
63.65733 291.000
63.67727 310.000
63.69722 282.000
63.71717 263.000
63.73712 291.000
63.75706 271.000
63.77701 269.000
63.79696 298.000
63.81690 273.000
63.83685 286.000
63.85680 282.000
63.87674 312.000
63.89669 287.000
63.91664 256.000
63.93658 272.000
63.95653 300.000
63.97648 328.000
63.99643 287.000
64.01637 288.000
64.03632 287.000
64.05627 284.000
64.07621 265.000
64.09616 331.000
64.11611 337.000
64.13605 314.000
64.15600 315.000
64.17595 335.000
64.19590 323.000
64.21584 351.000
64.23579 301.000
64.25574 322.000
64.27568 310.000
64.29563 323.000
64.31558 307.000
64.33552 317.000
64.35547 305.000
64.37542 320.000
64.39536 318.000
64.41531 291.000
64.43526 300.000
64.45521 283.000
64.47515 295.000
64.49510 252.000
64.51505 296.000
64.53499 251.000
64.55494 279.000
64.57489 271.000
64.59483 279.000
64.61478 300.000
64.63473 261.000
64.65468 296.000
64.67462 245.000
64.69457 256.000
64.71452 278.000
64.73446 277.000
64.75441 261.000
64.77436 262.000
64.79430 276.000
64.81425 250.000
64.83420 275.000
64.85414 233.000
64.87409 255.000
64.89404 265.000
64.91399 235.000
64.93393 256.000
64.95388 237.000
64.97383 265.000
64.99377 280.000
65.01372 284.000
65.03367 278.000
65.05361 273.000
65.07356 237.000
65.09351 275.000
65.11346 256.000
65.13340 275.000
65.15335 282.000
65.17330 261.000
65.19324 260.000
65.21319 289.000
65.23314 286.000
65.25308 283.000
65.27303 287.000
65.29298 262.000
65.31293 273.000
65.33287 285.000
65.35282 280.000
65.37277 296.000
65.39271 286.000
65.41266 298.000
65.43261 304.000
65.45255 300.000
65.47250 289.000
65.49245 297.000
65.51239 320.000
65.53234 326.000
65.55229 305.000
65.57224 337.000
65.59218 327.000
65.61213 351.000
65.63208 360.000
65.65202 353.000
65.67197 352.000
65.69192 360.000
65.71186 349.000
65.73181 361.000
65.75176 367.000
65.77171 328.000
65.79165 391.000
65.81160 363.000
65.83155 366.000
65.85149 330.000
65.87144 311.000
65.89139 306.000
65.91133 318.000
65.93128 323.000
65.95123 288.000
65.97117 310.000
65.99112 337.000
66.01107 311.000
66.03102 306.000
66.05096 259.000
66.07091 268.000
66.09086 303.000
66.11080 242.000
66.13075 274.000
66.15070 287.000
66.17064 269.000
66.19059 273.000
66.21054 269.000
66.23049 277.000
66.25043 260.000
66.27038 262.000
66.29033 252.000
66.31027 257.000
66.33022 276.000
66.35017 253.000
66.37011 275.000
66.39006 252.000
66.41001 262.000
66.42995 279.000
66.44990 244.000
66.46985 257.000
66.48980 277.000
66.50974 272.000
66.52969 269.000
66.54964 236.000
66.56958 263.000
66.58953 247.000
66.60948 238.000
66.62942 286.000
66.64937 255.000
66.66932 269.000
66.68927 261.000
66.70921 241.000
66.72916 266.000
66.74911 249.000
66.76905 281.000
66.78900 274.000
66.80895 252.000
66.82889 260.000
66.84884 273.000
66.86879 237.000
66.88874 276.000
66.90868 261.000
66.92863 242.000
66.94858 276.000
66.96852 240.000
66.98847 262.000
67.00842 259.000
67.02836 269.000
67.04831 268.000
67.06826 249.000
67.08820 253.000
67.10815 291.000
67.12810 243.000
67.14805 280.000
67.16799 254.000
67.18794 263.000
67.20789 278.000
67.22783 222.000
67.24778 260.000
67.26773 260.000
67.28767 250.000
67.30762 279.000
67.32757 248.000
67.34752 256.000
67.36746 249.000
67.38741 218.000
67.40736 263.000
67.42730 270.000
67.44725 274.000
67.46720 218.000
67.48714 248.000
67.50709 244.000
67.52704 220.000
67.54698 272.000
67.56693 224.000
67.58688 203.000
67.60683 209.000
67.62677 245.000
67.64672 226.000
67.66667 232.000
67.68661 250.000
67.70656 232.000
67.72651 222.000
67.74645 245.000
67.76640 260.000
67.78635 202.000
67.80630 235.000
67.82624 275.000
67.84619 251.000
67.86614 267.000
67.88608 252.000
67.90603 280.000
67.92598 242.000
67.94592 263.000
67.96587 234.000
67.98582 265.000
68.00576 274.000
68.02571 230.000
68.04566 236.000
68.06561 261.000
68.08555 260.000
68.10550 278.000
68.12545 246.000
68.14539 284.000
68.16534 248.000
68.18529 264.000
68.20523 244.000
68.22518 261.000
68.24513 297.000
68.26508 217.000
68.28502 253.000
68.30497 247.000
68.32492 239.000
68.34486 264.000
68.36481 273.000
68.38476 264.000
68.40470 241.000
68.42465 260.000
68.44460 246.000
68.46455 241.000
68.48449 274.000
68.50444 264.000
68.52439 265.000
68.54433 240.000
68.56428 250.000
68.58423 216.000
68.60417 252.000
68.62412 240.000
68.64407 253.000
68.66401 283.000
68.68396 248.000
68.70391 247.000
68.72386 286.000
68.74380 273.000
68.76375 264.000
68.78370 277.000
68.80364 262.000
68.82359 285.000
68.84354 287.000
68.86348 283.000
68.88343 269.000
68.90338 285.000
68.92333 265.000
68.94327 251.000
68.96322 252.000
68.98317 264.000
69.00311 242.000
69.02306 247.000
69.04301 282.000
69.06295 246.000
69.08290 232.000
69.10285 259.000
69.12279 251.000
69.14274 242.000
69.16269 232.000
69.18264 233.000
69.20258 246.000
69.22253 251.000
69.24248 254.000
69.26242 239.000
69.28237 264.000
69.30232 235.000
69.32226 236.000
69.34221 237.000
69.36216 228.000
69.38211 229.000
69.40205 220.000
69.42200 247.000
69.44195 231.000
69.46189 241.000
69.48184 236.000
69.50179 230.000
69.52173 254.000
69.54168 244.000
69.56163 244.000
69.58157 267.000
69.60152 242.000
69.62147 256.000
69.64142 222.000
69.66136 218.000
69.68131 226.000
69.70126 229.000
69.72120 244.000
69.74115 245.000
69.76110 244.000
69.78104 228.000
69.80099 241.000
69.82094 258.000
69.84089 247.000
69.86083 233.000
69.88078 254.000
69.90073 239.000
69.92067 213.000
69.94062 244.000
69.96057 282.000
69.98051 239.000
70.00046 262.000
70.02041 259.000
70.04035 246.000
70.06030 219.000
70.08025 240.000
70.10020 244.000
70.12014 221.000
70.14009 227.000
70.16004 279.000
70.17998 250.000
70.19993 272.000
70.21988 230.000
70.23982 258.000
70.25977 221.000
70.27972 222.000
70.29967 250.000
70.31961 261.000
70.33956 220.000
70.35951 235.000
70.37945 217.000
70.39940 240.000
70.41935 244.000
70.43929 248.000
70.45924 241.000
70.47919 252.000
70.49914 247.000
70.51908 232.000
70.53903 240.000
70.55898 248.000
70.57892 224.000
70.59887 226.000
70.61882 261.000
70.63876 253.000
70.65871 235.000
70.67866 226.000
70.69860 244.000
70.71855 251.000
70.73850 256.000
70.75845 264.000
70.77839 235.000
70.79834 217.000
70.81829 256.000
70.83823 222.000
70.85818 242.000
70.87813 240.000
70.89807 240.000
70.91802 264.000
70.93797 219.000
70.95792 265.000
70.97786 232.000
70.99781 233.000
71.01776 246.000
71.03770 220.000
71.05765 245.000
71.07760 237.000
71.09754 236.000
71.11749 228.000
71.13744 251.000
71.15738 237.000
71.17733 238.000
71.19728 243.000
71.21723 275.000
71.23717 240.000
71.25712 264.000
71.27707 229.000
71.29701 232.000
71.31696 246.000
71.33691 247.000
71.35685 215.000
71.37680 243.000
71.39675 225.000
71.41670 244.000
71.43664 257.000
71.45659 245.000
71.47654 228.000
71.49648 223.000
71.51643 225.000
71.53638 280.000
71.55632 241.000
71.57627 244.000
71.59622 235.000
71.61616 261.000
71.63611 242.000
71.65606 222.000
71.67601 243.000
71.69595 227.000
71.71590 260.000
71.73585 243.000
71.75579 278.000
71.77574 286.000
71.79569 229.000
71.81563 256.000
71.83558 253.000
71.85553 217.000
71.87548 274.000
71.89542 246.000
71.91537 242.000
71.93532 240.000
71.95526 252.000
71.97521 263.000
71.99516 236.000
72.01510 233.000
72.03505 241.000
72.05500 255.000
72.07495 248.000
72.09489 258.000
72.11484 244.000
72.13479 260.000
72.15473 225.000
72.17468 268.000
72.19463 239.000
72.21457 240.000
72.23452 257.000
72.25447 274.000
72.27441 250.000
72.29436 250.000
72.31431 244.000
72.33426 241.000
72.35420 233.000
72.37415 230.000
72.39410 253.000
72.41404 249.000
72.43399 256.000
72.45394 244.000
72.47388 242.000
72.49383 261.000
72.51378 238.000
72.53373 257.000
72.55367 274.000
72.57362 228.000
72.59357 233.000
72.61351 250.000
72.63346 277.000
72.65341 229.000
72.67335 243.000
72.69330 253.000
72.71325 265.000
72.73319 278.000
72.75314 231.000
72.77309 244.000
72.79304 253.000
72.81298 278.000
72.83293 265.000
72.85288 283.000
72.87282 313.000
72.89277 293.000
72.91272 273.000
72.93266 281.000
72.95261 307.000
72.97256 266.000
72.99251 267.000
73.01245 290.000
73.03240 285.000
73.05235 270.000
73.07229 286.000
73.09224 281.000
73.11219 259.000
73.13213 267.000
73.15208 283.000
73.17203 288.000
73.19197 263.000
73.21192 265.000
73.23187 280.000
73.25182 282.000
73.27176 271.000
73.29171 258.000
73.31166 270.000
73.33160 260.000
73.35155 272.000
73.37150 259.000
73.39144 256.000
73.41139 297.000
73.43134 281.000
73.45129 298.000
73.47123 278.000
73.49118 256.000
73.51113 284.000
73.53107 275.000
73.55102 269.000
73.57097 260.000
73.59091 267.000
73.61086 258.000
73.63081 262.000
73.65076 236.000
73.67070 301.000
73.69065 257.000
73.71060 258.000
73.73054 251.000
73.75049 302.000
73.77044 278.000
73.79038 288.000
73.81033 284.000
73.83028 270.000
73.85022 259.000
73.87017 263.000
73.89012 282.000
73.91007 265.000
73.93001 278.000
73.94996 246.000
73.96991 282.000
73.98985 266.000
74.00980 275.000
74.02975 282.000
74.04969 258.000
74.06964 255.000
74.08959 268.000
74.10954 239.000
74.12948 234.000
74.14943 261.000
74.16938 274.000
74.18932 261.000
74.20927 286.000
74.22922 263.000
74.24916 287.000
74.26911 287.000
74.28906 241.000
74.30900 260.000
74.32895 275.000
74.34890 255.000
74.36885 286.000
74.38879 272.000
74.40874 288.000
74.42869 245.000
74.44863 266.000
74.46858 309.000
74.48853 307.000
74.50847 266.000
74.52842 263.000
74.54837 317.000
74.56832 314.000
74.58826 297.000
74.60821 336.000
74.62816 330.000
74.64810 341.000
74.66805 327.000
74.68800 360.000
74.70794 386.000
74.72789 379.000
74.74784 378.000
74.76778 378.000
74.78773 433.000
74.80768 459.000
74.82763 477.000
74.84757 537.000
74.86752 564.000
74.88747 576.000
74.90741 576.000
74.92736 662.000
74.94731 645.000
74.96725 706.000
74.98720 752.000
75.00715 725.000
75.02710 709.000
75.04704 720.000
75.06699 803.000
75.08694 752.000
75.10688 780.000
75.12683 777.000
75.14678 733.000
75.16672 780.000
75.18667 740.000
75.20662 761.000
75.22657 720.000
75.24651 677.000
75.26646 670.000
75.28641 658.000
75.30635 655.000
75.32630 597.000
75.34625 594.000
75.36619 597.000
75.38614 549.000
75.40609 515.000
75.42603 490.000
75.44598 462.000
75.46593 441.000
75.48588 421.000
75.50582 378.000
75.52577 364.000
75.54572 398.000
75.56566 370.000
75.58561 332.000
75.60556 317.000
75.62550 335.000
75.64545 326.000
75.66540 315.000
75.68535 315.000
75.70529 299.000
75.72524 302.000
75.74519 286.000
75.76513 268.000
75.78508 283.000
75.80503 284.000
75.82497 273.000
75.84492 288.000
75.86487 278.000
75.88481 274.000
75.90476 239.000
75.92471 270.000
75.94466 264.000
75.96460 265.000
75.98455 262.000
76.00450 264.000
76.02444 265.000
76.04439 275.000
76.06434 242.000
76.08428 247.000
76.10423 272.000
76.12418 256.000
76.14413 238.000
76.16407 271.000
76.18402 264.000
76.20397 254.000
76.22391 251.000
76.24386 246.000
76.26381 263.000
76.28375 240.000
76.30370 259.000
76.32365 234.000
76.34359 226.000
76.36354 260.000
76.38349 233.000
76.40344 244.000
76.42338 273.000
76.44333 243.000
76.46328 260.000
76.48322 249.000
76.50317 258.000
76.52312 225.000
76.54306 259.000
76.56301 224.000
76.58296 280.000
76.60291 232.000
76.62285 248.000
76.64280 233.000
76.66275 251.000
76.68269 243.000
76.70264 227.000
76.72259 269.000
76.74253 247.000
76.76248 259.000
76.78243 257.000
76.80238 222.000
76.82232 260.000
76.84227 252.000
76.86222 232.000
76.88216 239.000
76.90211 239.000
76.92206 250.000
76.94200 240.000
76.96195 245.000
76.98190 232.000
77.00184 216.000
77.02179 236.000
77.04174 245.000
77.06169 253.000
77.08163 257.000
77.10158 248.000
77.12153 241.000
77.14147 229.000
77.16142 245.000
77.18137 241.000
77.20131 213.000
77.22126 243.000
77.24121 254.000
77.26116 226.000
77.28110 264.000
77.30105 252.000
77.32100 224.000
77.34094 267.000
77.36089 231.000
77.38084 267.000
77.40078 224.000
77.42073 238.000
77.44068 243.000
77.46062 243.000
77.48057 294.000
77.50052 240.000
77.52047 229.000
77.54041 249.000
77.56036 256.000
77.58031 220.000
77.60025 241.000
77.62020 261.000
77.64015 262.000
77.66009 268.000
77.68004 262.000
77.69999 259.000
77.71994 289.000
77.73988 233.000
77.75983 275.000
77.77978 250.000
77.79972 257.000
77.81967 282.000
77.83962 257.000
77.85956 257.000
77.87951 239.000
77.89946 281.000
77.91940 256.000
77.93935 270.000
77.95930 255.000
77.97925 276.000
77.99919 258.000
78.01914 257.000
78.03909 283.000
78.05903 255.000
78.07898 263.000
78.09893 287.000
78.11887 312.000
78.13882 248.000
78.15877 267.000
78.17872 270.000
78.19866 281.000
78.21861 278.000
78.23856 280.000
78.25850 264.000
78.27845 272.000
78.29840 268.000
78.31834 298.000
78.33829 247.000
78.35824 305.000
78.37819 292.000
78.39813 296.000
78.41808 319.000
78.43803 327.000
78.45797 307.000
78.47792 299.000
78.49787 296.000
78.51781 311.000
78.53776 315.000
78.55771 321.000
78.57765 331.000
78.59760 301.000
78.61755 332.000
78.63750 302.000
78.65744 339.000
78.67739 371.000
78.69734 353.000
78.71728 349.000
78.73723 363.000
78.75718 403.000
78.77712 410.000
78.79707 432.000
78.81702 458.000
78.83697 515.000
78.85691 494.000
78.87686 555.000
78.89681 538.000
78.91675 567.000
78.93670 562.000
78.95665 630.000
78.97659 601.000
78.99654 626.000
79.01649 598.000
79.03643 577.000
79.05638 627.000
79.07633 647.000
79.09628 616.000
79.11622 613.000
79.13617 604.000
79.15612 619.000
79.17606 556.000
79.19601 596.000
79.21596 578.000
79.23590 519.000
79.25585 523.000
79.27580 550.000
79.29575 494.000
79.31569 502.000
79.33564 482.000
79.35559 444.000
79.37553 423.000
79.39548 415.000
79.41543 354.000
79.43537 393.000
79.45532 368.000
79.47527 332.000
79.49521 373.000
79.51516 323.000
79.53511 314.000
79.55506 287.000
79.57500 286.000
79.59495 295.000
79.61490 302.000
79.63484 287.000
79.65479 298.000
79.67474 311.000
79.69468 259.000
79.71463 259.000
79.73458 245.000
79.75453 263.000
79.77447 257.000
79.79442 252.000
79.81437 246.000
79.83431 254.000
79.85426 234.000
79.87421 250.000
79.89415 253.000
79.91410 233.000
79.93405 265.000
79.95399 221.000
79.97394 227.000
79.99389 240.000
80.01384 279.000
80.03378 272.000
80.05373 245.000
80.07368 248.000
80.09362 246.000
80.11357 230.000
80.13352 249.000
80.15346 229.000
80.17341 224.000
80.19336 244.000
80.21331 253.000
80.23325 213.000
80.25320 243.000
80.27315 229.000
80.29309 243.000
80.31304 255.000
80.33299 231.000
80.35293 269.000
80.37288 274.000
80.39283 233.000
80.41278 220.000
80.43272 217.000
80.45267 217.000
80.47262 222.000
80.49256 256.000
80.51251 264.000
80.53246 242.000
80.55240 218.000
80.57235 241.000
80.59230 228.000
80.61224 233.000
80.63219 250.000
80.65214 233.000
80.67209 250.000
80.69203 258.000
80.71198 243.000
80.73193 260.000
80.75187 247.000
80.77182 246.000
80.79177 250.000
80.81171 269.000
80.83166 254.000
80.85161 243.000
80.87156 269.000
80.89150 245.000
80.91145 223.000
80.93140 255.000
80.95134 246.000
80.97129 229.000
80.99124 227.000
81.01118 230.000
81.03113 256.000
81.05108 257.000
81.07102 208.000
81.09097 252.000
81.11092 255.000
81.13087 256.000
81.15081 234.000
81.17076 250.000
81.19071 254.000
81.21065 240.000
81.23060 234.000
81.25055 225.000
81.27049 250.000
81.29044 242.000
81.31039 235.000
81.33034 228.000
81.35028 257.000
81.37023 206.000
81.39018 256.000
81.41012 241.000
81.43007 261.000
81.45002 232.000
81.46996 248.000
81.48991 243.000
81.50986 255.000
81.52980 234.000
81.54975 243.000
81.56970 239.000
81.58965 245.000
81.60959 260.000
81.62954 242.000
81.64949 264.000
81.66943 238.000
81.68938 246.000
81.70933 236.000
81.72927 261.000
81.74922 227.000
81.76917 248.000
81.78912 258.000
81.80906 243.000
81.82901 249.000
81.84896 253.000
81.86890 216.000
81.88885 265.000
81.90880 227.000
81.92874 238.000
81.94869 245.000
81.96864 244.000
81.98859 261.000
82.00853 263.000
82.02848 254.000
82.04843 229.000
82.06837 227.000
82.08832 269.000
82.10827 226.000
82.12821 247.000
82.14816 257.000
82.16811 239.000
82.18805 258.000
82.20800 242.000
82.22795 260.000
82.24790 228.000
82.26784 221.000
82.28779 231.000
82.30774 245.000
82.32768 239.000
82.34763 261.000
82.36758 250.000
82.38752 254.000
82.40747 267.000
82.42742 261.000
82.44737 237.000
82.46731 246.000
82.48726 209.000
82.50721 240.000
82.52715 231.000
82.54710 231.000
82.56705 238.000
82.58699 256.000
82.60694 283.000
82.62689 222.000
82.64683 228.000
82.66678 256.000
82.68673 249.000
82.70668 237.000
82.72662 244.000
82.74657 244.000
82.76652 244.000
82.78646 266.000
82.80641 221.000
82.82636 218.000
82.84630 271.000
82.86625 236.000
82.88620 238.000
82.90615 237.000
82.92609 217.000
82.94604 224.000
82.96599 215.000
82.98593 227.000
83.00588 242.000
83.02583 236.000
83.04577 242.000
83.06572 246.000
83.08567 230.000
83.10561 239.000
83.12556 245.000
83.14551 266.000
83.16546 221.000
83.18540 233.000
83.20535 223.000
83.22530 224.000
83.24524 250.000
83.26519 261.000
83.28514 253.000
83.30508 253.000
83.32503 256.000
83.34498 240.000
83.36493 257.000
83.38487 263.000
83.40482 231.000
83.42477 225.000
83.44471 253.000
83.46466 224.000
83.48461 234.000
83.50455 273.000
83.52450 241.000
83.54445 262.000
83.56440 232.000
83.58434 253.000
83.60429 238.000
83.62424 251.000
83.64418 238.000
83.66413 196.000
83.68408 267.000
83.70402 245.000
83.72397 248.000
83.74392 243.000
83.76386 267.000
83.78381 224.000
83.80376 232.000
83.82371 257.000
83.84365 229.000
83.86360 245.000
83.88355 233.000
83.90349 232.000
83.92344 204.000
83.94339 241.000
83.96333 224.000
83.98328 263.000
84.00323 258.000
84.02318 242.000
84.04312 269.000
84.06307 238.000
84.08302 240.000
84.10296 245.000
84.12291 239.000
84.14286 265.000
84.16280 273.000
84.18275 228.000
84.20270 255.000
84.22264 239.000
84.24259 266.000
84.26254 239.000
84.28249 261.000
84.30243 218.000
84.32238 215.000
84.34233 253.000
84.36227 241.000
84.38222 238.000
84.40217 230.000
84.42211 255.000
84.44206 253.000
84.46201 245.000
84.48196 296.000
84.50190 267.000
84.52185 261.000
84.54180 272.000
84.56174 252.000
84.58169 308.000
84.60164 239.000
84.62158 231.000
84.64153 271.000
84.66148 257.000
84.68142 252.000
84.70137 252.000
84.72132 253.000
84.74127 258.000
84.76121 255.000
84.78116 257.000
84.80111 247.000
84.82105 243.000
84.84100 247.000
84.86095 223.000
84.88089 218.000
84.90084 252.000
84.92079 254.000
84.94074 249.000
84.96068 242.000
84.98063 259.000
85.00058 231.000
85.02052 199.000
85.04047 256.000
85.06042 275.000
85.08036 242.000
85.10031 247.000
85.12026 248.000
85.14021 250.000
85.16015 234.000
85.18010 222.000
85.20005 254.000
85.21999 217.000
85.23994 224.000
85.25989 226.000
85.27983 262.000
85.29978 236.000
85.31973 271.000
85.33967 224.000
85.35962 221.000
85.37957 242.000
85.39952 229.000
85.41946 250.000
85.43941 211.000
85.45936 236.000
85.47930 255.000
85.49925 240.000
85.51920 223.000
85.53914 230.000
85.55909 240.000
85.57904 251.000
85.59899 238.000
85.61893 217.000
85.63888 247.000
85.65883 217.000
85.67877 232.000
85.69872 249.000
85.71867 221.000
85.73861 247.000
85.75856 226.000
85.77851 219.000
85.79845 216.000
85.81840 242.000
85.83835 215.000
85.85830 232.000
85.87824 219.000
85.89819 232.000
85.91814 235.000
85.93808 247.000
85.95803 209.000
85.97798 230.000
85.99792 239.000
86.01787 228.000
86.03782 242.000
86.05777 237.000
86.07771 227.000
86.09766 270.000
86.11761 261.000
86.13755 263.000
86.15750 225.000
86.17745 242.000
86.19739 248.000
86.21734 215.000
86.23729 224.000
86.25723 215.000
86.27718 253.000
86.29713 236.000
86.31708 247.000
86.33702 240.000
86.35697 246.000
86.37692 213.000
86.39686 263.000
86.41681 211.000
86.43676 273.000
86.45670 234.000
86.47665 260.000
86.49660 231.000
86.51655 247.000
86.53649 216.000
86.55644 227.000
86.57639 248.000
86.59633 267.000
86.61628 242.000
86.63623 223.000
86.65617 238.000
86.67612 261.000
86.69607 226.000
86.71602 248.000
86.73596 241.000
86.75591 222.000
86.77586 247.000
86.79580 238.000
86.81575 236.000
86.83570 265.000
86.85564 263.000
86.87559 273.000
86.89554 293.000
86.91548 244.000
86.93543 247.000
86.95538 251.000
86.97533 254.000
86.99527 244.000
87.01522 235.000
87.03517 289.000
87.05511 269.000
87.07506 261.000
87.09501 275.000
87.11495 278.000
87.13490 273.000
87.15485 263.000
87.17480 272.000
87.19474 282.000
87.21469 245.000
87.23464 250.000
87.25458 264.000
87.27453 290.000
87.29448 261.000
87.31442 292.000
87.33437 231.000
87.35432 295.000
87.37426 255.000
87.39421 261.000
87.41416 223.000
87.43411 245.000
87.45405 273.000
87.47400 250.000
87.49395 224.000
87.51389 263.000
87.53384 255.000
87.55379 238.000
87.57373 239.000
87.59368 274.000
87.61363 262.000
87.63358 265.000
87.65352 279.000
87.67347 266.000
87.69342 259.000
87.71336 224.000
87.73331 236.000
87.75326 264.000
87.77320 272.000
87.79315 225.000
87.81310 259.000
87.83304 255.000
87.85299 241.000
87.87294 261.000
87.89289 241.000
87.91283 247.000
87.93278 229.000
87.95273 240.000
87.97267 248.000
87.99262 231.000
88.01257 233.000
88.03251 239.000
88.05246 223.000
88.07241 246.000
88.09236 262.000
88.11230 225.000
88.13225 236.000
88.15220 238.000
88.17214 276.000
88.19209 252.000
88.21204 251.000
88.23198 245.000
88.25193 255.000
88.27188 261.000
88.29183 227.000
88.31177 238.000
88.33172 237.000
88.35167 244.000
88.37161 241.000
88.39156 245.000
88.41151 241.000
88.43145 269.000
88.45140 219.000
88.47135 250.000
88.49129 234.000
88.51124 236.000
88.53119 217.000
88.55114 247.000
88.57108 268.000
88.59103 230.000
88.61098 254.000
88.63092 245.000
88.65087 251.000
88.67082 247.000
88.69076 233.000
88.71071 237.000
88.73066 241.000
88.75061 205.000
88.77055 249.000
88.79050 205.000
88.81045 233.000
88.83039 232.000
88.85034 262.000
88.87029 215.000
88.89023 229.000
88.91018 243.000
88.93013 251.000
88.95007 240.000
88.97002 244.000
88.98997 257.000
89.00992 258.000
89.02986 245.000
89.04981 230.000
89.06976 247.000
89.08970 234.000
89.10965 228.000
89.12960 253.000
89.14954 233.000
89.16949 249.000
89.18944 238.000
89.20939 230.000
89.22933 218.000
89.24928 243.000
89.26923 257.000
89.28917 245.000
89.30912 237.000
89.32907 239.000
89.34901 268.000
89.36896 249.000
89.38891 239.000
89.40885 242.000
89.42880 260.000
89.44875 248.000
89.46870 239.000
89.48864 225.000
89.50859 215.000
89.52854 260.000
89.54848 251.000
89.56843 238.000
89.58838 220.000
89.60832 249.000
89.62827 251.000
89.64822 233.000
89.66817 245.000
89.68811 252.000
89.70806 273.000
89.72801 248.000
89.74795 248.000
89.76790 224.000
89.78785 261.000
89.80779 244.000
89.82774 266.000
89.84769 245.000
89.86764 219.000
89.88758 238.000
89.90753 246.000
89.92748 252.000
89.94742 228.000
89.96737 266.000
89.98732 253.000
90.00726 246.000
