10.00000 196.000
10.01995 192.000
10.03989 156.000
10.05984 183.000
10.07979 144.000
10.09973 186.000
10.11968 174.000
10.13963 182.000
10.15958 181.000
10.17952 154.000
10.19947 168.000
10.21942 154.000
10.23936 169.000
10.25931 157.000
10.27926 176.000
10.29920 192.000
10.31915 181.000
10.33910 176.000
10.35905 158.000
10.37899 183.000
10.39894 183.000
10.41889 195.000
10.43883 161.000
10.45878 190.000
10.47873 159.000
10.49867 187.000
10.51862 162.000
10.53857 156.000
10.55851 173.000
10.57846 201.000
10.59841 179.000
10.61836 168.000
10.63830 160.000
10.65825 210.000
10.67820 166.000
10.69814 181.000
10.71809 185.000
10.73804 177.000
10.75798 164.000
10.77793 177.000
10.79788 162.000
10.81783 159.000
10.83777 187.000
10.85772 184.000
10.87767 167.000
10.89761 189.000
10.91756 152.000
10.93751 184.000
10.95745 179.000
10.97740 170.000
10.99735 216.000
11.01730 182.000
11.03724 160.000
11.05719 174.000
11.07714 155.000
11.09708 199.000
11.11703 181.000
11.13698 181.000
11.15692 172.000
11.17687 170.000
11.19682 181.000
11.21676 163.000
11.23671 183.000
11.25666 173.000
11.27661 148.000
11.29655 174.000
11.31650 170.000
11.33645 196.000
11.35639 186.000
11.37634 192.000
11.39629 169.000
11.41623 187.000
11.43618 170.000
11.45613 195.000
11.47608 190.000
11.49602 179.000
11.51597 194.000
11.53592 184.000
11.55586 168.000
11.57581 167.000
11.59576 174.000
11.61570 203.000
11.63565 191.000
11.65560 178.000
11.67554 184.000
11.69549 167.000
11.71544 195.000
11.73539 184.000
11.75533 185.000
11.77528 172.000
11.79523 188.000
11.81517 190.000
11.83512 174.000
11.85507 186.000
11.87501 196.000
11.89496 221.000
11.91491 199.000
11.93486 181.000
11.95480 180.000
11.97475 197.000
11.99470 152.000
12.01464 178.000
12.03459 216.000
12.05454 166.000
12.07448 173.000
12.09443 201.000
12.11438 184.000
12.13432 199.000
12.15427 183.000
12.17422 159.000
12.19417 180.000
12.21411 171.000
12.23406 199.000
12.25401 176.000
12.27395 172.000
12.29390 193.000
12.31385 192.000
12.33379 157.000
12.35374 185.000
12.37369 171.000
12.39364 188.000
12.41358 180.000
12.43353 166.000
12.45348 179.000
12.47342 196.000
12.49337 170.000
12.51332 207.000
12.53326 188.000
12.55321 178.000
12.57316 209.000
12.59311 167.000
12.61305 185.000
12.63300 200.000
12.65295 179.000
12.67289 163.000
12.69284 177.000
12.71279 201.000
12.73273 189.000
12.75268 191.000
12.77263 178.000
12.79257 185.000
12.81252 202.000
12.83247 205.000
12.85242 179.000
12.87236 209.000
12.89231 193.000
12.91226 197.000
12.93220 203.000
12.95215 207.000
12.97210 188.000
12.99204 186.000
13.01199 160.000
13.03194 159.000
13.05189 173.000
13.07183 196.000
13.09178 170.000
13.11173 172.000
13.13167 189.000
13.15162 198.000
13.17157 178.000
13.19151 161.000
13.21146 214.000
13.23141 187.000
13.25135 201.000
13.27130 173.000
13.29125 213.000
13.31120 193.000
13.33114 200.000
13.35109 205.000
13.37104 201.000
13.39098 196.000
13.41093 168.000
13.43088 187.000
13.45082 201.000
13.47077 177.000
13.49072 186.000
13.51067 214.000
13.53061 198.000
13.55056 197.000
13.57051 177.000
13.59045 181.000
13.61040 181.000
13.63035 192.000
13.65029 198.000
13.67024 189.000
13.69019 246.000
13.71013 199.000
13.73008 172.000
13.75003 201.000
13.76998 187.000
13.78992 194.000
13.80987 208.000
13.82982 206.000
13.84976 183.000
13.86971 189.000
13.88966 165.000
13.90960 207.000
13.92955 192.000
13.94950 171.000
13.96945 172.000
13.98939 195.000
14.00934 189.000
14.02929 185.000
14.04923 210.000
14.06918 223.000
14.08913 169.000
14.10907 195.000
14.12902 196.000
14.14897 186.000
14.16892 208.000
14.18886 190.000
14.20881 190.000
14.22876 198.000
14.24870 211.000
14.26865 186.000
14.28860 193.000
14.30854 205.000
14.32849 202.000
14.34844 202.000
14.36838 201.000
14.38833 185.000
14.40828 196.000
14.42823 217.000
14.44817 199.000
14.46812 179.000
14.48807 188.000
14.50801 194.000
14.52796 184.000
14.54791 218.000
14.56785 211.000
14.58780 211.000
14.60775 191.000
14.62770 175.000
14.64764 172.000
14.66759 205.000
14.68754 193.000
14.70748 164.000
14.72743 219.000
14.74738 198.000
14.76732 186.000
14.78727 213.000
14.80722 205.000
14.82716 196.000
14.84711 165.000
14.86706 203.000
14.88701 188.000
14.90695 183.000
14.92690 181.000
14.94685 195.000
14.96679 207.000
14.98674 180.000
15.00669 185.000
15.02663 181.000
15.04658 207.000
15.06653 206.000
15.08648 190.000
15.10642 205.000
15.12637 191.000
15.14632 194.000
15.16626 215.000
15.18621 214.000
15.20616 213.000
15.22610 197.000
15.24605 205.000
15.26600 235.000
15.28594 230.000
15.30589 215.000
15.32584 225.000
15.34579 219.000
15.36573 192.000
15.38568 206.000
15.40563 225.000
15.42557 215.000
15.44552 292.000
15.46547 242.000
15.48541 211.000
15.50536 234.000
15.52531 245.000
15.54526 251.000
15.56520 270.000
15.58515 278.000
15.60510 255.000
15.62504 291.000
15.64499 261.000
15.66494 292.000
15.68488 337.000
15.70483 331.000
15.72478 345.000
15.74472 410.000
15.76467 432.000
15.78462 440.000
15.80457 519.000
15.82451 636.000
15.84446 792.000
15.86441 1142.000
15.88435 1679.000
15.90430 2364.000
15.92425 3298.000
15.94419 3939.000
15.96414 4136.000
15.98409 3615.000
16.00404 2762.000
16.02398 1815.000
16.04393 1153.000
16.06388 668.000
16.08382 494.000
16.10377 405.000
16.12372 480.000
16.14366 459.000
16.16361 508.000
16.18356 498.000
16.20351 540.000
16.22345 549.000
16.24340 540.000
16.26335 541.000
16.28329 536.000
16.30324 514.000
16.32319 520.000
16.34313 510.000
16.36308 450.000
16.38303 456.000
16.40297 413.000
16.42292 416.000
16.44287 395.000
16.46282 341.000
16.48276 351.000
16.50271 311.000
16.52266 306.000
16.54260 267.000
16.56255 243.000
16.58250 251.000
16.60244 233.000
16.62239 241.000
16.64234 234.000
16.66229 249.000
16.68223 247.000
16.70218 199.000
16.72213 242.000
16.74207 222.000
16.76202 222.000
16.78197 254.000
16.80191 257.000
16.82186 275.000
16.84181 301.000
16.86175 384.000
16.88170 420.000
16.90165 460.000
16.92160 445.000
16.94154 398.000
16.96149 340.000
16.98144 299.000
17.00138 247.000
17.02133 241.000
17.04128 243.000
17.06122 199.000
17.08117 207.000
17.10112 240.000
17.12107 222.000
17.14101 207.000
17.16096 249.000
17.18091 206.000
17.20085 230.000
17.22080 187.000
17.24075 175.000
17.26069 199.000
17.28064 208.000
17.30059 207.000
17.32053 207.000
17.34048 230.000
17.36043 225.000
17.38038 179.000
17.40032 226.000
17.42027 213.000
17.44022 185.000
17.46016 195.000
17.48011 171.000
17.50006 218.000
17.52000 199.000
17.53995 222.000
17.55990 208.000
17.57985 234.000
17.59979 216.000
17.61974 206.000
17.63969 216.000
17.65963 218.000
17.67958 217.000
17.69953 199.000
17.71947 218.000
17.73942 213.000
17.75937 218.000
17.77932 206.000
17.79926 231.000
17.81921 215.000
17.83916 201.000
17.85910 202.000
17.87905 202.000
17.89900 207.000
17.91894 220.000
17.93889 215.000
17.95884 207.000
17.97878 193.000
17.99873 180.000
18.01868 213.000
18.03863 201.000
18.05857 223.000
18.07852 196.000
18.09847 199.000
18.11841 196.000
18.13836 193.000
18.15831 226.000
18.17825 194.000
18.19820 207.000
18.21815 215.000
18.23810 217.000
18.25804 187.000
18.27799 221.000
18.29794 184.000
18.31788 214.000
18.33783 207.000
18.35778 224.000
18.37772 218.000
18.39767 191.000
18.41762 225.000
18.43756 233.000
18.45751 197.000
18.47746 228.000
18.49741 217.000
18.51735 196.000
18.53730 218.000
18.55725 220.000
18.57719 222.000
18.59714 243.000
18.61709 241.000
18.63703 202.000
18.65698 223.000
18.67693 221.000
18.69688 202.000
18.71682 235.000
18.73677 212.000
18.75672 223.000
18.77666 219.000
18.79661 195.000
18.81656 196.000
18.83650 172.000
18.85645 223.000
18.87640 212.000
18.89634 199.000
18.91629 172.000
18.93624 215.000
18.95619 208.000
18.97613 214.000
18.99608 217.000
19.01603 184.000
19.03597 225.000
19.05592 191.000
19.07587 232.000
19.09581 201.000
19.11576 244.000
19.13571 209.000
19.15566 196.000
19.17560 207.000
19.19555 235.000
19.21550 212.000
19.23544 228.000
19.25539 232.000
19.27534 211.000
19.29528 206.000
19.31523 189.000
19.33518 189.000
19.35513 214.000
19.37507 217.000
19.39502 254.000
19.41497 203.000
19.43491 219.000
19.45486 227.000
19.47481 202.000
19.49475 225.000
19.51470 214.000
19.53465 187.000
19.55459 194.000
19.57454 231.000
19.59449 191.000
19.61444 223.000
19.63438 227.000
19.65433 222.000
19.67428 229.000
19.69422 257.000
19.71417 230.000
19.73412 211.000
19.75406 224.000
19.77401 234.000
19.79396 232.000
19.81391 209.000
19.83385 231.000
19.85380 214.000
19.87375 201.000
19.89369 196.000
19.91364 216.000
19.93359 244.000
19.95353 192.000
19.97348 245.000
19.99343 186.000
20.01337 241.000
20.03332 250.000
20.05327 234.000
20.07322 229.000
20.09316 244.000
20.11311 217.000
20.13306 211.000
20.15300 232.000
20.17295 234.000
20.19290 235.000
20.21284 206.000
20.23279 221.000
20.25274 193.000
20.27269 235.000
20.29263 211.000
20.31258 229.000
20.33253 216.000
20.35247 213.000
20.37242 212.000
20.39237 211.000
20.41231 214.000
20.43226 194.000
20.45221 223.000
20.47215 191.000
20.49210 230.000
20.51205 235.000
20.53200 237.000
20.55194 211.000
20.57189 222.000
20.59184 220.000
20.61178 241.000
20.63173 227.000
20.65168 224.000
20.67162 237.000
20.69157 230.000
20.71152 214.000
20.73147 225.000
20.75141 215.000
20.77136 255.000
20.79131 247.000
20.81125 244.000
20.83120 230.000
20.85115 257.000
20.87109 256.000
20.89104 287.000
20.91099 262.000
20.93094 250.000
20.95088 293.000
20.97083 272.000
20.99078 282.000
21.01072 243.000
21.03067 263.000
21.05062 256.000
21.07056 260.000
21.09051 275.000
21.11046 266.000
21.13040 262.000
21.15035 271.000
21.17030 292.000
21.19025 247.000
21.21019 243.000
21.23014 239.000
21.25009 284.000
21.27003 240.000
21.28998 236.000
21.30993 203.000
21.32987 204.000
21.34982 250.000
21.36977 238.000
21.38972 216.000
21.40966 214.000
21.42961 234.000
21.44956 223.000
21.46950 213.000
21.48945 229.000
21.50940 189.000
21.52934 202.000
21.54929 241.000
21.56924 204.000
21.58918 218.000
21.60913 238.000
21.62908 216.000
21.64903 209.000
21.66897 226.000
21.68892 222.000
21.70887 219.000
21.72881 212.000
21.74876 228.000
21.76871 222.000
21.78865 178.000
21.80860 214.000
21.82855 224.000
21.84850 204.000
21.86844 210.000
21.88839 215.000
21.90834 199.000
21.92828 237.000
21.94823 201.000
21.96818 212.000
21.98812 228.000
22.00807 224.000
22.02802 236.000
22.04796 235.000
22.06791 206.000
22.08786 227.000
22.10781 224.000
22.12775 231.000
22.14770 228.000
22.16765 218.000
22.18759 217.000
22.20754 206.000
22.22749 217.000
22.24743 190.000
22.26738 214.000
22.28733 206.000
22.30728 225.000
22.32722 224.000
22.34717 221.000
22.36712 190.000
22.38706 211.000
22.40701 205.000
22.42696 213.000
22.44690 213.000
22.46685 248.000
22.48680 242.000
22.50675 256.000
22.52669 219.000
22.54664 240.000
22.56659 228.000
22.58653 234.000
22.60648 215.000
22.62643 246.000
22.64637 236.000
22.66632 226.000
22.68627 224.000
22.70621 207.000
22.72616 220.000
22.74611 228.000
22.76606 232.000
22.78600 209.000
22.80595 238.000
22.82590 220.000
22.84584 208.000
22.86579 238.000
22.88574 213.000
22.90568 209.000
22.92563 235.000
22.94558 230.000
22.96553 235.000
22.98547 230.000
23.00542 253.000
23.02537 227.000
23.04531 238.000
23.06526 216.000
23.08521 235.000
23.10515 240.000
23.12510 238.000
23.14505 246.000
23.16499 240.000
23.18494 251.000
23.20489 239.000
23.22484 262.000
23.24478 239.000
23.26473 237.000
23.28468 252.000
23.30462 216.000
23.32457 272.000
23.34452 236.000
23.36446 223.000
23.38441 212.000
23.40436 232.000
23.42431 220.000
23.44425 241.000
23.46420 236.000
23.48415 229.000
23.50409 209.000
23.52404 200.000
23.54399 218.000
23.56393 236.000
23.58388 218.000
23.60383 245.000
23.62377 241.000
23.64372 224.000
23.66367 219.000
23.68362 216.000
23.70356 236.000
23.72351 243.000
23.74346 234.000
23.76340 215.000
23.78335 221.000
23.80330 251.000
23.82324 239.000
23.84319 236.000
23.86314 213.000
23.88309 232.000
23.90303 228.000
23.92298 231.000
23.94293 218.000
23.96287 216.000
23.98282 231.000
24.00277 243.000
24.02271 237.000
24.04266 243.000
24.06261 222.000
24.08256 226.000
24.10250 215.000
24.12245 219.000
24.14240 230.000
24.16234 216.000
24.18229 225.000
24.20224 237.000
24.22218 227.000
24.24213 226.000
24.26208 210.000
24.28202 244.000
24.30197 225.000
24.32192 219.000
24.34187 262.000
24.36181 224.000
24.38176 222.000
24.40171 234.000
24.42165 213.000
24.44160 229.000
24.46155 220.000
24.48149 240.000
24.50144 224.000
24.52139 236.000
24.54134 235.000
24.56128 214.000
24.58123 225.000
24.60118 251.000
24.62112 225.000
24.64107 244.000
24.66102 204.000
24.68096 231.000
24.70091 235.000
24.72086 267.000
24.74080 234.000
24.76075 225.000
24.78070 235.000
24.80065 224.000
24.82059 223.000
24.84054 211.000
24.86049 226.000
24.88043 249.000
24.90038 252.000
24.92033 262.000
24.94027 246.000
24.96022 275.000
24.98017 295.000
25.00012 313.000
25.02006 361.000
25.04001 409.000
25.05996 391.000
25.07990 375.000
25.09985 324.000
25.11980 340.000
25.13974 305.000
25.15969 266.000
25.17964 280.000
25.19958 222.000
25.21953 229.000
25.23948 229.000
25.25943 241.000
25.27937 210.000
25.29932 247.000
25.31927 233.000
25.33921 224.000
25.35916 223.000
25.37911 232.000
25.39905 237.000
25.41900 198.000
25.43895 247.000
25.45890 238.000
25.47884 270.000
25.49879 247.000
25.51874 245.000
25.53868 246.000
25.55863 257.000
25.57858 226.000
25.59852 235.000
25.61847 221.000
25.63842 253.000
25.65837 245.000
25.67831 236.000
25.69826 231.000
25.71821 221.000
25.73815 260.000
25.75810 230.000
25.77805 234.000
25.79799 238.000
25.81794 234.000
25.83789 225.000
25.85783 263.000
25.87778 229.000
25.89773 225.000
25.91768 219.000
25.93762 233.000
25.95757 230.000
25.97752 220.000
25.99746 225.000
26.01741 252.000
26.03736 223.000
26.05730 258.000
26.07725 232.000
26.09720 214.000
26.11715 228.000
26.13709 229.000
26.15704 234.000
26.17699 246.000
26.19693 246.000
26.21688 248.000
26.23683 247.000
26.25677 257.000
26.27672 239.000
26.29667 258.000
26.31661 235.000
26.33656 233.000
26.35651 243.000
26.37646 230.000
26.39640 257.000
26.41635 248.000
26.43630 220.000
26.45624 245.000
26.47619 233.000
26.49614 227.000
26.51608 224.000
26.53603 251.000
26.55598 231.000
26.57593 248.000
26.59587 228.000
26.61582 228.000
26.63577 241.000
26.65571 256.000
26.67566 250.000
26.69561 243.000
26.71555 238.000
26.73550 223.000
26.75545 243.000
26.77539 226.000
26.79534 285.000
26.81529 241.000
26.83524 241.000
26.85518 245.000
26.87513 267.000
26.89508 231.000
26.91502 247.000
26.93497 241.000
26.95492 274.000
26.97486 238.000
26.99481 244.000
27.01476 260.000
27.03471 235.000
27.05465 238.000
27.07460 244.000
27.09455 204.000
27.11449 255.000
27.13444 246.000
27.15439 274.000
27.17433 223.000
27.19428 232.000
27.21423 240.000
27.23417 251.000
27.25412 252.000
27.27407 263.000
27.29402 280.000
27.31396 262.000
27.33391 273.000
27.35386 261.000
27.37380 261.000
27.39375 238.000
27.41370 249.000
27.43364 264.000
27.45359 269.000
27.47354 268.000
27.49349 244.000
27.51343 268.000
27.53338 235.000
27.55333 270.000
27.57327 229.000
27.59322 230.000
27.61317 253.000
27.63311 220.000
27.65306 240.000
27.67301 242.000
27.69296 228.000
27.71290 265.000
27.73285 268.000
27.75280 225.000
27.77274 244.000
27.79269 239.000
27.81264 235.000
27.83258 278.000
27.85253 233.000
27.87248 250.000
27.89242 221.000
27.91237 243.000
27.93232 225.000
27.95227 294.000
27.97221 250.000
27.99216 259.000
28.01211 262.000
28.03205 267.000
28.05200 239.000
28.07195 234.000
28.09189 268.000
28.11184 278.000
28.13179 223.000
28.15174 274.000
28.17168 265.000
28.19163 243.000
28.21158 211.000
28.23152 234.000
28.25147 258.000
28.27142 237.000
28.29136 266.000
28.31131 270.000
28.33126 285.000
28.35120 284.000
28.37115 278.000
28.39110 251.000
28.41105 267.000
28.43099 251.000
28.45094 260.000
28.47089 282.000
28.49083 281.000
28.51078 271.000
28.53073 294.000
28.55067 255.000
28.57062 252.000
28.59057 285.000
28.61052 289.000
28.63046 255.000
28.65041 262.000
28.67036 272.000
28.69030 249.000
28.71025 262.000
28.73020 278.000
28.75014 267.000
28.77009 264.000
28.79004 291.000
28.80998 253.000
28.82993 261.000
28.84988 261.000
28.86983 275.000
28.88977 265.000
28.90972 262.000
28.92967 280.000
28.94961 244.000
28.96956 259.000
28.98951 268.000
29.00945 232.000
29.02940 237.000
29.04935 232.000
29.06930 258.000
29.08924 269.000
29.10919 282.000
29.12914 272.000
29.14908 280.000
29.16903 278.000
29.18898 290.000
29.20892 280.000
29.22887 286.000
29.24882 316.000
29.26877 337.000
29.28871 364.000
29.30866 364.000
29.32861 394.000
29.34855 475.000
29.36850 578.000
29.38845 661.000
29.40839 786.000
29.42834 849.000
29.44829 889.000
29.46823 758.000
29.48818 760.000
29.50813 720.000
29.52808 603.000
29.54802 517.000
29.56797 451.000
29.58792 402.000
29.60786 379.000
29.62781 324.000
29.64776 358.000
29.66770 331.000
29.68765 317.000
29.70760 315.000
29.72755 279.000
29.74749 307.000
29.76744 299.000
29.78739 327.000
29.80733 338.000
29.82728 364.000
29.84723 360.000
29.86717 298.000
29.88712 314.000
29.90707 312.000
29.92701 300.000
29.94696 257.000
29.96691 292.000
29.98686 257.000
30.00680 281.000
30.02675 249.000
30.04670 281.000
30.06664 285.000
30.08659 265.000
30.10654 260.000
30.12648 302.000
30.14643 249.000
30.16638 292.000
30.18633 279.000
30.20627 267.000
30.22622 252.000
30.24617 275.000
30.26611 284.000
30.28606 276.000
30.30601 261.000
30.32595 265.000
30.34590 279.000
30.36585 261.000
30.38579 255.000
30.40574 261.000
30.42569 256.000
30.44564 259.000
30.46558 256.000
30.48553 281.000
30.50548 268.000
30.52542 262.000
30.54537 266.000
30.56532 257.000
30.58526 281.000
30.60521 252.000
30.62516 257.000
30.64511 245.000
30.66505 264.000
30.68500 264.000
30.70495 290.000
30.72489 252.000
30.74484 263.000
30.76479 252.000
30.78473 258.000
30.80468 263.000
30.82463 247.000
30.84458 255.000
30.86452 240.000
30.88447 249.000
30.90442 260.000
30.92436 265.000
30.94431 276.000
30.96426 274.000
30.98420 254.000
31.00415 256.000
31.02410 246.000
31.04404 253.000
31.06399 240.000
31.08394 252.000
31.10389 246.000
31.12383 260.000
31.14378 257.000
31.16373 255.000
31.18367 277.000
31.20362 255.000
31.22357 266.000
31.24351 290.000
31.26346 277.000
31.28341 299.000
31.30336 314.000
31.32330 236.000
31.34325 270.000
31.36320 281.000
31.38314 260.000
31.40309 269.000
31.42304 285.000
31.44298 315.000
31.46293 285.000
31.48288 262.000
31.50282 287.000
31.52277 255.000
31.54272 297.000
31.56267 278.000
31.58261 273.000
31.60256 251.000
31.62251 311.000
31.64245 266.000
31.66240 264.000
31.68235 265.000
31.70229 269.000
31.72224 269.000
31.74219 259.000
31.76214 253.000
31.78208 259.000
31.80203 280.000
31.82198 281.000
31.84192 293.000
31.86187 271.000
31.88182 274.000
31.90176 268.000
31.92171 286.000
31.94166 284.000
31.96160 301.000
31.98155 324.000
32.00150 303.000
32.02145 318.000
32.04139 332.000
32.06134 379.000
32.08129 461.000
32.10123 473.000
32.12118 495.000
32.14113 560.000
32.16107 594.000
32.18102 539.000
32.20097 562.000
32.22092 554.000
32.24086 462.000
32.26081 412.000
32.28076 367.000
32.30070 351.000
32.32065 316.000
32.34060 350.000
32.36054 256.000
32.38049 275.000
32.40044 281.000
32.42039 271.000
32.44033 261.000
32.46028 281.000
32.48023 243.000
32.50017 258.000
32.52012 254.000
32.54007 266.000
32.56001 266.000
32.57996 263.000
32.59991 258.000
32.61985 289.000
32.63980 290.000
32.65975 259.000
32.67970 309.000
32.69964 274.000
32.71959 291.000
32.73954 267.000
32.75948 289.000
32.77943 288.000
32.79938 275.000
32.81932 283.000
32.83927 256.000
32.85922 272.000
32.87917 261.000
32.89911 301.000
32.91906 268.000
32.93901 277.000
32.95895 282.000
32.97890 249.000
32.99885 261.000
33.01879 268.000
33.03874 285.000
33.05869 278.000
33.07863 292.000
33.09858 259.000
33.11853 253.000
33.13848 287.000
33.15842 301.000
33.17837 279.000
33.19832 258.000
33.21826 259.000
33.23821 265.000
33.25816 235.000
33.27810 261.000
33.29805 288.000
33.31800 268.000
33.33795 261.000
33.35789 262.000
33.37784 253.000
33.39779 281.000
33.41773 264.000
33.43768 241.000
33.45763 214.000
33.47757 260.000
33.49752 272.000
33.51747 251.000
33.53741 288.000
33.55736 282.000
33.57731 233.000
33.59726 238.000
33.61720 258.000
33.63715 259.000
33.65710 252.000
33.67704 253.000
33.69699 271.000
33.71694 257.000
33.73688 277.000
33.75683 264.000
33.77678 249.000
33.79673 277.000
33.81667 273.000
33.83662 289.000
33.85657 276.000
33.87651 301.000
33.89646 251.000
33.91641 298.000
33.93635 263.000
33.95630 276.000
33.97625 255.000
33.99620 293.000
34.01614 313.000
34.03609 280.000
34.05604 306.000
34.07598 327.000
34.09593 281.000
34.11588 283.000
34.13582 300.000
34.15577 316.000
34.17572 332.000
34.19566 278.000
34.21561 293.000
34.23556 338.000
34.25551 327.000
34.27545 346.000
34.29540 342.000
34.31535 340.000
34.33529 335.000
34.35524 357.000
34.37519 352.000
34.39513 321.000
34.41508 363.000
34.43503 330.000
34.45498 339.000
34.47492 323.000
34.49487 347.000
34.51482 332.000
34.53476 336.000
34.55471 339.000
34.57466 321.000
34.59460 354.000
34.61455 345.000
34.63450 330.000
34.65444 350.000
34.67439 346.000
34.69434 331.000
34.71429 345.000
34.73423 378.000
34.75418 343.000
34.77413 418.000
34.79407 422.000
34.81402 445.000
34.83397 447.000
34.85391 514.000
34.87386 544.000
34.89381 523.000
34.91376 598.000
34.93370 582.000
34.95365 561.000
34.97360 497.000
34.99354 506.000
35.01349 421.000
35.03344 367.000
35.05338 342.000
35.07333 350.000
35.09328 344.000
35.11322 326.000
35.13317 296.000
35.15312 320.000
35.17307 314.000
35.19301 280.000
35.21296 295.000
35.23291 274.000
35.25285 281.000
35.27280 309.000
35.29275 322.000
35.31269 336.000
35.33264 298.000
35.35259 309.000
35.37254 254.000
35.39248 323.000
35.41243 350.000
35.43238 344.000
35.45232 371.000
35.47227 303.000
35.49222 324.000
35.51216 374.000
35.53211 338.000
35.55206 368.000
35.57201 394.000
35.59195 380.000
35.61190 380.000
35.63185 382.000
35.65179 376.000
35.67174 373.000
35.69169 366.000
35.71163 350.000
35.73158 371.000
35.75153 394.000
35.77147 372.000
35.79142 387.000
35.81137 403.000
35.83132 468.000
35.85126 510.000
35.87121 584.000
35.89116 575.000
35.91110 595.000
35.93105 652.000
35.95100 675.000
35.97094 594.000
35.99089 549.000
36.01084 514.000
36.03079 503.000
36.05073 420.000
36.07068 439.000
36.09063 349.000
36.11057 355.000
36.13052 377.000
36.15047 368.000
36.17041 346.000
36.19036 331.000
36.21031 339.000
36.23025 324.000
36.25020 374.000
36.27015 354.000
36.29010 351.000
36.31004 389.000
36.32999 398.000
36.34994 388.000
36.36988 472.000
36.38983 471.000
36.40978 396.000
36.42972 405.000
36.44967 376.000
36.46962 406.000
36.48957 393.000
36.50951 388.000
36.52946 382.000
36.54941 351.000
36.56935 379.000
36.58930 357.000
36.60925 409.000
36.62919 420.000
36.64914 408.000
36.66909 355.000
36.68903 365.000
36.70898 438.000
36.72893 429.000
36.74888 457.000
36.76882 438.000
36.78877 472.000
36.80872 500.000
36.82866 504.000
36.84861 466.000
36.86856 506.000
36.88850 523.000
36.90845 538.000
36.92840 555.000
36.94835 582.000
36.96829 656.000
36.98824 693.000
37.00819 748.000
37.02813 841.000
37.04808 941.000
37.06803 1126.000
37.08797 1480.000
37.10792 1993.000
37.12787 2745.000
37.14781 3818.000
37.16776 4601.000
37.18771 5425.000
37.20766 5520.000
37.22760 5159.000
37.24755 4743.000
37.26750 4233.000
37.28744 3789.000
37.30739 3178.000
37.32734 2662.000
37.34728 1891.000
37.36723 1408.000
37.38718 1065.000
37.40713 806.000
37.42707 703.000
37.44702 638.000
37.46697 546.000
37.48691 513.000
37.50686 551.000
37.52681 574.000
37.54675 542.000
37.56670 517.000
37.58665 507.000
37.60660 476.000
37.62654 449.000
37.64649 467.000
37.66644 474.000
37.68638 412.000
37.70633 388.000
37.72628 367.000
37.74622 340.000
37.76617 315.000
37.78612 320.000
37.80606 319.000
37.82601 324.000
37.84596 316.000
37.86591 295.000
37.88585 299.000
37.90580 304.000
37.92575 318.000
37.94569 299.000
37.96564 322.000
37.98559 312.000
38.00553 308.000
38.02548 301.000
38.04543 282.000
38.06538 304.000
38.08532 281.000
38.10527 273.000
38.12522 273.000
38.14516 315.000
38.16511 303.000
38.18506 312.000
38.20500 249.000
38.22495 297.000
38.24490 292.000
38.26484 298.000
38.28479 292.000
38.30474 300.000
38.32469 285.000
38.34463 269.000
38.36458 310.000
38.38453 271.000
38.40447 237.000
38.42442 262.000
38.44437 273.000
38.46431 283.000
38.48426 281.000
38.50421 245.000
38.52416 288.000
38.54410 279.000
38.56405 279.000
38.58400 310.000
38.60394 283.000
38.62389 301.000
38.64384 329.000
38.66378 291.000
38.68373 357.000
38.70368 329.000
38.72362 318.000
38.74357 335.000
38.76352 364.000
38.78347 308.000
38.80341 323.000
38.82336 356.000
38.84331 351.000
38.86325 328.000
38.88320 309.000
38.90315 321.000
38.92309 311.000
38.94304 333.000
38.96299 387.000
38.98294 309.000
39.00288 335.000
39.02283 365.000
39.04278 350.000
39.06272 335.000
39.08267 333.000
39.10262 322.000
39.12256 330.000
39.14251 335.000
39.16246 323.000
39.18241 310.000
39.20235 345.000
39.22230 347.000
39.24225 310.000
39.26219 352.000
39.28214 314.000
39.30209 326.000
39.32203 363.000
39.34198 391.000
39.36193 377.000
39.38187 434.000
39.40182 510.000
39.42177 553.000
39.44172 639.000
39.46166 731.000
39.48161 819.000
39.50156 780.000
39.52150 817.000
39.54145 804.000
39.56140 759.000
39.58134 707.000
39.60129 608.000
39.62124 616.000
39.64119 528.000
39.66113 520.000
39.68108 401.000
39.70103 349.000
39.72097 367.000
39.74092 317.000
39.76087 341.000
39.78081 325.000
39.80076 270.000
39.82071 312.000
39.84065 259.000
39.86060 269.000
39.88055 306.000
39.90050 246.000
39.92044 281.000
39.94039 259.000
39.96034 303.000
39.98028 295.000
40.00023 282.000
40.02018 268.000
40.04012 251.000
40.06007 285.000
40.08002 262.000
40.09997 248.000
40.11991 278.000
40.13986 245.000
40.15981 271.000
40.17975 291.000
40.19970 278.000
40.21965 271.000
40.23959 274.000
40.25954 254.000
40.27949 282.000
40.29943 260.000
40.31938 266.000
40.33933 279.000
40.35928 249.000
40.37922 268.000
40.39917 220.000
40.41912 244.000
40.43906 266.000
40.45901 264.000
40.47896 240.000
40.49890 236.000
40.51885 264.000
40.53880 240.000
40.55875 250.000
40.57869 249.000
40.59864 280.000
40.61859 249.000
40.63853 259.000
40.65848 261.000
40.67843 264.000
40.69837 269.000
40.71832 276.000
40.73827 270.000
40.75822 253.000
40.77816 273.000
40.79811 266.000
40.81806 259.000
40.83800 263.000
40.85795 262.000
40.87790 259.000
40.89784 262.000
40.91779 273.000
40.93774 270.000
40.95768 255.000
40.97763 273.000
40.99758 242.000
41.01753 285.000
41.03747 238.000
41.05742 301.000
41.07737 270.000
41.09731 279.000
41.11726 280.000
41.13721 263.000
41.15715 251.000
41.17710 301.000
41.19705 310.000
41.21700 255.000
41.23694 276.000
41.25689 272.000
41.27684 280.000
41.29678 288.000
41.31673 283.000
41.33668 294.000
41.35662 279.000
41.37657 295.000
41.39652 308.000
41.41646 294.000
41.43641 295.000
41.45636 292.000
41.47631 313.000
41.49625 299.000
41.51620 302.000
41.53615 313.000
41.55609 265.000
41.57604 274.000
41.59599 285.000
41.61593 304.000
41.63588 290.000
41.65583 303.000
41.67578 306.000
41.69572 300.000
41.71567 307.000
41.73562 310.000
41.75556 308.000
41.77551 321.000
41.79546 323.000
41.81540 338.000
41.83535 338.000
41.85530 379.000
41.87524 364.000
41.89519 339.000
41.91514 386.000
41.93509 396.000
41.95503 411.000
41.97498 428.000
41.99493 491.000
42.01487 552.000
42.03482 570.000
42.05477 562.000
42.07471 498.000
42.09466 520.000
42.11461 474.000
42.13456 474.000
42.15450 464.000
42.17445 460.000
42.19440 384.000
42.21434 366.000
42.23429 377.000
42.25424 379.000
42.27418 310.000
42.29413 330.000
42.31408 343.000
42.33403 364.000
42.35397 375.000
42.37392 348.000
42.39387 360.000
42.41381 358.000
42.43376 375.000
42.45371 385.000
42.47365 370.000
42.49360 412.000
42.51355 385.000
42.53349 436.000
42.55344 406.000
42.57339 427.000
42.59334 433.000
42.61328 439.000
42.63323 429.000
42.65318 462.000
42.67312 453.000
42.69307 518.000
42.71302 521.000
42.73296 499.000
42.75291 496.000
42.77286 561.000
42.79281 556.000
42.81275 507.000
42.83270 579.000
42.85265 629.000
42.87259 632.000
42.89254 632.000
42.91249 670.000
42.93243 703.000
42.95238 773.000
42.97233 838.000
42.99227 886.000
43.01222 998.000
43.03217 1209.000
43.05212 1459.000
43.07206 1673.000
43.09201 2161.000
43.11196 2876.000
43.13190 3620.000
43.15185 4578.000
43.17180 5521.000
43.19174 6458.000
43.21169 6736.000
43.23164 6789.000
43.25159 6539.000
43.27153 5885.000
43.29148 5376.000
43.31143 4865.000
43.33137 4299.000
43.35132 3653.000
43.37127 2966.000
43.39121 2274.000
43.41116 1728.000
43.43111 1345.000
43.45105 1028.000
43.47100 785.000
43.49095 746.000
43.51090 596.000
43.53084 628.000
43.55079 565.000
43.57074 602.000
43.59068 550.000
43.61063 546.000
43.63058 588.000
43.65052 549.000
43.67047 562.000
43.69042 529.000
43.71037 480.000
43.73031 455.000
43.75026 466.000
43.77021 413.000
43.79015 386.000
43.81010 395.000
43.83005 369.000
43.84999 338.000
43.86994 349.000
43.88989 333.000
43.90984 340.000
43.92978 331.000
43.94973 311.000
43.96968 333.000
43.98962 304.000
44.00957 266.000
44.02952 298.000
44.04946 265.000
44.06941 313.000
44.08936 281.000
44.10930 295.000
44.12925 288.000
44.14920 300.000
44.16915 320.000
44.18909 273.000
44.20904 295.000
44.22899 256.000
44.24893 287.000
44.26888 283.000
44.28883 290.000
44.30877 271.000
44.32872 282.000
44.34867 300.000
44.36862 291.000
44.38856 285.000
44.40851 276.000
44.42846 287.000
44.44840 281.000
44.46835 261.000
44.48830 281.000
44.50824 274.000
44.52819 293.000
44.54814 308.000
44.56808 295.000
44.58803 276.000
44.60798 271.000
44.62793 299.000
44.64787 274.000
44.66782 272.000
44.68777 262.000
44.70771 275.000
44.72766 299.000
44.74761 289.000
44.76755 277.000
44.78750 292.000
44.80745 278.000
44.82740 332.000
44.84734 325.000
44.86729 332.000
44.88724 305.000
44.90718 294.000
44.92713 318.000
44.94708 290.000
44.96702 300.000
44.98697 313.000
45.00692 312.000
45.02686 328.000
45.04681 295.000
45.06676 324.000
45.08671 319.000
45.10665 339.000
45.12660 332.000
45.14655 341.000
45.16649 373.000
45.18644 413.000
45.20639 411.000
45.22633 437.000
45.24628 480.000
45.26623 466.000
45.28618 466.000
45.30612 469.000
45.32607 478.000
45.34602 442.000
45.36596 477.000
45.38591 445.000
45.40586 419.000
45.42580 444.000
45.44575 395.000
45.46570 389.000
45.48565 377.000
45.50559 328.000
45.52554 333.000
45.54549 362.000
45.56543 360.000
45.58538 322.000
45.60533 333.000
45.62527 331.000
45.64522 335.000
45.66517 333.000
45.68511 321.000
45.70506 325.000
45.72501 301.000
45.74496 282.000
45.76490 313.000
45.78485 299.000
45.80480 294.000
45.82474 277.000
45.84469 290.000
45.86464 312.000
45.88458 285.000
45.90453 253.000
45.92448 280.000
45.94443 281.000
45.96437 264.000
45.98432 266.000
46.00427 258.000
46.02421 233.000
46.04416 238.000
46.06411 287.000
46.08405 243.000
46.10400 269.000
46.12395 231.000
46.14389 274.000
46.16384 278.000
46.18379 256.000
46.20374 239.000
46.22368 255.000
46.24363 254.000
46.26358 285.000
46.28352 274.000
46.30347 268.000
46.32342 250.000
46.34336 290.000
46.36331 258.000
46.38326 267.000
46.40321 267.000
46.42315 268.000
46.44310 266.000
46.46305 248.000
46.48299 251.000
46.50294 259.000
46.52289 277.000
46.54283 292.000
46.56278 277.000
46.58273 237.000
46.60267 258.000
46.62262 254.000
46.64257 248.000
46.66252 271.000
46.68246 231.000
46.70241 267.000
46.72236 244.000
46.74230 263.000
46.76225 233.000
46.78220 256.000
46.80214 251.000
46.82209 260.000
46.84204 246.000
46.86199 252.000
46.88193 270.000
46.90188 271.000
46.92183 278.000
46.94177 243.000
46.96172 240.000
46.98167 257.000
47.00161 275.000
47.02156 238.000
47.04151 273.000
47.06146 286.000
47.08140 270.000
47.10135 255.000
47.12130 270.000
47.14124 268.000
47.16119 275.000
47.18114 252.000
47.20108 255.000
47.22103 248.000
47.24098 256.000
47.26092 295.000
47.28087 229.000
47.30082 264.000
47.32077 244.000
47.34071 250.000
47.36066 254.000
47.38061 265.000
47.40055 256.000
47.42050 274.000
47.44045 250.000
47.46039 270.000
47.48034 283.000
47.50029 243.000
47.52024 233.000
47.54018 272.000
47.56013 246.000
47.58008 264.000
47.60002 260.000
47.61997 288.000
47.63992 266.000
47.65986 270.000
47.67981 268.000
47.69976 250.000
47.71970 259.000
47.73965 250.000
47.75960 285.000
47.77955 259.000
47.79949 269.000
47.81944 290.000
47.83939 284.000
47.85933 230.000
47.87928 287.000
47.89923 280.000
47.91917 287.000
47.93912 295.000
47.95907 308.000
47.97902 299.000
47.99896 289.000
48.01891 301.000
48.03886 320.000
48.05880 312.000
48.07875 356.000
48.09870 354.000
48.11864 370.000
48.13859 370.000
48.15854 345.000
48.17848 355.000
48.19843 355.000
48.21838 326.000
48.23833 348.000
48.25827 316.000
48.27822 339.000
48.29817 313.000
48.31811 297.000
48.33806 282.000
48.35801 290.000
48.37795 304.000
48.39790 271.000
48.41785 315.000
48.43780 300.000
48.45774 282.000
48.47769 300.000
48.49764 278.000
48.51758 332.000
48.53753 281.000
48.55748 305.000
48.57742 314.000
48.59737 289.000
48.61732 297.000
48.63726 299.000
48.65721 293.000
48.67716 330.000
48.69711 340.000
48.71705 329.000
48.73700 323.000
48.75695 367.000
48.77689 399.000
48.79684 389.000
48.81679 473.000
48.83673 487.000
48.85668 537.000
48.87663 605.000
48.89658 648.000
48.91652 630.000
48.93647 703.000
48.95642 676.000
48.97636 710.000
48.99631 655.000
49.01626 686.000
49.03620 595.000
49.05615 595.000
49.07610 547.000
49.09605 466.000
49.11599 478.000
49.13594 443.000
49.15589 434.000
49.17583 394.000
49.19578 343.000
49.21573 346.000
49.23567 287.000
49.25562 305.000
49.27557 315.000
49.29551 305.000
49.31546 290.000
49.33541 287.000
49.35536 286.000
49.37530 281.000
49.39525 273.000
49.41520 274.000
49.43514 292.000
49.45509 269.000
49.47504 298.000
49.49498 255.000
49.51493 286.000
49.53488 310.000
49.55483 270.000
49.57477 269.000
49.59472 333.000
49.61467 290.000
49.63461 294.000
49.65456 307.000
49.67451 267.000
49.69445 267.000
49.71440 293.000
49.73435 291.000
49.75429 241.000
49.77424 258.000
49.79419 237.000
49.81414 252.000
49.83408 247.000
49.85403 274.000
49.87398 265.000
49.89392 261.000
49.91387 241.000
49.93382 241.000
49.95376 280.000
49.97371 246.000
49.99366 222.000
50.01361 275.000
50.03355 264.000
50.05350 260.000
50.07345 259.000
50.09339 272.000
50.11334 238.000
50.13329 251.000
50.15323 259.000
50.17318 232.000
50.19313 267.000
50.21307 241.000
50.23302 238.000
50.25297 253.000
50.27292 263.000
50.29286 241.000
50.31281 254.000
50.33276 293.000
50.35270 254.000
50.37265 259.000
50.39260 236.000
50.41254 243.000
50.43249 238.000
50.45244 234.000
50.47239 265.000
50.49233 222.000
50.51228 239.000
50.53223 235.000
50.55217 248.000
50.57212 248.000
50.59207 267.000
50.61201 267.000
50.63196 250.000
50.65191 269.000
50.67186 263.000
50.69180 244.000
50.71175 253.000
50.73170 277.000
50.75164 246.000
50.77159 200.000
50.79154 215.000
50.81148 223.000
50.83143 250.000
50.85138 260.000
50.87132 239.000
50.89127 243.000
50.91122 290.000
50.93117 267.000
50.95111 269.000
50.97106 240.000
50.99101 210.000
51.01095 250.000
51.03090 246.000
51.05085 254.000
51.07079 250.000
51.09074 250.000
51.11069 254.000
51.13064 272.000
51.15058 251.000
51.17053 263.000
51.19048 248.000
51.21042 284.000
51.23037 253.000
51.25032 238.000
51.27026 231.000
51.29021 257.000
51.31016 275.000
51.33010 249.000
51.35005 273.000
51.37000 273.000
51.38995 254.000
51.40989 276.000
51.42984 282.000
51.44979 242.000
51.46973 266.000
51.48968 263.000
51.50963 261.000
51.52957 263.000
51.54952 268.000
51.56947 279.000
51.58942 256.000
51.60936 253.000
51.62931 277.000
51.64926 236.000
51.66920 266.000
51.68915 268.000
51.70910 224.000
51.72904 241.000
51.74899 269.000
51.76894 256.000
51.78888 294.000
51.80883 270.000
51.82878 273.000
51.84873 285.000
51.86867 277.000
51.88862 297.000
51.90857 263.000
51.92851 294.000
51.94846 276.000
51.96841 295.000
51.98835 289.000
52.00830 298.000
52.02825 337.000
52.04820 348.000
52.06814 305.000
52.08809 352.000
52.10804 362.000
52.12798 396.000
52.14793 388.000
52.16788 409.000
52.18782 375.000
52.20777 381.000
52.22772 361.000
52.24767 372.000
52.26761 376.000
52.28756 367.000
52.30751 314.000
52.32745 346.000
52.34740 318.000
52.36735 294.000
52.38729 295.000
52.40724 285.000
52.42719 301.000
52.44713 282.000
52.46708 264.000
52.48703 270.000
52.50698 255.000
52.52692 290.000
52.54687 244.000
52.56682 262.000
52.58676 290.000
52.60671 283.000
52.62666 257.000
52.64660 250.000
52.66655 233.000
52.68650 283.000
52.70645 258.000
52.72639 256.000
52.74634 257.000
52.76629 249.000
52.78623 281.000
52.80618 263.000
52.82613 269.000
52.84607 279.000
52.86602 277.000
52.88597 271.000
52.90591 249.000
52.92586 319.000
52.94581 291.000
52.96576 320.000
52.98570 306.000
53.00565 335.000
53.02560 282.000
53.04554 304.000
53.06549 319.000
53.08544 329.000
53.10538 285.000
53.12533 284.000
53.14528 278.000
53.16523 295.000
53.18517 274.000
53.20512 286.000
53.22507 279.000
53.24501 302.000
53.26496 278.000
53.28491 291.000
53.30485 256.000
53.32480 277.000
53.34475 275.000
53.36469 268.000
53.38464 263.000
53.40459 275.000
53.42454 239.000
53.44448 272.000
53.46443 273.000
53.48438 288.000
53.50432 282.000
53.52427 288.000
53.54422 311.000
53.56416 276.000
53.58411 275.000
53.60406 246.000
53.62401 268.000
53.64395 255.000
53.66390 267.000
53.68385 257.000
53.70379 256.000
53.72374 250.000
53.74369 221.000
53.76363 262.000
53.78358 256.000
53.80353 249.000
53.82348 275.000
53.84342 264.000
53.86337 251.000
53.88332 239.000
53.90326 284.000
53.92321 227.000
53.94316 256.000
53.96310 269.000
53.98305 242.000
54.00300 267.000
54.02294 274.000
54.04289 249.000
54.06284 243.000
54.08279 277.000
54.10273 236.000
54.12268 259.000
54.14263 222.000
54.16257 260.000
54.18252 279.000
54.20247 262.000
54.22241 234.000
54.24236 255.000
54.26231 239.000
54.28226 240.000
54.30220 229.000
54.32215 254.000
54.34210 212.000
54.36204 222.000
54.38199 243.000
54.40194 261.000
54.42188 236.000
54.44183 243.000
54.46178 237.000
54.48172 246.000
54.50167 250.000
54.52162 271.000
54.54157 277.000
54.56151 244.000
54.58146 271.000
54.60141 235.000
54.62135 229.000
54.64130 237.000
54.66125 263.000
54.68119 254.000
54.70114 257.000
54.72109 236.000
54.74104 256.000
54.76098 266.000
54.78093 252.000
54.80088 235.000
54.82082 226.000
54.84077 248.000
54.86072 258.000
54.88066 249.000
54.90061 265.000
54.92056 281.000
54.94050 256.000
54.96045 249.000
54.98040 257.000
55.00035 260.000
55.02029 244.000
55.04024 246.000
55.06019 243.000
55.08013 264.000
55.10008 253.000
55.12003 233.000
55.13997 206.000
55.15992 260.000
55.17987 265.000
55.19982 271.000
55.21976 265.000
55.23971 248.000
55.25966 249.000
55.27960 258.000
55.29955 216.000
55.31950 262.000
55.33944 229.000
55.35939 260.000
55.37934 265.000
55.39929 257.000
55.41923 247.000
55.43918 291.000
55.45913 260.000
55.47907 240.000
55.49902 243.000
55.51897 293.000
55.53891 275.000
55.55886 241.000
55.57881 248.000
55.59875 255.000
55.61870 240.000
55.63865 217.000
55.65860 251.000
55.67854 248.000
55.69849 255.000
55.71844 257.000
55.73838 278.000
55.75833 270.000
55.77828 213.000
55.79822 247.000
55.81817 283.000
55.83812 251.000
55.85807 260.000
55.87801 249.000
55.89796 260.000
55.91791 265.000
55.93785 287.000
55.95780 264.000
55.97775 279.000
55.99769 241.000
56.01764 258.000
56.03759 267.000
56.05753 256.000
56.07748 246.000
56.09743 265.000
56.11738 243.000
56.13732 234.000
56.15727 243.000
56.17722 252.000
56.19716 284.000
56.21711 223.000
56.23706 274.000
56.25700 240.000
56.27695 261.000
56.29690 239.000
56.31685 240.000
56.33679 240.000
56.35674 237.000
56.37669 263.000
56.39663 259.000
56.41658 247.000
56.43653 231.000
56.45647 237.000
56.47642 231.000
56.49637 248.000
56.51631 273.000
56.53626 238.000
56.55621 270.000
56.57616 285.000
56.59610 245.000
56.61605 243.000
56.63600 246.000
56.65594 266.000
56.67589 283.000
56.69584 239.000
56.71578 253.000
56.73573 251.000
56.75568 269.000
56.77563 238.000
56.79557 283.000
56.81552 244.000
56.83547 250.000
56.85541 262.000
56.87536 254.000
56.89531 232.000
56.91525 293.000
56.93520 274.000
56.95515 271.000
56.97510 236.000
56.99504 282.000
57.01499 252.000
57.03494 242.000
57.05488 238.000
57.07483 267.000
57.09478 269.000
57.11472 245.000
57.13467 245.000
57.15462 285.000
57.17456 258.000
57.19451 248.000
57.21446 268.000
57.23441 260.000
57.25435 261.000
57.27430 255.000
57.29425 279.000
57.31419 273.000
57.33414 243.000
57.35409 261.000
57.37403 275.000
57.39398 297.000
57.41393 283.000
57.43388 300.000
57.45382 278.000
57.47377 291.000
57.49372 308.000
57.51366 294.000
57.53361 269.000
57.55356 299.000
57.57350 257.000
57.59345 280.000
57.61340 282.000
57.63334 265.000
57.65329 292.000
57.67324 298.000
57.69319 275.000
57.71313 292.000
57.73308 279.000
57.75303 244.000
57.77297 266.000
57.79292 263.000
57.81287 287.000
57.83281 260.000
57.85276 257.000
57.87271 288.000
57.89266 316.000
57.91260 233.000
57.93255 294.000
57.95250 267.000
57.97244 281.000
57.99239 251.000
58.01234 287.000
58.03228 280.000
58.05223 281.000
58.07218 248.000
58.09212 266.000
58.11207 278.000
58.13202 271.000
58.15197 282.000
58.17191 320.000
58.19186 265.000
58.21181 279.000
58.23175 302.000
58.25170 308.000
58.27165 329.000
58.29159 307.000
58.31154 269.000
58.33149 287.000
58.35144 282.000
58.37138 255.000
58.39133 296.000
58.41128 286.000
58.43122 266.000
58.45117 274.000
58.47112 288.000
58.49106 300.000
58.51101 254.000
58.53096 250.000
58.55090 258.000
58.57085 250.000
58.59080 229.000
58.61075 251.000
58.63069 254.000
58.65064 211.000
58.67059 252.000
58.69053 253.000
58.71048 268.000
58.73043 245.000
58.75037 244.000
58.77032 278.000
58.79027 266.000
58.81022 239.000
58.83016 246.000
58.85011 265.000
58.87006 285.000
58.89000 268.000
58.90995 243.000
58.92990 259.000
58.94984 266.000
58.96979 255.000
58.98974 269.000
59.00969 232.000
59.02963 236.000
59.04958 272.000
59.06953 238.000
59.08947 276.000
59.10942 267.000
59.12937 241.000
59.14931 263.000
59.16926 261.000
59.18921 237.000
59.20915 236.000
59.22910 225.000
59.24905 219.000
59.26900 260.000
59.28894 256.000
59.30889 248.000
59.32884 250.000
59.34878 252.000
59.36873 255.000
59.38868 252.000
59.40862 259.000
59.42857 242.000
59.44852 246.000
59.46847 242.000
59.48841 271.000
59.50836 271.000
59.52831 259.000
59.54825 248.000
59.56820 241.000
59.58815 252.000
59.60809 255.000
59.62804 263.000
59.64799 244.000
59.66793 260.000
59.68788 259.000
59.70783 251.000
59.72778 261.000
59.74772 252.000
59.76767 257.000
59.78762 254.000
59.80756 246.000
59.82751 252.000
59.84746 277.000
59.86740 272.000
59.88735 271.000
59.90730 265.000
59.92725 243.000
59.94719 247.000
59.96714 264.000
59.98709 263.000
60.00703 289.000
60.02698 271.000
60.04693 253.000
60.06687 261.000
60.08682 256.000
60.10677 284.000
60.12671 263.000
60.14666 264.000
60.16661 270.000
60.18656 255.000
60.20650 264.000
60.22645 270.000
60.24640 291.000
60.26634 285.000
60.28629 266.000
60.30624 246.000
60.32618 284.000
60.34613 301.000
60.36608 266.000
60.38603 265.000
60.40597 246.000
60.42592 272.000
60.44587 261.000
60.46581 291.000
60.48576 251.000
60.50571 273.000
60.52565 264.000
60.54560 263.000
60.56555 235.000
60.58550 248.000
60.60544 252.000
60.62539 281.000
60.64534 247.000
60.66528 280.000
60.68523 268.000
60.70518 264.000
60.72512 256.000
60.74507 283.000
60.76502 277.000
60.78496 286.000
60.80491 279.000
60.82486 287.000
60.84481 274.000
60.86475 266.000
60.88470 276.000
60.90465 289.000
60.92459 258.000
60.94454 260.000
60.96449 296.000
60.98443 243.000
61.00438 277.000
61.02433 247.000
61.04428 274.000
61.06422 277.000
61.08417 267.000
61.10412 317.000
61.12406 258.000
61.14401 286.000
61.16396 271.000
61.18390 295.000
61.20385 278.000
61.22380 302.000
61.24374 266.000
61.26369 290.000
61.28364 276.000
61.30359 307.000
61.32353 238.000
61.34348 286.000
61.36343 301.000
61.38337 275.000
61.40332 269.000
61.42327 311.000
61.44321 285.000
61.46316 261.000
61.48311 272.000
61.50306 287.000
61.52300 289.000
61.54295 312.000
61.56290 280.000
61.58284 311.000
61.60279 286.000
61.62274 311.000
61.64268 289.000
61.66263 319.000
61.68258 300.000
61.70252 307.000
61.72247 298.000
61.74242 340.000
61.76237 299.000
61.78231 321.000
61.80226 345.000
61.82221 325.000
61.84215 336.000
61.86210 344.000
61.88205 341.000
61.90199 318.000
61.92194 294.000
61.94189 336.000
61.96184 328.000
61.98178 322.000
62.00173 326.000
62.02168 342.000
62.04162 362.000
62.06157 368.000
62.08152 347.000
62.10146 416.000
62.12141 433.000
62.14136 462.000
62.16131 456.000
62.18125 473.000
62.20120 512.000
62.22115 521.000
62.24109 542.000
62.26104 584.000
62.28099 536.000
62.30093 582.000
62.32088 623.000
62.34083 615.000
62.36077 576.000
62.38072 609.000
62.40067 569.000
62.42062 629.000
62.44056 634.000
62.46051 648.000
62.48046 729.000
62.50040 760.000
62.52035 811.000
62.54030 904.000
62.56024 1052.000
62.58019 1181.000
62.60014 1431.000
62.62009 1730.000
62.64003 2062.000
62.65998 2272.000
62.67993 2538.000
62.69987 2730.000
62.71982 2883.000
62.73977 2765.000
62.75971 2614.000
62.77966 2657.000
62.79961 2424.000
62.81955 2304.000
62.83950 2136.000
62.85945 2035.000
62.87940 1984.000
62.89934 1783.000
62.91929 1713.000
62.93924 1541.000
62.95918 1233.000
62.97913 1123.000
62.99908 956.000
63.01902 814.000
63.03897 673.000
63.05892 593.000
63.07887 552.000
63.09881 483.000
63.11876 458.000
63.13871 396.000
63.15865 429.000
63.17860 375.000
63.19855 348.000
63.21849 342.000
63.23844 321.000
63.25839 332.000
63.27833 313.000
63.29828 308.000
63.31823 307.000
63.33818 308.000
63.35812 320.000
63.37807 323.000
63.39802 314.000
63.41796 284.000
63.43791 302.000
63.45786 301.000
63.47780 309.000
63.49775 324.000
63.51770 306.000
63.53765 347.000
63.55759 314.000
63.57754 346.000
63.59749 357.000
63.61743 333.000
63.63738 345.000
63.65733 334.000
63.67727 322.000
63.69722 338.000
63.71717 350.000
63.73712 293.000
63.75706 338.000
63.77701 301.000
63.79696 302.000
63.81690 309.000
63.83685 313.000
63.85680 318.000
63.87674 309.000
63.89669 271.000
63.91664 325.000
63.93658 286.000
63.95653 294.000
63.97648 298.000
63.99643 287.000
64.01637 292.000
64.03632 309.000
64.05627 285.000
64.07621 296.000
64.09616 302.000
64.11611 305.000
64.13605 289.000
64.15600 344.000
64.17595 322.000
64.19590 309.000
64.21584 340.000
64.23579 329.000
64.25574 331.000
64.27568 376.000
64.29563 378.000
64.31558 396.000
64.33552 413.000
64.35547 406.000
64.37542 407.000
64.39536 422.000
64.41531 482.000
64.43526 510.000
64.45521 512.000
64.47515 505.000
64.49510 471.000
64.51505 488.000
64.53499 454.000
64.55494 452.000
64.57489 441.000
64.59483 487.000
64.61478 475.000
64.63473 455.000
64.65468 428.000
64.67462 408.000
64.69457 385.000
64.71452 402.000
64.73446 360.000
64.75441 348.000
64.77436 357.000
64.79430 308.000
64.81425 319.000
64.83420 321.000
64.85414 312.000
64.87409 295.000
64.89404 282.000
64.91399 266.000
64.93393 275.000
64.95388 289.000
64.97383 286.000
64.99377 275.000
65.01372 264.000
65.03367 283.000
65.05361 255.000
65.07356 288.000
65.09351 294.000
65.11346 271.000
65.13340 282.000
65.15335 264.000
65.17330 268.000
65.19324 266.000
65.21319 254.000
65.23314 291.000
65.25308 309.000
65.27303 272.000
65.29298 316.000
65.31293 274.000
65.33287 288.000
65.35282 302.000
65.37277 272.000
65.39271 289.000
65.41266 288.000
65.43261 277.000
65.45255 296.000
65.47250 266.000
65.49245 305.000
65.51239 323.000
65.53234 302.000
65.55229 334.000
65.57224 320.000
65.59218 313.000
65.61213 361.000
65.63208 379.000
65.65202 350.000
65.67197 356.000
65.69192 370.000
65.71186 317.000
65.73181 351.000
65.75176 377.000
65.77171 374.000
65.79165 371.000
65.81160 374.000
65.83155 375.000
65.85149 332.000
65.87144 331.000
65.89139 336.000
65.91133 364.000
65.93128 337.000
65.95123 337.000
65.97117 297.000
65.99112 294.000
66.01107 310.000
66.03102 308.000
66.05096 302.000
66.07091 291.000
66.09086 299.000
66.11080 307.000
66.13075 286.000
66.15070 280.000
66.17064 257.000
66.19059 311.000
66.21054 298.000
66.23049 291.000
66.25043 290.000
66.27038 270.000
66.29033 281.000
66.31027 310.000
66.33022 284.000
66.35017 298.000
66.37011 301.000
66.39006 287.000
66.41001 296.000
66.42995 318.000
66.44990 295.000
66.46985 271.000
66.48980 314.000
66.50974 272.000
66.52969 296.000
66.54964 281.000
66.56958 281.000
66.58953 307.000
66.60948 279.000
66.62942 296.000
66.64937 286.000
66.66932 300.000
66.68927 315.000
66.70921 300.000
66.72916 290.000
66.74911 324.000
66.76905 328.000
66.78900 329.000
66.80895 374.000
66.82889 397.000
66.84884 380.000
66.86879 397.000
66.88874 401.000
66.90868 398.000
66.92863 377.000
66.94858 382.000
66.96852 377.000
66.98847 417.000
67.00842 414.000
67.02836 396.000
67.04831 386.000
67.06826 412.000
67.08820 370.000
67.10815 392.000
67.12810 329.000
67.14805 354.000
67.16799 377.000
67.18794 370.000
67.20789 323.000
67.22783 367.000
67.24778 367.000
67.26773 354.000
67.28767 365.000
67.30762 360.000
67.32757 338.000
67.34752 320.000
67.36746 326.000
67.38741 310.000
67.40736 316.000
67.42730 338.000
67.44725 346.000
67.46720 317.000
67.48714 301.000
67.50709 272.000
67.52704 268.000
67.54698 291.000
67.56693 298.000
67.58688 293.000
67.60683 265.000
67.62677 269.000
67.64672 268.000
67.66667 308.000
67.68661 261.000
67.70656 258.000
67.72651 286.000
67.74645 239.000
67.76640 257.000
67.78635 278.000
67.80630 259.000
67.82624 258.000
67.84619 273.000
67.86614 264.000
67.88608 254.000
67.90603 286.000
67.92598 274.000
67.94592 272.000
67.96587 274.000
67.98582 247.000
68.00576 280.000
68.02571 279.000
68.04566 254.000
68.06561 259.000
68.08555 295.000
68.10550 270.000
68.12545 263.000
68.14539 242.000
68.16534 272.000
68.18529 290.000
68.20523 270.000
68.22518 269.000
68.24513 284.000
68.26508 279.000
68.28502 259.000
68.30497 270.000
68.32492 271.000
68.34486 262.000
68.36481 239.000
68.38476 260.000
68.40470 276.000
68.42465 271.000
68.44460 265.000
68.46455 277.000
68.48449 291.000
68.50444 247.000
68.52439 266.000
68.54433 304.000
68.56428 283.000
68.58423 262.000
68.60417 264.000
68.62412 278.000
68.64407 281.000
68.66401 222.000
68.68396 261.000
68.70391 224.000
68.72386 273.000
68.74380 250.000
68.76375 243.000
68.78370 261.000
68.80364 238.000
68.82359 273.000
68.84354 232.000
68.86348 243.000
68.88343 245.000
68.90338 253.000
68.92333 246.000
68.94327 256.000
68.96322 250.000
68.98317 262.000
69.00311 268.000
69.02306 280.000
69.04301 225.000
69.06295 280.000
69.08290 253.000
69.10285 248.000
69.12279 260.000
69.14274 248.000
69.16269 252.000
69.18264 256.000
69.20258 237.000
69.22253 237.000
69.24248 242.000
69.26242 255.000
69.28237 235.000
69.30232 251.000
69.32226 246.000
69.34221 239.000
69.36216 247.000
69.38211 237.000
69.40205 261.000
69.42200 259.000
69.44195 253.000
69.46189 262.000
69.48184 263.000
69.50179 260.000
69.52173 241.000
69.54168 240.000
69.56163 246.000
69.58157 251.000
69.60152 258.000
69.62147 240.000
69.64142 234.000
69.66136 249.000
69.68131 273.000
69.70126 251.000
69.72120 259.000
69.74115 255.000
69.76110 246.000
69.78104 262.000
69.80099 240.000
69.82094 276.000
69.84089 239.000
69.86083 264.000
69.88078 245.000
69.90073 254.000
69.92067 273.000
69.94062 263.000
69.96057 249.000
69.98051 252.000
70.00046 264.000
70.02041 259.000
70.04035 266.000
70.06030 256.000
70.08025 280.000
70.10020 266.000
70.12014 278.000
70.14009 271.000
70.16004 243.000
70.17998 243.000
70.19993 242.000
70.21988 252.000
70.23982 249.000
70.25977 233.000
70.27972 260.000
70.29967 258.000
70.31961 229.000
70.33956 230.000
70.35951 231.000
70.37945 233.000
70.39940 276.000
70.41935 265.000
70.43929 267.000
70.45924 240.000
70.47919 273.000
70.49914 233.000
70.51908 244.000
70.53903 258.000
70.55898 262.000
70.57892 225.000
70.59887 229.000
70.61882 233.000
70.63876 267.000
70.65871 242.000
70.67866 248.000
70.69860 244.000
70.71855 257.000
70.73850 249.000
70.75845 227.000
70.77839 259.000
70.79834 236.000
70.81829 269.000
70.83823 255.000
70.85818 258.000
70.87813 255.000
70.89807 242.000
70.91802 259.000
70.93797 249.000
70.95792 276.000
70.97786 250.000
70.99781 255.000
71.01776 248.000
71.03770 239.000
71.05765 247.000
71.07760 257.000
71.09754 260.000
71.11749 247.000
71.13744 256.000
71.15738 247.000
71.17733 266.000
71.19728 258.000
71.21723 254.000
71.23717 256.000
71.25712 249.000
71.27707 256.000
71.29701 259.000
71.31696 292.000
71.33691 258.000
71.35685 259.000
71.37680 254.000
71.39675 253.000
71.41670 260.000
71.43664 237.000
71.45659 260.000
71.47654 247.000
71.49648 261.000
71.51643 256.000
71.53638 275.000
71.55632 237.000
71.57627 238.000
71.59622 266.000
71.61616 244.000
71.63611 239.000
71.65606 270.000
71.67601 236.000
71.69595 251.000
71.71590 265.000
71.73585 242.000
71.75579 285.000
71.77574 270.000
71.79569 257.000
71.81563 291.000
71.83558 254.000
71.85553 258.000
71.87548 280.000
71.89542 255.000
71.91537 254.000
71.93532 230.000
71.95526 245.000
71.97521 270.000
71.99516 251.000
72.01510 262.000
72.03505 262.000
72.05500 276.000
72.07495 245.000
72.09489 256.000
72.11484 257.000
72.13479 241.000
72.15473 254.000
72.17468 246.000
72.19463 257.000
72.21457 266.000
72.23452 269.000
72.25447 225.000
72.27441 254.000
72.29436 263.000
72.31431 225.000
72.33426 253.000
72.35420 299.000
72.37415 238.000
72.39410 220.000
72.41404 286.000
72.43399 264.000
72.45394 246.000
72.47388 229.000
72.49383 247.000
72.51378 257.000
72.53373 267.000
72.55367 269.000
72.57362 273.000
72.59357 303.000
72.61351 232.000
72.63346 220.000
72.65341 263.000
72.67335 273.000
72.69330 235.000
72.71325 258.000
72.73319 233.000
72.75314 260.000
72.77309 270.000
72.79304 243.000
72.81298 259.000
72.83293 229.000
72.85288 275.000
72.87282 272.000
72.89277 254.000
72.91272 280.000
72.93266 267.000
72.95261 227.000
72.97256 258.000
72.99251 245.000
73.01245 247.000
73.03240 273.000
73.05235 265.000
73.07229 274.000
73.09224 276.000
73.11219 293.000
73.13213 278.000
73.15208 248.000
73.17203 265.000
73.19197 262.000
73.21192 250.000
73.23187 262.000
73.25182 268.000
73.27176 263.000
73.29171 280.000
73.31166 283.000
73.33160 282.000
73.35155 238.000
73.37150 282.000
73.39144 249.000
73.41139 269.000
73.43134 296.000
73.45129 258.000
73.47123 262.000
73.49118 303.000
73.51113 279.000
73.53107 262.000
73.55102 307.000
73.57097 281.000
73.59091 262.000
73.61086 295.000
73.63081 279.000
73.65076 294.000
73.67070 277.000
73.69065 288.000
73.71060 306.000
73.73054 319.000
73.75049 279.000
73.77044 316.000
73.79038 344.000
73.81033 329.000
73.83028 302.000
73.85022 325.000
73.87017 346.000
73.89012 307.000
73.91007 301.000
73.93001 281.000
73.94996 312.000
73.96991 318.000
73.98985 279.000
74.00980 277.000
74.02975 329.000
74.04969 311.000
74.06964 288.000
74.08959 338.000
74.10954 276.000
74.12948 309.000
74.14943 310.000
74.16938 263.000
74.18932 279.000
74.20927 274.000
74.22922 274.000
74.24916 255.000
74.26911 299.000
74.28906 260.000
74.30900 269.000
74.32895 258.000
74.34890 286.000
74.36885 273.000
74.38879 271.000
74.40874 262.000
74.42869 280.000
74.44863 278.000
74.46858 304.000
74.48853 263.000
74.50847 293.000
74.52842 268.000
74.54837 277.000
74.56832 282.000
74.58826 272.000
74.60821 265.000
74.62816 289.000
74.64810 295.000
74.66805 280.000
74.68800 328.000
74.70794 274.000
74.72789 323.000
74.74784 316.000
74.76778 326.000
74.78773 333.000
74.80768 309.000
74.82763 344.000
74.84757 314.000
74.86752 373.000
74.88747 357.000
74.90741 388.000
74.92736 382.000
74.94731 436.000
74.96725 436.000
74.98720 482.000
75.00715 542.000
75.02710 587.000
75.04704 624.000
75.06699 663.000
75.08694 778.000
75.10688 797.000
75.12683 957.000
75.14678 998.000
75.16672 1048.000
75.18667 1093.000
75.20662 1075.000
75.22657 1049.000
75.24651 1024.000
75.26646 1006.000
75.28641 999.000
75.30635 937.000
75.32630 885.000
75.34625 832.000
75.36619 844.000
75.38614 788.000
75.40609 807.000
75.42603 764.000
75.44598 715.000
75.46593 684.000
75.48588 608.000
75.50582 564.000
75.52577 543.000
75.54572 528.000
75.56566 406.000
75.58561 437.000
75.60556 431.000
75.62550 342.000
75.64545 347.000
75.66540 307.000
75.68535 317.000
75.70529 327.000
75.72524 332.000
75.74519 315.000
75.76513 268.000
75.78508 281.000
75.80503 307.000
75.82497 289.000
75.84492 286.000
75.86487 308.000
75.88481 319.000
75.90476 303.000
75.92471 298.000
75.94466 290.000
75.96460 302.000
75.98455 287.000
76.00450 312.000
76.02444 277.000
76.04439 298.000
76.06434 308.000
76.08428 302.000
76.10423 274.000
76.12418 306.000
76.14413 293.000
76.16407 288.000
76.18402 277.000
76.20397 295.000
76.22391 294.000
76.24386 253.000
76.26381 286.000
76.28375 285.000
76.30370 311.000
76.32365 256.000
76.34359 286.000
76.36354 277.000
76.38349 263.000
76.40344 272.000
76.42338 275.000
76.44333 224.000
76.46328 275.000
76.48322 315.000
76.50317 288.000
76.52312 256.000
76.54306 265.000
76.56301 267.000
76.58296 265.000
76.60291 294.000
76.62285 283.000
76.64280 273.000
76.66275 273.000
76.68269 278.000
76.70264 274.000
76.72259 278.000
76.74253 284.000
76.76248 254.000
76.78243 256.000
76.80238 253.000
76.82232 262.000
76.84227 255.000
76.86222 240.000
76.88216 245.000
76.90211 271.000
76.92206 242.000
76.94200 256.000
76.96195 253.000
76.98190 272.000
77.00184 260.000
77.02179 270.000
77.04174 269.000
77.06169 285.000
77.08163 258.000
77.10158 288.000
77.12153 247.000
77.14147 281.000
77.16142 266.000
77.18137 254.000
77.20131 256.000
77.22126 258.000
77.24121 234.000
77.26116 286.000
77.28110 262.000
77.30105 247.000
77.32100 267.000
77.34094 267.000
77.36089 260.000
77.38084 282.000
77.40078 272.000
77.42073 244.000
77.44068 262.000
77.46062 257.000
77.48057 258.000
77.50052 254.000
77.52047 268.000
77.54041 267.000
77.56036 238.000
77.58031 253.000
77.60025 250.000
77.62020 240.000
77.64015 246.000
77.66009 266.000
77.68004 246.000
77.69999 256.000
77.71994 255.000
77.73988 240.000
77.75983 267.000
77.77978 264.000
77.79972 273.000
77.81967 259.000
77.83962 236.000
77.85956 262.000
77.87951 243.000
77.89946 273.000
77.91940 249.000
77.93935 261.000
77.95930 259.000
77.97925 261.000
77.99919 260.000
78.01914 254.000
78.03909 245.000
78.05903 268.000
78.07898 278.000
78.09893 285.000
78.11887 276.000
78.13882 275.000
78.15877 293.000
78.17872 288.000
78.19866 300.000
78.21861 317.000
78.23856 300.000
78.25850 315.000
78.27845 323.000
78.29840 333.000
78.31834 323.000
78.33829 315.000
78.35824 331.000
78.37819 329.000
78.39813 339.000
78.41808 280.000
78.43803 330.000
78.45797 357.000
78.47792 350.000
78.49787 297.000
78.51781 317.000
78.53776 297.000
78.55771 313.000
78.57765 341.000
78.59760 318.000
78.61755 325.000
78.63750 307.000
78.65744 332.000
78.67739 328.000
78.69734 315.000
78.71728 310.000
78.73723 314.000
78.75718 343.000
78.77712 361.000
78.79707 342.000
78.81702 366.000
78.83697 332.000
78.85691 370.000
78.87686 358.000
78.89681 368.000
78.91675 384.000
78.93670 408.000
78.95665 406.000
78.97659 497.000
78.99654 485.000
79.01649 518.000
79.03643 572.000
79.05638 645.000
79.07633 725.000
79.09628 772.000
79.11622 746.000
79.13617 856.000
79.15612 860.000
79.17606 845.000
79.19601 855.000
79.21596 778.000
79.23590 761.000
79.25585 728.000
79.27580 720.000
79.29575 671.000
79.31569 730.000
79.33564 674.000
79.35559 686.000
79.37553 645.000
79.39548 603.000
79.41543 561.000
79.43537 534.000
79.45532 552.000
79.47527 509.000
79.49521 461.000
79.51516 455.000
79.53511 405.000
79.55506 369.000
79.57500 383.000
79.59495 338.000
79.61490 299.000
79.63484 317.000
79.65479 294.000
79.67474 317.000
79.69468 296.000
79.71463 271.000
79.73458 279.000
79.75453 262.000
79.77447 269.000
79.79442 305.000
79.81437 304.000
79.83431 285.000
79.85426 276.000
79.87421 288.000
79.89415 267.000
79.91410 262.000
79.93405 285.000
79.95399 265.000
79.97394 274.000
79.99389 286.000
80.01384 267.000
80.03378 268.000
80.05373 285.000
80.07368 248.000
80.09362 273.000
80.11357 256.000
80.13352 285.000
80.15346 273.000
80.17341 262.000
80.19336 292.000
80.21331 276.000
80.23325 263.000
80.25320 252.000
80.27315 263.000
80.29309 262.000
80.31304 281.000
80.33299 252.000
80.35293 265.000
80.37288 283.000
80.39283 228.000
80.41278 279.000
80.43272 261.000
80.45267 237.000
80.47262 262.000
80.49256 243.000
80.51251 263.000
80.53246 265.000
80.55240 245.000
80.57235 231.000
80.59230 252.000
80.61224 248.000
80.63219 266.000
80.65214 222.000
80.67209 257.000
80.69203 241.000
80.71198 228.000
80.73193 235.000
80.75187 249.000
80.77182 245.000
80.79177 256.000
80.81171 250.000
80.83166 257.000
80.85161 273.000
80.87156 238.000
80.89150 232.000
80.91145 267.000
80.93140 238.000
80.95134 257.000
80.97129 257.000
80.99124 233.000
81.01118 257.000
81.03113 262.000
81.05108 268.000
81.07102 257.000
81.09097 257.000
81.11092 271.000
81.13087 283.000
81.15081 288.000
81.17076 264.000
81.19071 254.000
81.21065 289.000
81.23060 281.000
81.25055 276.000
81.27049 221.000
81.29044 270.000
81.31039 302.000
81.33034 281.000
81.35028 271.000
81.37023 268.000
81.39018 249.000
81.41012 239.000
81.43007 233.000
81.45002 254.000
81.46996 240.000
81.48991 252.000
81.50986 252.000
81.52980 253.000
81.54975 270.000
81.56970 233.000
81.58965 234.000
81.60959 252.000
81.62954 248.000
81.64949 261.000
81.66943 256.000
81.68938 253.000
81.70933 267.000
81.72927 253.000
81.74922 270.000
81.76917 259.000
81.78912 256.000
81.80906 254.000
81.82901 289.000
81.84896 269.000
81.86890 274.000
81.88885 253.000
81.90880 267.000
81.92874 260.000
81.94869 255.000
81.96864 266.000
81.98859 253.000
82.00853 269.000
82.02848 262.000
82.04843 236.000
82.06837 247.000
82.08832 270.000
82.10827 256.000
82.12821 255.000
82.14816 254.000
82.16811 277.000
82.18805 258.000
82.20800 253.000
82.22795 227.000
82.24790 261.000
82.26784 251.000
82.28779 272.000
82.30774 251.000
82.32768 289.000
82.34763 257.000
82.36758 236.000
82.38752 276.000
82.40747 310.000
82.42742 306.000
82.44737 275.000
82.46731 241.000
82.48726 273.000
82.50721 246.000
82.52715 259.000
82.54710 270.000
82.56705 281.000
82.58699 276.000
82.60694 285.000
82.62689 272.000
82.64683 267.000
82.66678 268.000
82.68673 265.000
82.70668 254.000
82.72662 254.000
82.74657 277.000
82.76652 242.000
82.78646 259.000
82.80641 259.000
82.82636 257.000
82.84630 247.000
82.86625 266.000
82.88620 258.000
82.90615 287.000
82.92609 276.000
82.94604 247.000
82.96599 261.000
82.98593 258.000
83.00588 285.000
83.02583 256.000
83.04577 240.000
83.06572 256.000
83.08567 224.000
83.10561 282.000
83.12556 263.000
83.14551 213.000
83.16546 250.000
83.18540 272.000
83.20535 241.000
83.22530 249.000
83.24524 237.000
83.26519 251.000
83.28514 223.000
83.30508 255.000
83.32503 242.000
83.34498 261.000
83.36493 249.000
83.38487 207.000
83.40482 251.000
83.42477 262.000
83.44471 225.000
83.46466 249.000
83.48461 234.000
83.50455 245.000
83.52450 262.000
83.54445 250.000
83.56440 264.000
83.58434 233.000
83.60429 242.000
83.62424 268.000
83.64418 233.000
83.66413 248.000
83.68408 252.000
83.70402 288.000
83.72397 267.000
83.74392 269.000
83.76386 272.000
83.78381 246.000
83.80376 250.000
83.82371 260.000
83.84365 272.000
83.86360 289.000
83.88355 255.000
83.90349 259.000
83.92344 248.000
83.94339 245.000
83.96333 255.000
83.98328 251.000
84.00323 233.000
84.02318 241.000
84.04312 262.000
84.06307 243.000
84.08302 214.000
84.10296 273.000
84.12291 245.000
84.14286 261.000
84.16280 275.000
84.18275 248.000
84.20270 259.000
84.22264 246.000
84.24259 259.000
84.26254 289.000
84.28249 255.000
84.30243 252.000
84.32238 266.000
84.34233 239.000
84.36227 251.000
84.38222 282.000
84.40217 258.000
84.42211 281.000
84.44206 261.000
84.46201 259.000
84.48196 259.000
84.50190 250.000
84.52185 273.000
84.54180 261.000
84.56174 256.000
84.58169 238.000
84.60164 273.000
84.62158 275.000
84.64153 284.000
84.66148 283.000
84.68142 285.000
84.70137 284.000
84.72132 273.000
84.74127 294.000
84.76121 292.000
84.78116 289.000
84.80111 307.000
84.82105 285.000
84.84100 266.000
84.86095 273.000
84.88089 268.000
84.90084 301.000
84.92079 277.000
84.94074 312.000
84.96068 299.000
84.98063 250.000
85.00058 294.000
85.02052 288.000
85.04047 296.000
85.06042 280.000
85.08036 271.000
85.10031 333.000
85.12026 284.000
85.14021 276.000
85.16015 289.000
85.18010 292.000
85.20005 281.000
85.21999 288.000
85.23994 296.000
85.25989 288.000
85.27983 278.000
85.29978 253.000
85.31973 290.000
85.33967 259.000
85.35962 278.000
85.37957 261.000
85.39952 243.000
85.41946 263.000
85.43941 245.000
85.45936 239.000
85.47930 264.000
85.49925 253.000
85.51920 229.000
85.53914 260.000
85.55909 267.000
85.57904 284.000
85.59899 234.000
85.61893 229.000
85.63888 285.000
85.65883 256.000
85.67877 285.000
85.69872 247.000
85.71867 250.000
85.73861 238.000
85.75856 274.000
85.77851 295.000
85.79845 216.000
85.81840 259.000
85.83835 256.000
85.85830 219.000
85.87824 247.000
85.89819 232.000
85.91814 249.000
85.93808 246.000
85.95803 267.000
85.97798 259.000
85.99792 242.000
86.01787 263.000
86.03782 264.000
86.05777 236.000
86.07771 241.000
86.09766 239.000
86.11761 244.000
86.13755 268.000
86.15750 247.000
86.17745 260.000
86.19739 246.000
86.21734 247.000
86.23729 251.000
86.25723 243.000
86.27718 242.000
86.29713 252.000
86.31708 252.000
86.33702 269.000
86.35697 254.000
86.37692 246.000
86.39686 234.000
86.41681 257.000
86.43676 245.000
86.45670 227.000
86.47665 263.000
86.49660 231.000
86.51655 251.000
86.53649 268.000
86.55644 297.000
86.57639 271.000
86.59633 283.000
86.61628 239.000
86.63623 245.000
86.65617 253.000
86.67612 257.000
86.69607 234.000
86.71602 255.000
86.73596 250.000
86.75591 266.000
86.77586 232.000
86.79580 246.000
86.81575 247.000
86.83570 288.000
86.85564 276.000
86.87559 260.000
86.89554 257.000
86.91548 265.000
86.93543 313.000
86.95538 242.000
86.97533 243.000
86.99527 276.000
87.01522 253.000
87.03517 242.000
87.05511 289.000
87.07506 285.000
87.09501 274.000
87.11495 306.000
87.13490 258.000
87.15485 294.000
87.17480 249.000
87.19474 296.000
87.21469 265.000
87.23464 304.000
87.25458 289.000
87.27453 256.000
87.29448 320.000
87.31442 288.000
87.33437 308.000
87.35432 288.000
87.37426 290.000
87.39421 311.000
87.41416 265.000
87.43411 288.000
87.45405 242.000
87.47400 311.000
87.49395 261.000
87.51389 262.000
87.53384 258.000
87.55379 242.000
87.57373 290.000
87.59368 254.000
87.61363 287.000
87.63358 268.000
87.65352 282.000
87.67347 259.000
87.69342 266.000
87.71336 268.000
87.73331 262.000
87.75326 295.000
87.77320 269.000
87.79315 285.000
87.81310 261.000
87.83304 278.000
87.85299 278.000
87.87294 257.000
87.89289 255.000
87.91283 276.000
87.93278 270.000
87.95273 248.000
87.97267 242.000
87.99262 278.000
88.01257 253.000
88.03251 239.000
88.05246 252.000
88.07241 261.000
88.09236 260.000
88.11230 290.000
88.13225 224.000
88.15220 234.000
88.17214 288.000
88.19209 255.000
88.21204 281.000
88.23198 276.000
88.25193 313.000
88.27188 276.000
88.29183 265.000
88.31177 260.000
88.33172 243.000
88.35167 253.000
88.37161 267.000
88.39156 274.000
88.41151 280.000
88.43145 261.000
88.45140 257.000
88.47135 247.000
88.49129 221.000
88.51124 269.000
88.53119 256.000
88.55114 231.000
88.57108 268.000
88.59103 243.000
88.61098 260.000
88.63092 248.000
88.65087 257.000
88.67082 252.000
88.69076 268.000
88.71071 264.000
88.73066 229.000
88.75061 257.000
88.77055 237.000
88.79050 266.000
88.81045 242.000
88.83039 262.000
88.85034 231.000
88.87029 244.000
88.89023 253.000
88.91018 248.000
88.93013 256.000
88.95007 241.000
88.97002 224.000
88.98997 249.000
89.00992 249.000
89.02986 257.000
89.04981 250.000
89.06976 263.000
89.08970 261.000
89.10965 256.000
89.12960 240.000
89.14954 256.000
89.16949 244.000
89.18944 266.000
89.20939 264.000
89.22933 247.000
89.24928 242.000
89.26923 254.000
89.28917 265.000
89.30912 237.000
89.32907 234.000
89.34901 213.000
89.36896 234.000
89.38891 261.000
89.40885 224.000
89.42880 249.000
89.44875 237.000
89.46870 236.000
89.48864 267.000
89.50859 256.000
89.52854 249.000
89.54848 244.000
89.56843 272.000
89.58838 272.000
89.60832 250.000
89.62827 224.000
89.64822 263.000
89.66817 230.000
89.68811 235.000
89.70806 227.000
89.72801 250.000
89.74795 242.000
89.76790 233.000
89.78785 227.000
89.80779 243.000
89.82774 251.000
89.84769 235.000
89.86764 247.000
89.88758 227.000
89.90753 243.000
89.92748 265.000
89.94742 234.000
89.96737 269.000
89.98732 277.000
90.00726 233.000
