10.00000 85.000
10.01995 79.000
10.03989 93.000
10.05984 83.000
10.07979 72.000
10.09973 77.000
10.11968 77.000
10.13963 98.000
10.15958 86.000
10.17952 82.000
10.19947 84.000
10.21942 96.000
10.23936 81.000
10.25931 81.000
10.27926 93.000
10.29920 76.000
10.31915 80.000
10.33910 87.000
10.35905 92.000
10.37899 91.000
10.39894 97.000
10.41889 67.000
10.43883 91.000
10.45878 89.000
10.47873 82.000
10.49867 77.000
10.51862 86.000
10.53857 80.000
10.55851 84.000
10.57846 82.000
10.59841 88.000
10.61836 88.000
10.63830 64.000
10.65825 96.000
10.67820 96.000
10.69814 77.000
10.71809 83.000
10.73804 81.000
10.75798 86.000
10.77793 79.000
10.79788 77.000
10.81783 80.000
10.83777 74.000
10.85772 85.000
10.87767 96.000
10.89761 85.000
10.91756 86.000
10.93751 84.000
10.95745 96.000
10.97740 73.000
10.99735 91.000
11.01730 79.000
11.03724 87.000
11.05719 89.000
11.07714 85.000
11.09708 80.000
11.11703 83.000
11.13698 82.000
11.15692 90.000
11.17687 103.000
11.19682 104.000
11.21676 84.000
11.23671 81.000
11.25666 86.000
11.27661 103.000
11.29655 93.000
11.31650 89.000
11.33645 81.000
11.35639 78.000
11.37634 88.000
11.39629 90.000
11.41623 90.000
11.43618 93.000
11.45613 87.000
11.47608 86.000
11.49602 81.000
11.51597 88.000
11.53592 71.000
11.55586 94.000
11.57581 99.000
11.59576 80.000
11.61570 86.000
11.63565 75.000
11.65560 109.000
11.67554 86.000
11.69549 97.000
11.71544 78.000
11.73539 103.000
11.75533 105.000
11.77528 84.000
11.79523 92.000
11.81517 96.000
11.83512 86.000
11.85507 88.000
11.87501 84.000
11.89496 97.000
11.91491 95.000
11.93486 90.000
11.95480 97.000
11.97475 86.000
11.99470 103.000
12.01464 83.000
12.03459 94.000
12.05454 70.000
12.07448 89.000
12.09443 84.000
12.11438 80.000
12.13432 86.000
12.15427 88.000
12.17422 93.000
12.19417 106.000
12.21411 87.000
12.23406 99.000
12.25401 71.000
12.27395 97.000
12.29390 86.000
12.31385 77.000
12.33379 104.000
12.35374 94.000
12.37369 118.000
12.39364 93.000
12.41358 85.000
12.43353 90.000
12.45348 75.000
12.47342 90.000
12.49337 80.000
12.51332 103.000
12.53326 97.000
12.55321 95.000
12.57316 89.000
12.59311 83.000
12.61305 72.000
12.63300 103.000
12.65295 103.000
12.67289 101.000
12.69284 89.000
12.71279 91.000
12.73273 99.000
12.75268 89.000
12.77263 109.000
12.79257 81.000
12.81252 103.000
12.83247 97.000
12.85242 90.000
12.87236 91.000
12.89231 75.000
12.91226 98.000
12.93220 113.000
12.95215 93.000
12.97210 96.000
12.99204 89.000
13.01199 90.000
13.03194 89.000
13.05189 111.000
13.07183 100.000
13.09178 82.000
13.11173 84.000
13.13167 84.000
13.15162 96.000
13.17157 81.000
13.19151 96.000
13.21146 99.000
13.23141 105.000
13.25135 101.000
13.27130 88.000
13.29125 95.000
13.31120 102.000
13.33114 94.000
13.35109 90.000
13.37104 104.000
13.39098 113.000
13.41093 101.000
13.43088 103.000
13.45082 98.000
13.47077 96.000
13.49072 74.000
13.51067 90.000
13.53061 86.000
13.55056 86.000
13.57051 99.000
13.59045 97.000
13.61040 88.000
13.63035 102.000
13.65029 87.000
13.67024 89.000
13.69019 107.000
13.71013 99.000
13.73008 88.000
13.75003 90.000
13.76998 93.000
13.78992 99.000
13.80987 98.000
13.82982 98.000
13.84976 99.000
13.86971 100.000
13.88966 81.000
13.90960 110.000
13.92955 86.000
13.94950 83.000
13.96945 99.000
13.98939 103.000
14.00934 106.000
14.02929 108.000
14.04923 104.000
14.06918 87.000
14.08913 81.000
14.10907 84.000
14.12902 96.000
14.14897 105.000
14.16892 103.000
14.18886 115.000
14.20881 101.000
14.22876 107.000
14.24870 112.000
14.26865 96.000
14.28860 94.000
14.30854 109.000
14.32849 73.000
14.34844 107.000
14.36838 85.000
14.38833 98.000
14.40828 108.000
14.42823 103.000
14.44817 92.000
14.46812 98.000
14.48807 128.000
14.50801 102.000
14.52796 125.000
14.54791 104.000
14.56785 90.000
14.58780 100.000
14.60775 90.000
14.62770 100.000
14.64764 105.000
14.66759 106.000
14.68754 103.000
14.70748 101.000
14.72743 124.000
14.74738 107.000
14.76732 102.000
14.78727 114.000
14.80722 106.000
14.82716 87.000
14.84711 100.000
14.86706 99.000
14.88701 95.000
14.90695 116.000
14.92690 106.000
14.94685 98.000
14.96679 119.000
14.98674 102.000
15.00669 139.000
15.02663 110.000
15.04658 105.000
15.06653 90.000
15.08648 112.000
15.10642 99.000
15.12637 119.000
15.14632 118.000
15.16626 99.000
15.18621 129.000
15.20616 110.000
15.22610 116.000
15.24605 140.000
15.26600 136.000
15.28594 134.000
15.30589 129.000
15.32584 144.000
15.34579 127.000
15.36573 147.000
15.38568 140.000
15.40563 126.000
15.42557 152.000
15.44552 138.000
15.46547 137.000
15.48541 127.000
15.50536 171.000
15.52531 154.000
15.54526 171.000
15.56520 145.000
15.58515 146.000
15.60510 171.000
15.62504 182.000
15.64499 194.000
15.66494 191.000
15.68488 217.000
15.70483 249.000
15.72478 277.000
15.74472 281.000
15.76467 347.000
15.78462 344.000
15.80457 454.000
15.82451 594.000
15.84446 768.000
15.86441 1100.000
15.88435 1572.000
15.90430 2326.000
15.92425 2987.000
15.94419 3489.000
15.96414 3774.000
15.98409 3897.000
16.00404 3563.000
16.02398 3169.000
16.04393 2457.000
16.06388 1756.000
16.08382 1311.000
16.10377 973.000
16.12372 788.000
16.14366 629.000
16.16361 570.000
16.18356 688.000
16.20351 764.000
16.22345 829.000
16.24340 903.000
16.26335 923.000
16.28329 895.000
16.30324 761.000
16.32319 708.000
16.34313 599.000
16.36308 486.000
16.38303 413.000
16.40297 340.000
16.42292 264.000
16.44287 250.000
16.46282 197.000
16.48276 210.000
16.50271 158.000
16.52266 160.000
16.54260 170.000
16.56255 146.000
16.58250 141.000
16.60244 167.000
16.62239 121.000
16.64234 149.000
16.66229 132.000
16.68223 142.000
16.70218 123.000
16.72213 130.000
16.74207 151.000
16.76202 119.000
16.78197 115.000
16.80191 135.000
16.82186 128.000
16.84181 129.000
16.86175 166.000
16.88170 151.000
16.90165 173.000
16.92160 168.000
16.94154 152.000
16.96149 138.000
16.98144 143.000
17.00138 132.000
17.02133 146.000
17.04128 127.000
17.06122 138.000
17.08117 121.000
17.10112 134.000
17.12107 124.000
17.14101 107.000
17.16096 111.000
17.18091 106.000
17.20085 132.000
17.22080 112.000
17.24075 104.000
17.26069 98.000
17.28064 112.000
17.30059 106.000
17.32053 102.000
17.34048 114.000
17.36043 113.000
17.38038 113.000
17.40032 120.000
17.42027 96.000
17.44022 95.000
17.46016 107.000
17.48011 104.000
17.50006 126.000
17.52000 112.000
17.53995 106.000
17.55990 104.000
17.57985 119.000
17.59979 110.000
17.61974 111.000
17.63969 115.000
17.65963 108.000
17.67958 114.000
17.69953 106.000
17.71947 101.000
17.73942 104.000
17.75937 105.000
17.77932 97.000
17.79926 117.000
17.81921 105.000
17.83916 120.000
17.85910 92.000
17.87905 108.000
17.89900 103.000
17.91894 110.000
17.93889 106.000
17.95884 107.000
17.97878 118.000
17.99873 110.000
18.01868 99.000
18.03863 117.000
18.05857 93.000
18.07852 113.000
18.09847 102.000
18.11841 112.000
18.13836 91.000
18.15831 102.000
18.17825 103.000
18.19820 125.000
18.21815 110.000
18.23810 101.000
18.25804 120.000
18.27799 109.000
18.29794 112.000
18.31788 121.000
18.33783 114.000
18.35778 102.000
18.37772 112.000
18.39767 117.000
18.41762 114.000
18.43756 103.000
18.45751 110.000
18.47746 123.000
18.49741 127.000
18.51735 131.000
18.53730 132.000
18.55725 112.000
18.57719 140.000
18.59714 127.000
18.61709 114.000
18.63703 123.000
18.65698 86.000
18.67693 109.000
18.69688 114.000
18.71682 108.000
18.73677 102.000
18.75672 81.000
18.77666 110.000
18.79661 108.000
18.81656 108.000
18.83650 109.000
18.85645 119.000
18.87640 133.000
18.89634 105.000
18.91629 111.000
18.93624 118.000
18.95619 105.000
18.97613 113.000
18.99608 112.000
19.01603 107.000
19.03597 115.000
19.05592 116.000
19.07587 105.000
19.09581 111.000
19.11576 120.000
19.13571 109.000
19.15566 117.000
19.17560 93.000
19.19555 92.000
19.21550 110.000
19.23544 129.000
19.25539 108.000
19.27534 101.000
19.29528 103.000
19.31523 127.000
19.33518 113.000
19.35513 132.000
19.37507 114.000
19.39502 110.000
19.41497 119.000
19.43491 88.000
19.45486 118.000
19.47481 115.000
19.49475 117.000
19.51470 135.000
19.53465 111.000
19.55459 107.000
19.57454 115.000
19.59449 94.000
19.61444 101.000
19.63438 112.000
19.65433 108.000
19.67428 107.000
19.69422 94.000
19.71417 119.000
19.73412 106.000
19.75406 118.000
19.77401 106.000
19.79396 122.000
19.81391 101.000
19.83385 109.000
19.85380 107.000
19.87375 126.000
19.89369 118.000
19.91364 109.000
19.93359 111.000
19.95353 113.000
19.97348 108.000
19.99343 127.000
20.01337 92.000
20.03332 117.000
20.05327 104.000
20.07322 123.000
20.09316 124.000
20.11311 107.000
20.13306 106.000
20.15300 107.000
20.17295 113.000
20.19290 128.000
20.21284 134.000
20.23279 118.000
20.25274 119.000
20.27269 119.000
20.29263 107.000
20.31258 105.000
20.33253 107.000
20.35247 108.000
20.37242 112.000
20.39237 128.000
20.41231 119.000
20.43226 109.000
20.45221 121.000
20.47215 141.000
20.49210 133.000
20.51205 104.000
20.53200 108.000
20.55194 123.000
20.57189 117.000
20.59184 139.000
20.61178 130.000
20.63173 119.000
20.65168 142.000
20.67162 110.000
20.69157 130.000
20.71152 136.000
20.73147 123.000
20.75141 139.000
20.77136 124.000
20.79131 133.000
20.81125 143.000
20.83120 123.000
20.85115 148.000
20.87109 158.000
20.89104 138.000
20.91099 174.000
20.93094 160.000
20.95088 186.000
20.97083 178.000
20.99078 181.000
21.01072 202.000
21.03067 203.000
21.05062 218.000
21.07056 249.000
21.09051 221.000
21.11046 246.000
21.13040 237.000
21.15035 217.000
21.17030 242.000
21.19025 228.000
21.21019 218.000
21.23014 210.000
21.25009 179.000
21.27003 164.000
21.28998 150.000
21.30993 130.000
21.32987 154.000
21.34982 136.000
21.36977 133.000
21.38972 113.000
21.40966 117.000
21.42961 116.000
21.44956 123.000
21.46950 108.000
21.48945 114.000
21.50940 116.000
21.52934 116.000
21.54929 118.000
21.56924 123.000
21.58918 120.000
21.60913 104.000
21.62908 140.000
21.64903 116.000
21.66897 117.000
21.68892 120.000
21.70887 125.000
21.72881 143.000
21.74876 108.000
21.76871 121.000
21.78865 134.000
21.80860 137.000
21.82855 117.000
21.84850 141.000
21.86844 101.000
21.88839 114.000
21.90834 123.000
21.92828 111.000
21.94823 118.000
21.96818 111.000
21.98812 126.000
22.00807 116.000
22.02802 134.000
22.04796 133.000
22.06791 118.000
22.08786 123.000
22.10781 126.000
22.12775 129.000
22.14770 142.000
22.16765 118.000
22.18759 137.000
22.20754 123.000
22.22749 113.000
22.24743 125.000
22.26738 101.000
22.28733 122.000
22.30728 124.000
22.32722 125.000
22.34717 120.000
22.36712 112.000
22.38706 123.000
22.40701 123.000
22.42696 123.000
22.44690 126.000
22.46685 121.000
22.48680 122.000
22.50675 106.000
22.52669 131.000
22.54664 121.000
22.56659 117.000
22.58653 116.000
22.60648 121.000
22.62643 119.000
22.64637 134.000
22.66632 99.000
22.68627 126.000
22.70621 103.000
22.72616 134.000
22.74611 104.000
22.76606 103.000
22.78600 125.000
22.80595 136.000
22.82590 140.000
22.84584 114.000
22.86579 125.000
22.88574 151.000
22.90568 139.000
22.92563 144.000
22.94558 130.000
22.96553 134.000
22.98547 141.000
23.00542 121.000
23.02537 116.000
23.04531 136.000
23.06526 121.000
23.08521 114.000
23.10515 132.000
23.12510 136.000
23.14505 124.000
23.16499 123.000
23.18494 107.000
23.20489 132.000
23.22484 130.000
23.24478 125.000
23.26473 137.000
23.28468 130.000
23.30462 129.000
23.32457 116.000
23.34452 103.000
23.36446 113.000
23.38441 124.000
23.40436 126.000
23.42431 125.000
23.44425 121.000
23.46420 113.000
23.48415 113.000
23.50409 131.000
23.52404 130.000
23.54399 132.000
23.56393 132.000
23.58388 122.000
23.60383 143.000
23.62377 87.000
23.64372 131.000
23.66367 130.000
23.68362 142.000
23.70356 138.000
23.72351 146.000
23.74346 131.000
23.76340 111.000
23.78335 143.000
23.80330 120.000
23.82324 138.000
23.84319 129.000
23.86314 151.000
23.88309 120.000
23.90303 152.000
23.92298 114.000
23.94293 118.000
23.96287 131.000
23.98282 128.000
24.00277 122.000
24.02271 134.000
24.04266 134.000
24.06261 132.000
24.08256 154.000
24.10250 129.000
24.12245 120.000
24.14240 119.000
24.16234 133.000
24.18229 124.000
24.20224 127.000
24.22218 145.000
24.24213 146.000
24.26208 118.000
24.28202 152.000
24.30197 116.000
24.32192 128.000
24.34187 124.000
24.36181 126.000
24.38176 118.000
24.40171 129.000
24.42165 114.000
24.44160 145.000
24.46155 147.000
24.48149 124.000
24.50144 130.000
24.52139 128.000
24.54134 147.000
24.56128 122.000
24.58123 139.000
24.60118 135.000
24.62112 122.000
24.64107 124.000
24.66102 102.000
24.68096 113.000
24.70091 128.000
24.72086 148.000
24.74080 120.000
24.76075 135.000
24.78070 142.000
24.80065 134.000
24.82059 114.000
24.84054 137.000
24.86049 148.000
24.88043 131.000
24.90038 128.000
24.92033 140.000
24.94027 139.000
24.96022 135.000
24.98017 149.000
25.00012 147.000
25.02006 133.000
25.04001 130.000
25.05996 160.000
25.07990 162.000
25.09985 168.000
25.11980 152.000
25.13974 162.000
25.15969 141.000
25.17964 131.000
25.19958 140.000
25.21953 143.000
25.23948 147.000
25.25943 115.000
25.27937 136.000
25.29932 156.000
25.31927 118.000
25.33921 144.000
25.35916 120.000
25.37911 142.000
25.39905 130.000
25.41900 119.000
25.43895 124.000
25.45890 139.000
25.47884 131.000
25.49879 114.000
25.51874 134.000
25.53868 127.000
25.55863 124.000
25.57858 129.000
25.59852 114.000
25.61847 125.000
25.63842 158.000
25.65837 127.000
25.67831 125.000
25.69826 130.000
25.71821 125.000
25.73815 146.000
25.75810 139.000
25.77805 135.000
25.79799 135.000
25.81794 135.000
25.83789 136.000
25.85783 119.000
25.87778 123.000
25.89773 161.000
25.91768 135.000
25.93762 149.000
25.95757 145.000
25.97752 140.000
25.99746 143.000
26.01741 129.000
26.03736 122.000
26.05730 135.000
26.07725 112.000
26.09720 152.000
26.11715 131.000
26.13709 130.000
26.15704 125.000
26.17699 166.000
26.19693 156.000
26.21688 148.000
26.23683 142.000
26.25677 123.000
26.27672 122.000
26.29667 139.000
26.31661 149.000
26.33656 140.000
26.35651 126.000
26.37646 118.000
26.39640 131.000
26.41635 143.000
26.43630 149.000
26.45624 142.000
26.47619 116.000
26.49614 141.000
26.51608 133.000
26.53603 127.000
26.55598 122.000
26.57593 131.000
26.59587 142.000
26.61582 141.000
26.63577 135.000
26.65571 146.000
26.67566 139.000
26.69561 144.000
26.71555 155.000
26.73550 117.000
26.75545 131.000
26.77539 137.000
26.79534 137.000
26.81529 130.000
26.83524 136.000
26.85518 139.000
26.87513 152.000
26.89508 142.000
26.91502 160.000
26.93497 164.000
26.95492 156.000
26.97486 124.000
26.99481 113.000
27.01476 140.000
27.03471 142.000
27.05465 145.000
27.07460 149.000
27.09455 147.000
27.11449 123.000
27.13444 131.000
27.15439 148.000
27.17433 166.000
27.19428 133.000
27.21423 155.000
27.23417 149.000
27.25412 156.000
27.27407 118.000
27.29402 163.000
27.31396 130.000
27.33391 152.000
27.35386 140.000
27.37380 140.000
27.39375 150.000
27.41370 169.000
27.43364 155.000
27.45359 135.000
27.47354 144.000
27.49349 155.000
27.51343 113.000
27.53338 139.000
27.55333 147.000
27.57327 140.000
27.59322 143.000
27.61317 147.000
27.63311 152.000
27.65306 136.000
27.67301 154.000
27.69296 133.000
27.71290 143.000
27.73285 139.000
27.75280 179.000
27.77274 146.000
27.79269 152.000
27.81264 140.000
27.83258 150.000
27.85253 147.000
27.87248 149.000
27.89242 125.000
27.91237 126.000
27.93232 144.000
27.95227 154.000
27.97221 126.000
27.99216 160.000
28.01211 135.000
28.03205 133.000
28.05200 144.000
28.07195 142.000
28.09189 142.000
28.11184 139.000
28.13179 159.000
28.15174 142.000
28.17168 129.000
28.19163 161.000
28.21158 136.000
28.23152 169.000
28.25147 151.000
28.27142 154.000
28.29136 137.000
28.31131 151.000
28.33126 155.000
28.35120 157.000
28.37115 161.000
28.39110 132.000
28.41105 165.000
28.43099 158.000
28.45094 153.000
28.47089 162.000
28.49083 150.000
28.51078 151.000
28.53073 168.000
28.55067 136.000
28.57062 167.000
28.59057 137.000
28.61052 158.000
28.63046 151.000
28.65041 151.000
28.67036 165.000
28.69030 138.000
28.71025 148.000
28.73020 140.000
28.75014 149.000
28.77009 167.000
28.79004 155.000
28.80998 153.000
28.82993 149.000
28.84988 164.000
28.86983 144.000
28.88977 172.000
28.90972 132.000
28.92967 152.000
28.94961 145.000
28.96956 172.000
28.98951 150.000
29.00945 142.000
29.02940 151.000
29.04935 131.000
29.06930 129.000
29.08924 142.000
29.10919 156.000
29.12914 143.000
29.14908 131.000
29.16903 125.000
29.18898 145.000
29.20892 151.000
29.22887 151.000
29.24882 173.000
29.26877 156.000
29.28871 167.000
29.30866 178.000
29.32861 207.000
29.34855 178.000
29.36850 213.000
29.38845 207.000
29.40839 271.000
29.42834 273.000
29.44829 252.000
29.46823 244.000
29.48818 278.000
29.50813 279.000
29.52808 246.000
29.54802 267.000
29.56797 250.000
29.58792 216.000
29.60786 193.000
29.62781 170.000
29.64776 188.000
29.66770 139.000
29.68765 151.000
29.70760 165.000
29.72755 169.000
29.74749 167.000
29.76744 162.000
29.78739 167.000
29.80733 148.000
29.82728 150.000
29.84723 159.000
29.86717 158.000
29.88712 147.000
29.90707 162.000
29.92701 141.000
29.94696 137.000
29.96691 149.000
29.98686 136.000
30.00680 136.000
30.02675 142.000
30.04670 147.000
30.06664 161.000
30.08659 149.000
30.10654 158.000
30.12648 144.000
30.14643 156.000
30.16638 179.000
30.18633 172.000
30.20627 194.000
30.22622 202.000
30.24617 177.000
30.26611 191.000
30.28606 162.000
30.30601 187.000
30.32595 172.000
30.34590 143.000
30.36585 172.000
30.38579 173.000
30.40574 182.000
30.42569 217.000
30.44564 187.000
30.46558 192.000
30.48553 177.000
30.50548 164.000
30.52542 176.000
30.54537 154.000
30.56532 144.000
30.58526 161.000
30.60521 142.000
30.62516 152.000
30.64511 144.000
30.66505 172.000
30.68500 149.000
30.70495 160.000
30.72489 126.000
30.74484 160.000
30.76479 151.000
30.78473 160.000
30.80468 155.000
30.82463 150.000
30.84458 147.000
30.86452 160.000
30.88447 132.000
30.90442 161.000
30.92436 165.000
30.94431 161.000
30.96426 162.000
30.98420 183.000
31.00415 127.000
31.02410 152.000
31.04404 147.000
31.06399 147.000
31.08394 145.000
31.10389 160.000
31.12383 147.000
31.14378 160.000
31.16373 122.000
31.18367 159.000
31.20362 147.000
31.22357 151.000
31.24351 149.000
31.26346 140.000
31.28341 150.000
31.30336 128.000
31.32330 153.000
31.34325 159.000
31.36320 171.000
31.38314 177.000
31.40309 150.000
31.42304 145.000
31.44298 154.000
31.46293 140.000
31.48288 134.000
31.50282 164.000
31.52277 157.000
31.54272 170.000
31.56267 194.000
31.58261 153.000
31.60256 168.000
31.62251 157.000
31.64245 152.000
31.66240 183.000
31.68235 164.000
31.70229 153.000
31.72224 179.000
31.74219 159.000
31.76214 161.000
31.78208 151.000
31.80203 161.000
31.82198 169.000
31.84192 171.000
31.86187 166.000
31.88182 159.000
31.90176 178.000
31.92171 179.000
31.94166 206.000
31.96160 195.000
31.98155 201.000
32.00150 219.000
32.02145 240.000
32.04139 297.000
32.06134 311.000
32.08129 415.000
32.10123 433.000
32.12118 497.000
32.14113 546.000
32.16107 564.000
32.18102 596.000
32.20097 597.000
32.22092 593.000
32.24086 532.000
32.26081 497.000
32.28076 433.000
32.30070 435.000
32.32065 392.000
32.34060 345.000
32.36054 288.000
32.38049 284.000
32.40044 240.000
32.42039 235.000
32.44033 203.000
32.46028 204.000
32.48023 190.000
32.50017 182.000
32.52012 177.000
32.54007 195.000
32.56001 183.000
32.57996 203.000
32.59991 185.000
32.61985 198.000
32.63980 227.000
32.65975 202.000
32.67970 210.000
32.69964 194.000
32.71959 230.000
32.73954 245.000
32.75948 258.000
32.77943 260.000
32.79938 265.000
32.81932 255.000
32.83927 237.000
32.85922 228.000
32.87917 194.000
32.89911 194.000
32.91906 219.000
32.93901 188.000
32.95895 188.000
32.97890 201.000
32.99885 201.000
33.01879 189.000
33.03874 187.000
33.05869 175.000
33.07863 171.000
33.09858 151.000
33.11853 158.000
33.13848 162.000
33.15842 178.000
33.17837 174.000
33.19832 182.000
33.21826 161.000
33.23821 179.000
33.25816 156.000
33.27810 156.000
33.29805 158.000
33.31800 152.000
33.33795 142.000
33.35789 152.000
33.37784 170.000
33.39779 142.000
33.41773 152.000
33.43768 150.000
33.45763 150.000
33.47757 141.000
33.49752 173.000
33.51747 175.000
33.53741 159.000
33.55736 138.000
33.57731 156.000
33.59726 140.000
33.61720 144.000
33.63715 132.000
33.65710 155.000
33.67704 196.000
33.69699 170.000
33.71694 147.000
33.73688 157.000
33.75683 153.000
33.77678 144.000
33.79673 162.000
33.81667 135.000
33.83662 146.000
33.85657 163.000
33.87651 171.000
33.89646 158.000
33.91641 166.000
33.93635 172.000
33.95630 152.000
33.97625 146.000
33.99620 161.000
34.01614 151.000
34.03609 167.000
34.05604 162.000
34.07598 171.000
34.09593 163.000
34.11588 159.000
34.13582 165.000
34.15577 160.000
34.17572 179.000
34.19566 161.000
34.21561 178.000
34.23556 177.000
34.25551 183.000
34.27545 201.000
34.29540 182.000
34.31535 184.000
34.33529 215.000
34.35524 210.000
34.37519 179.000
34.39513 200.000
34.41508 210.000
34.43503 221.000
34.45498 231.000
34.47492 228.000
34.49487 287.000
34.51482 244.000
34.53476 246.000
34.55471 261.000
34.57466 250.000
34.59460 292.000
34.61455 302.000
34.63450 287.000
34.65444 305.000
34.67439 316.000
34.69434 293.000
34.71429 309.000
34.73423 336.000
34.75418 309.000
34.77413 304.000
34.79407 319.000
34.81402 313.000
34.83397 310.000
34.85391 335.000
34.87386 278.000
34.89381 346.000
34.91376 305.000
34.93370 303.000
34.95365 280.000
34.97360 299.000
34.99354 285.000
35.01349 261.000
35.03344 254.000
35.05338 225.000
35.07333 183.000
35.09328 204.000
35.11322 179.000
35.13317 187.000
35.15312 191.000
35.17307 209.000
35.19301 209.000
35.21296 175.000
35.23291 177.000
35.25285 191.000
35.27280 197.000
35.29275 184.000
35.31269 221.000
35.33264 207.000
35.35259 216.000
35.37254 228.000
35.39248 244.000
35.41243 236.000
35.43238 214.000
35.45232 255.000
35.47227 247.000
35.49222 250.000
35.51216 262.000
35.53211 274.000
35.55206 284.000
35.57201 281.000
35.59195 316.000
35.61190 316.000
35.63185 329.000
35.65179 364.000
35.67174 415.000
35.69169 433.000
35.71163 472.000
35.73158 555.000
35.75153 540.000
35.77147 628.000
35.79142 743.000
35.81137 772.000
35.83132 828.000
35.85126 792.000
35.87121 893.000
35.89116 891.000
35.91110 829.000
35.93105 765.000
35.95100 791.000
35.97094 660.000
35.99089 585.000
36.01084 539.000
36.03079 512.000
36.05073 432.000
36.07068 385.000
36.09063 350.000
36.11057 310.000
36.13052 284.000
36.15047 258.000
36.17041 255.000
36.19036 210.000
36.21031 230.000
36.23025 213.000
36.25020 250.000
36.27015 255.000
36.29010 234.000
36.31004 229.000
36.32999 242.000
36.34994 225.000
36.36988 207.000
36.38983 239.000
36.40978 244.000
36.42972 220.000
36.44967 212.000
36.46962 221.000
36.48957 222.000
36.50951 203.000
36.52946 203.000
36.54941 233.000
36.56935 236.000
36.58930 213.000
36.60925 224.000
36.62919 210.000
36.64914 211.000
36.66909 207.000
36.68903 243.000
36.70898 268.000
36.72893 249.000
36.74888 258.000
36.76882 269.000
36.78877 277.000
36.80872 296.000
36.82866 267.000
36.84861 266.000
36.86856 315.000
36.88850 297.000
36.90845 320.000
36.92840 326.000
36.94835 359.000
36.96829 401.000
36.98824 447.000
37.00819 466.000
37.02813 593.000
37.04808 679.000
37.06803 760.000
37.08797 841.000
37.10792 928.000
37.12787 1050.000
37.14781 1095.000
37.16776 1131.000
37.18771 1128.000
37.20766 1155.000
37.22760 1132.000
37.24755 1160.000
37.26750 1050.000
37.28744 930.000
37.30739 838.000
37.32734 752.000
37.34728 659.000
37.36723 544.000
37.38718 481.000
37.40713 473.000
37.42707 425.000
37.44702 378.000
37.46697 366.000
37.48691 309.000
37.50686 300.000
37.52681 257.000
37.54675 252.000
37.56670 262.000
37.58665 263.000
37.60660 268.000
37.62654 231.000
37.64649 221.000
37.66644 225.000
37.68638 203.000
37.70633 190.000
37.72628 196.000
37.74622 226.000
37.76617 210.000
37.78612 216.000
37.80606 157.000
37.82601 167.000
37.84596 192.000
37.86591 188.000
37.88585 189.000
37.90580 187.000
37.92575 162.000
37.94569 184.000
37.96564 160.000
37.98559 182.000
38.00553 235.000
38.02548 191.000
38.04543 194.000
38.06538 207.000
38.08532 169.000
38.10527 193.000
38.12522 172.000
38.14516 202.000
38.16511 179.000
38.18506 183.000
38.20500 189.000
38.22495 186.000
38.24490 183.000
38.26484 180.000
38.28479 190.000
38.30474 185.000
38.32469 175.000
38.34463 172.000
38.36458 202.000
38.38453 202.000
38.40447 189.000
38.42442 164.000
38.44437 181.000
38.46431 193.000
38.48426 211.000
38.50421 168.000
38.52416 209.000
38.54410 193.000
38.56405 186.000
38.58400 195.000
38.60394 219.000
38.62389 200.000
38.64384 226.000
38.66378 210.000
38.68373 219.000
38.70368 233.000
38.72362 262.000
38.74357 234.000
38.76352 251.000
38.78347 267.000
38.80341 253.000
38.82336 253.000
38.84331 280.000
38.86325 252.000
38.88320 259.000
38.90315 277.000
38.92309 262.000
38.94304 257.000
38.96299 225.000
38.98294 269.000
39.00288 265.000
39.02283 242.000
39.04278 280.000
39.06272 264.000
39.08267 271.000
39.10262 286.000
39.12256 253.000
39.14251 251.000
39.16246 262.000
39.18241 284.000
39.20235 294.000
39.22230 300.000
39.24225 346.000
39.26219 367.000
39.28214 398.000
39.30209 454.000
39.32203 561.000
39.34198 732.000
39.36193 802.000
39.38187 973.000
39.40182 1087.000
39.42177 1062.000
39.44172 1203.000
39.46166 1217.000
39.48161 1198.000
39.50156 1092.000
39.52150 1127.000
39.54145 1000.000
39.56140 939.000
39.58134 722.000
39.60129 674.000
39.62124 566.000
39.64119 534.000
39.66113 403.000
39.68108 417.000
39.70103 348.000
39.72097 272.000
39.74092 264.000
39.76087 255.000
39.78081 250.000
39.80076 213.000
39.82071 198.000
39.84065 232.000
39.86060 229.000
39.88055 194.000
39.90050 201.000
39.92044 206.000
39.94039 183.000
39.96034 199.000
39.98028 204.000
40.00023 183.000
40.02018 192.000
40.04012 184.000
40.06007 170.000
40.08002 202.000
40.09997 210.000
40.11991 158.000
40.13986 183.000
40.15981 196.000
40.17975 136.000
40.19970 165.000
40.21965 171.000
40.23959 189.000
40.25954 183.000
40.27949 186.000
40.29943 174.000
40.31938 193.000
40.33933 197.000
40.35928 170.000
40.37922 156.000
40.39917 177.000
40.41912 145.000
40.43906 185.000
40.45901 177.000
40.47896 175.000
40.49890 181.000
40.51885 182.000
40.53880 162.000
40.55875 156.000
40.57869 164.000
40.59864 188.000
40.61859 178.000
40.63853 173.000
40.65848 171.000
40.67843 185.000
40.69837 171.000
40.71832 156.000
40.73827 156.000
40.75822 155.000
40.77816 171.000
40.79811 169.000
40.81806 166.000
40.83800 164.000
40.85795 151.000
40.87790 194.000
40.89784 152.000
40.91779 183.000
40.93774 153.000
40.95768 169.000
40.97763 170.000
40.99758 172.000
41.01753 174.000
41.03747 174.000
41.05742 184.000
41.07737 176.000
41.09731 166.000
41.11726 165.000
41.13721 160.000
41.15715 174.000
41.17710 176.000
41.19705 181.000
41.21700 179.000
41.23694 167.000
41.25689 170.000
41.27684 203.000
41.29678 186.000
41.31673 204.000
41.33668 190.000
41.35662 190.000
41.37657 196.000
41.39652 182.000
41.41646 214.000
41.43641 189.000
41.45636 207.000
41.47631 199.000
41.49625 192.000
41.51620 190.000
41.53615 224.000
41.55609 216.000
41.57604 221.000
41.59599 253.000
41.61593 222.000
41.63588 244.000
41.65583 264.000
41.67578 245.000
41.69572 267.000
41.71567 250.000
41.73562 276.000
41.75556 295.000
41.77551 318.000
41.79546 367.000
41.81540 374.000
41.83535 443.000
41.85530 527.000
41.87524 509.000
41.89519 619.000
41.91514 700.000
41.93509 724.000
41.95503 723.000
41.97498 803.000
41.99493 751.000
42.01487 692.000
42.03482 624.000
42.05477 580.000
42.07471 549.000
42.09466 492.000
42.11461 380.000
42.13456 338.000
42.15450 333.000
42.17445 304.000
42.19440 288.000
42.21434 233.000
42.23429 247.000
42.25424 245.000
42.27418 225.000
42.29413 204.000
42.31408 228.000
42.33403 226.000
42.35397 206.000
42.37392 229.000
42.39387 212.000
42.41381 197.000
42.43376 247.000
42.45371 236.000
42.47365 230.000
42.49360 223.000
42.51355 199.000
42.53349 189.000
42.55344 206.000
42.57339 218.000
42.59334 246.000
42.61328 233.000
42.63323 235.000
42.65318 214.000
42.67312 234.000
42.69307 236.000
42.71302 268.000
42.73296 271.000
42.75291 250.000
42.77286 250.000
42.79281 261.000
42.81275 280.000
42.83270 275.000
42.85265 304.000
42.87259 344.000
42.89254 420.000
42.91249 380.000
42.93243 373.000
42.95238 454.000
42.97233 523.000
42.99227 567.000
43.01222 552.000
43.03217 647.000
43.05212 738.000
43.07206 798.000
43.09201 881.000
43.11196 966.000
43.13190 1036.000
43.15185 1037.000
43.17180 1104.000
43.19174 1132.000
43.21169 1145.000
43.23164 1127.000
43.25159 1120.000
43.27153 1117.000
43.29148 1139.000
43.31143 1072.000
43.33137 1034.000
43.35132 939.000
43.37127 846.000
43.39121 804.000
43.41116 801.000
43.43111 718.000
43.45105 675.000
43.47100 684.000
43.49095 683.000
43.51090 684.000
43.53084 681.000
43.55079 686.000
43.57074 685.000
43.59068 665.000
43.61063 685.000
43.63058 617.000
43.65052 609.000
43.67047 524.000
43.69042 567.000
43.71037 474.000
43.73031 421.000
43.75026 405.000
43.77021 358.000
43.79015 317.000
43.81010 271.000
43.83005 254.000
43.84999 231.000
43.86994 230.000
43.88989 242.000
43.90984 221.000
43.92978 225.000
43.94973 179.000
43.96968 196.000
43.98962 182.000
44.00957 184.000
44.02952 197.000
44.04946 203.000
44.06941 192.000
44.08936 173.000
44.10930 175.000
44.12925 195.000
44.14920 166.000
44.16915 179.000
44.18909 197.000
44.20904 180.000
44.22899 181.000
44.24893 176.000
44.26888 186.000
44.28883 187.000
44.30877 153.000
44.32872 175.000
44.34867 184.000
44.36862 179.000
44.38856 175.000
44.40851 176.000
44.42846 174.000
44.44840 179.000
44.46835 163.000
44.48830 194.000
44.50824 176.000
44.52819 163.000
44.54814 185.000
44.56808 188.000
44.58803 166.000
44.60798 167.000
44.62793 187.000
44.64787 186.000
44.66782 181.000
44.68777 177.000
44.70771 195.000
44.72766 193.000
44.74761 209.000
44.76755 197.000
44.78750 196.000
44.80745 182.000
44.82740 175.000
44.84734 212.000
44.86729 173.000
44.88724 193.000
44.90718 188.000
44.92713 169.000
44.94708 182.000
44.96702 202.000
44.98697 205.000
45.00692 183.000
45.02686 181.000
45.04681 201.000
45.06676 197.000
45.08671 215.000
45.10665 220.000
45.12660 236.000
45.14655 225.000
45.16649 225.000
45.18644 220.000
45.20639 218.000
45.22633 226.000
45.24628 227.000
45.26623 210.000
45.28618 215.000
45.30612 229.000
45.32607 207.000
45.34602 216.000
45.36596 222.000
45.38591 227.000
45.40586 227.000
45.42580 206.000
45.44575 212.000
45.46570 208.000
45.48565 175.000
45.50559 191.000
45.52554 193.000
45.54549 185.000
45.56543 162.000
45.58538 175.000
45.60533 178.000
45.62527 190.000
45.64522 145.000
45.66517 193.000
45.68511 193.000
45.70506 140.000
45.72501 143.000
45.74496 151.000
45.76490 164.000
45.78485 187.000
45.80480 181.000
45.82474 181.000
45.84469 170.000
45.86464 160.000
45.88458 139.000
45.90453 177.000
45.92448 151.000
45.94443 172.000
45.96437 162.000
45.98432 189.000
46.00427 160.000
46.02421 170.000
46.04416 121.000
46.06411 147.000
46.08405 162.000
46.10400 128.000
46.12395 179.000
46.14389 160.000
46.16384 135.000
46.18379 162.000
46.20374 131.000
46.22368 136.000
46.24363 173.000
46.26358 165.000
46.28352 165.000
46.30347 166.000
46.32342 164.000
46.34336 150.000
46.36331 148.000
46.38326 175.000
46.40321 152.000
46.42315 161.000
46.44310 149.000
46.46305 165.000
46.48299 167.000
46.50294 158.000
46.52289 149.000
46.54283 179.000
46.56278 178.000
46.58273 165.000
46.60267 160.000
46.62262 155.000
46.64257 158.000
46.66252 154.000
46.68246 153.000
46.70241 157.000
46.72236 145.000
46.74230 159.000
46.76225 150.000
46.78220 166.000
46.80214 186.000
46.82209 164.000
46.84204 141.000
46.86199 148.000
46.88193 160.000
46.90188 150.000
46.92183 144.000
46.94177 165.000
46.96172 167.000
46.98167 191.000
47.00161 165.000
47.02156 145.000
47.04151 168.000
47.06146 154.000
47.08140 155.000
47.10135 178.000
47.12130 148.000
47.14124 182.000
47.16119 157.000
47.18114 170.000
47.20108 143.000
47.22103 173.000
47.24098 152.000
47.26092 149.000
47.28087 167.000
47.30082 148.000
47.32077 176.000
47.34071 156.000
47.36066 147.000
47.38061 163.000
47.40055 172.000
47.42050 166.000
47.44045 167.000
47.46039 187.000
47.48034 164.000
47.50029 142.000
47.52024 138.000
47.54018 128.000
47.56013 175.000
47.58008 144.000
47.60002 152.000
47.61997 170.000
47.63992 153.000
47.65986 138.000
47.67981 160.000
47.69976 176.000
47.71970 161.000
47.73965 163.000
47.75960 165.000
47.77955 139.000
47.79949 160.000
47.81944 163.000
47.83939 153.000
47.85933 182.000
47.87928 159.000
47.89923 150.000
47.91917 181.000
47.93912 206.000
47.95907 200.000
47.97902 170.000
47.99896 182.000
48.01891 195.000
48.03886 187.000
48.05880 158.000
48.07875 206.000
48.09870 199.000
48.11864 180.000
48.13859 207.000
48.15854 190.000
48.17848 225.000
48.19843 192.000
48.21838 212.000
48.23833 187.000
48.25827 193.000
48.27822 188.000
48.29817 207.000
48.31811 206.000
48.33806 190.000
48.35801 197.000
48.37795 197.000
48.39790 218.000
48.41785 187.000
48.43780 178.000
48.45774 216.000
48.47769 214.000
48.49764 196.000
48.51758 196.000
48.53753 231.000
48.55748 177.000
48.57742 199.000
48.59737 246.000
48.61732 252.000
48.63726 292.000
48.65721 282.000
48.67716 322.000
48.69711 294.000
48.71705 369.000
48.73700 446.000
48.75695 514.000
48.77689 610.000
48.79684 707.000
48.81679 819.000
48.83673 951.000
48.85668 1066.000
48.87663 1068.000
48.89658 1118.000
48.91652 1080.000
48.93647 1097.000
48.95642 1084.000
48.97636 1021.000
48.99631 883.000
49.01626 819.000
49.03620 766.000
49.05615 655.000
49.07610 597.000
49.09605 552.000
49.11599 475.000
49.13594 353.000
49.15589 368.000
49.17583 311.000
49.19578 272.000
49.21573 258.000
49.23567 238.000
49.25562 236.000
49.27557 209.000
49.29551 213.000
49.31546 192.000
49.33541 210.000
49.35536 188.000
49.37530 239.000
49.39525 202.000
49.41520 211.000
49.43514 184.000
49.45509 193.000
49.47504 187.000
49.49498 188.000
49.51493 176.000
49.53488 183.000
49.55483 199.000
49.57477 202.000
49.59472 178.000
49.61467 202.000
49.63461 187.000
49.65456 167.000
49.67451 199.000
49.69445 183.000
49.71440 156.000
49.73435 193.000
49.75429 178.000
49.77424 191.000
49.79419 201.000
49.81414 198.000
49.83408 211.000
49.85403 196.000
49.87398 178.000
49.89392 176.000
49.91387 180.000
49.93382 154.000
49.95376 184.000
49.97371 151.000
49.99366 150.000
50.01361 191.000
50.03355 154.000
50.05350 172.000
50.07345 151.000
50.09339 179.000
50.11334 165.000
50.13329 182.000
50.15323 159.000
50.17318 173.000
50.19313 172.000
50.21307 139.000
50.23302 152.000
50.25297 144.000
50.27292 174.000
50.29286 150.000
50.31281 151.000
50.33276 185.000
50.35270 155.000
50.37265 167.000
50.39260 181.000
50.41254 142.000
50.43249 155.000
50.45244 169.000
50.47239 159.000
50.49233 164.000
50.51228 165.000
50.53223 176.000
50.55217 166.000
50.57212 175.000
50.59207 175.000
50.61201 169.000
50.63196 164.000
50.65191 167.000
50.67186 150.000
50.69180 151.000
50.71175 142.000
50.73170 147.000
50.75164 163.000
50.77159 149.000
50.79154 153.000
50.81148 148.000
50.83143 173.000
50.85138 158.000
50.87132 150.000
50.89127 159.000
50.91122 153.000
50.93117 169.000
50.95111 158.000
50.97106 184.000
50.99101 137.000
51.01095 146.000
51.03090 148.000
51.05085 139.000
51.07079 150.000
51.09074 151.000
51.11069 166.000
51.13064 161.000
51.15058 170.000
51.17053 142.000
51.19048 146.000
51.21042 151.000
51.23037 163.000
51.25032 140.000
51.27026 164.000
51.29021 166.000
51.31016 156.000
51.33010 146.000
51.35005 152.000
51.37000 180.000
51.38995 150.000
51.40989 146.000
51.42984 174.000
51.44979 152.000
51.46973 162.000
51.48968 130.000
51.50963 170.000
51.52957 171.000
51.54952 149.000
51.56947 151.000
51.58942 169.000
51.60936 161.000
51.62931 146.000
51.64926 158.000
51.66920 157.000
51.68915 158.000
51.70910 166.000
51.72904 166.000
51.74899 127.000
51.76894 137.000
51.78888 163.000
51.80883 165.000
51.82878 143.000
51.84873 154.000
51.86867 145.000
51.88862 140.000
51.90857 155.000
51.92851 162.000
51.94846 157.000
51.96841 172.000
51.98835 162.000
52.00830 176.000
52.02825 162.000
52.04820 158.000
52.06814 190.000
52.08809 172.000
52.10804 173.000
52.12798 188.000
52.14793 212.000
52.16788 196.000
52.18782 192.000
52.20777 204.000
52.22772 170.000
52.24767 181.000
52.26761 202.000
52.28756 213.000
52.30751 194.000
52.32745 184.000
52.34740 184.000
52.36735 191.000
52.38729 208.000
52.40724 189.000
52.42719 156.000
52.44713 164.000
52.46708 172.000
52.48703 161.000
52.50698 175.000
52.52692 148.000
52.54687 170.000
52.56682 157.000
52.58676 158.000
52.60671 167.000
52.62666 171.000
52.64660 158.000
52.66655 185.000
52.68650 152.000
52.70645 145.000
52.72639 165.000
52.74634 182.000
52.76629 174.000
52.78623 147.000
52.80618 151.000
52.82613 179.000
52.84607 183.000
52.86602 163.000
52.88597 189.000
52.90591 186.000
52.92586 166.000
52.94581 182.000
52.96576 179.000
52.98570 176.000
53.00565 182.000
53.02560 175.000
53.04554 185.000
53.06549 178.000
53.08544 197.000
53.10538 191.000
53.12533 209.000
53.14528 190.000
53.16523 204.000
53.18517 220.000
53.20512 222.000
53.22507 203.000
53.24501 212.000
53.26496 214.000
53.28491 254.000
53.30485 240.000
53.32480 237.000
53.34475 259.000
53.36469 245.000
53.38464 199.000
53.40459 236.000
53.42454 214.000
53.44448 222.000
53.46443 213.000
53.48438 184.000
53.50432 188.000
53.52427 204.000
53.54422 202.000
53.56416 164.000
53.58411 188.000
53.60406 183.000
53.62401 171.000
53.64395 173.000
53.66390 158.000
53.68385 163.000
53.70379 171.000
53.72374 150.000
53.74369 173.000
53.76363 188.000
53.78358 159.000
53.80353 173.000
53.82348 166.000
53.84342 145.000
53.86337 161.000
53.88332 161.000
53.90326 149.000
53.92321 170.000
53.94316 155.000
53.96310 172.000
53.98305 157.000
54.00300 157.000
54.02294 160.000
54.04289 164.000
54.06284 144.000
54.08279 177.000
54.10273 160.000
54.12268 168.000
54.14263 136.000
54.16257 139.000
54.18252 153.000
54.20247 167.000
54.22241 155.000
54.24236 174.000
54.26231 152.000
54.28226 155.000
54.30220 162.000
54.32215 158.000
54.34210 158.000
54.36204 156.000
54.38199 151.000
54.40194 172.000
54.42188 170.000
54.44183 133.000
54.46178 150.000
54.48172 158.000
54.50167 163.000
54.52162 152.000
54.54157 142.000
54.56151 155.000
54.58146 164.000
54.60141 176.000
54.62135 159.000
54.64130 182.000
54.66125 165.000
54.68119 147.000
54.70114 157.000
54.72109 160.000
54.74104 180.000
54.76098 154.000
54.78093 164.000
54.80088 133.000
54.82082 172.000
54.84077 172.000
54.86072 162.000
54.88066 131.000
54.90061 142.000
54.92056 176.000
54.94050 143.000
54.96045 146.000
54.98040 180.000
55.00035 162.000
55.02029 138.000
55.04024 151.000
55.06019 143.000
55.08013 163.000
55.10008 162.000
55.12003 153.000
55.13997 170.000
55.15992 141.000
55.17987 139.000
55.19982 142.000
55.21976 181.000
55.23971 152.000
55.25966 171.000
55.27960 151.000
55.29955 137.000
55.31950 166.000
55.33944 166.000
55.35939 178.000
55.37934 156.000
55.39929 132.000
55.41923 156.000
55.43918 172.000
55.45913 164.000
55.47907 153.000
55.49902 133.000
55.51897 162.000
55.53891 165.000
55.55886 197.000
55.57881 134.000
55.59875 154.000
55.61870 182.000
55.63865 166.000
55.65860 135.000
55.67854 152.000
55.69849 163.000
55.71844 173.000
55.73838 148.000
55.75833 167.000
55.77828 159.000
55.79822 184.000
55.81817 129.000
55.83812 161.000
55.85807 160.000
55.87801 164.000
55.89796 163.000
55.91791 164.000
55.93785 137.000
55.95780 170.000
55.97775 143.000
55.99769 173.000
56.01764 176.000
56.03759 164.000
56.05753 152.000
56.07748 153.000
56.09743 173.000
56.11738 155.000
56.13732 157.000
56.15727 143.000
56.17722 138.000
56.19716 150.000
56.21711 169.000
56.23706 156.000
56.25700 154.000
56.27695 152.000
56.29690 167.000
56.31685 146.000
56.33679 159.000
56.35674 154.000
56.37669 149.000
56.39663 162.000
56.41658 159.000
56.43653 164.000
56.45647 151.000
56.47642 146.000
56.49637 181.000
56.51631 159.000
56.53626 171.000
56.55621 148.000
56.57616 162.000
56.59610 160.000
56.61605 169.000
56.63600 143.000
56.65594 166.000
56.67589 156.000
56.69584 167.000
56.71578 165.000
56.73573 161.000
56.75568 162.000
56.77563 156.000
56.79557 147.000
56.81552 171.000
56.83547 149.000
56.85541 162.000
56.87536 162.000
56.89531 175.000
56.91525 176.000
56.93520 157.000
56.95515 149.000
56.97510 175.000
56.99504 184.000
57.01499 176.000
57.03494 156.000
57.05488 185.000
57.07483 174.000
57.09478 161.000
57.11472 142.000
57.13467 156.000
57.15462 177.000
57.17456 176.000
57.19451 153.000
57.21446 156.000
57.23441 184.000
57.25435 176.000
57.27430 185.000
57.29425 183.000
57.31419 219.000
57.33414 179.000
57.35409 189.000
57.37403 194.000
57.39398 187.000
57.41393 201.000
57.43388 190.000
57.45382 206.000
57.47377 212.000
57.49372 225.000
57.51366 187.000
57.53361 197.000
57.55356 210.000
57.57350 219.000
57.59345 217.000
57.61340 203.000
57.63334 195.000
57.65329 235.000
57.67324 173.000
57.69319 226.000
57.71313 209.000
57.73308 206.000
57.75303 196.000
57.77297 218.000
57.79292 253.000
57.81287 215.000
57.83281 270.000
57.85276 261.000
57.87271 267.000
57.89266 248.000
57.91260 233.000
57.93255 235.000
57.95250 237.000
57.97244 250.000
57.99239 248.000
58.01234 256.000
58.03228 230.000
58.05223 223.000
58.07218 240.000
58.09212 214.000
58.11207 203.000
58.13202 191.000
58.15197 186.000
58.17191 215.000
58.19186 162.000
58.21181 152.000
58.23175 183.000
58.25170 181.000
58.27165 183.000
58.29159 196.000
58.31154 164.000
58.33149 204.000
58.35144 180.000
58.37138 166.000
58.39133 191.000
58.41128 172.000
58.43122 163.000
58.45117 172.000
58.47112 156.000
58.49106 187.000
58.51101 184.000
58.53096 158.000
58.55090 174.000
58.57085 168.000
58.59080 145.000
58.61075 136.000
58.63069 155.000
58.65064 176.000
58.67059 162.000
58.69053 164.000
58.71048 196.000
58.73043 157.000
58.75037 168.000
58.77032 185.000
58.79027 165.000
58.81022 161.000
58.83016 151.000
58.85011 152.000
58.87006 154.000
58.89000 144.000
58.90995 131.000
58.92990 141.000
58.94984 149.000
58.96979 183.000
58.98974 164.000
59.00969 144.000
59.02963 150.000
59.04958 155.000
59.06953 152.000
59.08947 157.000
59.10942 151.000
59.12937 156.000
59.14931 167.000
59.16926 169.000
59.18921 149.000
59.20915 143.000
59.22910 152.000
59.24905 159.000
59.26900 155.000
59.28894 157.000
59.30889 161.000
59.32884 166.000
59.34878 147.000
59.36873 170.000
59.38868 165.000
59.40862 136.000
59.42857 154.000
59.44852 166.000
59.46847 155.000
59.48841 146.000
59.50836 180.000
59.52831 181.000
59.54825 154.000
59.56820 182.000
59.58815 135.000
59.60809 146.000
59.62804 144.000
59.64799 146.000
59.66793 152.000
59.68788 157.000
59.70783 148.000
59.72778 170.000
59.74772 158.000
59.76767 167.000
59.78762 161.000
59.80756 161.000
59.82751 179.000
59.84746 180.000
59.86740 158.000
59.88735 163.000
59.90730 137.000
59.92725 168.000
59.94719 172.000
59.96714 171.000
59.98709 155.000
60.00703 156.000
60.02698 183.000
60.04693 161.000
60.06687 151.000
60.08682 156.000
60.10677 156.000
60.12671 140.000
60.14666 152.000
60.16661 180.000
60.18656 154.000
60.20650 133.000
60.22645 157.000
60.24640 147.000
60.26634 168.000
60.28629 155.000
60.30624 176.000
60.32618 135.000
60.34613 172.000
60.36608 160.000
60.38603 151.000
60.40597 172.000
60.42592 170.000
60.44587 166.000
60.46581 147.000
60.48576 168.000
60.50571 163.000
60.52565 168.000
60.54560 174.000
60.56555 145.000
60.58550 168.000
60.60544 172.000
60.62539 145.000
60.64534 174.000
60.66528 188.000
60.68523 182.000
60.70518 172.000
60.72512 174.000
60.74507 166.000
60.76502 191.000
60.78496 162.000
60.80491 148.000
60.82486 168.000
60.84481 165.000
60.86475 173.000
60.88470 158.000
60.90465 168.000
60.92459 166.000
60.94454 142.000
60.96449 178.000
60.98443 161.000
61.00438 167.000
61.02433 182.000
61.04428 180.000
61.06422 174.000
61.08417 156.000
61.10412 162.000
61.12406 160.000
61.14401 171.000
61.16396 157.000
61.18390 169.000
61.20385 151.000
61.22380 185.000
61.24374 169.000
61.26369 150.000
61.28364 184.000
61.30359 176.000
61.32353 167.000
61.34348 169.000
61.36343 180.000
61.38337 173.000
61.40332 177.000
61.42327 163.000
61.44321 161.000
61.46316 184.000
61.48311 212.000
61.50306 172.000
61.52300 165.000
61.54295 224.000
61.56290 167.000
61.58284 196.000
61.60279 205.000
61.62274 207.000
61.64268 182.000
61.66263 201.000
61.68258 214.000
61.70252 205.000
61.72247 205.000
61.74242 209.000
61.76237 224.000
61.78231 201.000
61.80226 230.000
61.82221 222.000
61.84215 201.000
61.86210 221.000
61.88205 224.000
61.90199 228.000
61.92194 253.000
61.94189 276.000
61.96184 277.000
61.98178 269.000
62.00173 297.000
62.02168 329.000
62.04162 348.000
62.06157 379.000
62.08152 449.000
62.10146 447.000
62.12141 493.000
62.14136 502.000
62.16131 540.000
62.18125 556.000
62.20120 575.000
62.22115 532.000
62.24109 559.000
62.26104 571.000
62.28099 544.000
62.30093 555.000
62.32088 592.000
62.34083 586.000
62.36077 631.000
62.38072 551.000
62.40067 530.000
62.42062 496.000
62.44056 534.000
62.46051 487.000
62.48046 502.000
62.50040 510.000
62.52035 539.000
62.54030 555.000
62.56024 559.000
62.58019 561.000
62.60014 515.000
62.62009 578.000
62.64003 596.000
62.65998 576.000
62.67993 582.000
62.69987 591.000
62.71982 590.000
62.73977 594.000
62.75971 617.000
62.77966 606.000
62.79961 581.000
62.81955 496.000
62.83950 496.000
62.85945 517.000
62.87940 472.000
62.89934 453.000
62.91929 430.000
62.93924 451.000
62.95918 380.000
62.97913 363.000
62.99908 365.000
63.01902 332.000
63.03897 321.000
63.05892 314.000
63.07887 321.000
63.09881 292.000
63.11876 244.000
63.13871 252.000
63.15865 234.000
63.17860 262.000
63.19855 233.000
63.21849 220.000
63.23844 256.000
63.25839 233.000
63.27833 214.000
63.29828 246.000
63.31823 226.000
63.33818 215.000
63.35812 200.000
63.37807 219.000
63.39802 217.000
63.41796 206.000
63.43791 228.000
63.45786 212.000
63.47780 213.000
63.49775 272.000
63.51770 225.000
63.53765 222.000
63.55759 257.000
63.57754 236.000
63.59749 246.000
63.61743 265.000
63.63738 259.000
63.65733 248.000
63.67727 269.000
63.69722 253.000
63.71717 254.000
63.73712 255.000
63.75706 260.000
63.77701 238.000
63.79696 218.000
63.81690 230.000
63.83685 237.000
63.85680 223.000
63.87674 221.000
63.89669 209.000
63.91664 212.000
63.93658 215.000
63.95653 206.000
63.97648 198.000
63.99643 186.000
64.01637 263.000
64.03632 215.000
64.05627 242.000
64.07621 237.000
64.09616 278.000
64.11611 271.000
64.13605 284.000
64.15600 316.000
64.17595 355.000
64.19590 338.000
64.21584 363.000
64.23579 369.000
64.25574 407.000
64.27568 406.000
64.29563 372.000
64.31558 434.000
64.33552 395.000
64.35547 393.000
64.37542 422.000
64.39536 409.000
64.41531 400.000
64.43526 403.000
64.45521 397.000
64.47515 395.000
64.49510 364.000
64.51505 343.000
64.53499 332.000
64.55494 340.000
64.57489 270.000
64.59483 321.000
64.61478 269.000
64.63473 301.000
64.65468 210.000
64.67462 252.000
64.69457 247.000
64.71452 248.000
64.73446 227.000
64.75441 212.000
64.77436 203.000
64.79430 210.000
64.81425 193.000
64.83420 201.000
64.85414 169.000
64.87409 184.000
64.89404 186.000
64.91399 170.000
64.93393 186.000
64.95388 190.000
64.97383 159.000
64.99377 155.000
65.01372 178.000
65.03367 180.000
65.05361 156.000
65.07356 165.000
65.09351 185.000
65.11346 162.000
65.13340 172.000
65.15335 160.000
65.17330 188.000
65.19324 143.000
65.21319 200.000
65.23314 178.000
65.25308 165.000
65.27303 180.000
65.29298 181.000
65.31293 166.000
65.33287 169.000
65.35282 170.000
65.37277 165.000
65.39271 175.000
65.41266 185.000
65.43261 171.000
65.45255 195.000
65.47250 208.000
65.49245 179.000
65.51239 181.000
65.53234 187.000
65.55229 168.000
65.57224 210.000
65.59218 162.000
65.61213 186.000
65.63208 166.000
65.65202 216.000
65.67197 196.000
65.69192 197.000
65.71186 211.000
65.73181 195.000
65.75176 207.000
65.77171 199.000
65.79165 193.000
65.81160 215.000
65.83155 225.000
65.85149 206.000
65.87144 225.000
65.89139 173.000
65.91133 214.000
65.93128 229.000
65.95123 241.000
65.97117 216.000
65.99112 212.000
66.01107 187.000
66.03102 223.000
66.05096 217.000
66.07091 216.000
66.09086 240.000
66.11080 233.000
66.13075 223.000
66.15070 227.000
66.17064 238.000
66.19059 243.000
66.21054 207.000
66.23049 236.000
66.25043 221.000
66.27038 225.000
66.29033 217.000
66.31027 235.000
66.33022 197.000
66.35017 223.000
66.37011 207.000
66.39006 233.000
66.41001 216.000
66.42995 243.000
66.44990 217.000
66.46985 227.000
66.48980 248.000
66.50974 236.000
66.52969 219.000
66.54964 247.000
66.56958 254.000
66.58953 283.000
66.60948 292.000
66.62942 285.000
66.64937 283.000
66.66932 315.000
66.68927 309.000
66.70921 310.000
66.72916 323.000
66.74911 306.000
66.76905 307.000
66.78900 308.000
66.80895 342.000
66.82889 326.000
66.84884 315.000
66.86879 328.000
66.88874 292.000
66.90868 303.000
66.92863 340.000
66.94858 307.000
66.96852 299.000
66.98847 275.000
67.00842 267.000
67.02836 270.000
67.04831 283.000
67.06826 258.000
67.08820 255.000
67.10815 251.000
67.12810 245.000
67.14805 244.000
67.16799 241.000
67.18794 270.000
67.20789 227.000
67.22783 235.000
67.24778 227.000
67.26773 246.000
67.28767 232.000
67.30762 197.000
67.32757 223.000
67.34752 208.000
67.36746 245.000
67.38741 226.000
67.40736 200.000
67.42730 201.000
67.44725 189.000
67.46720 201.000
67.48714 193.000
67.50709 173.000
67.52704 190.000
67.54698 179.000
67.56693 158.000
67.58688 202.000
67.60683 174.000
67.62677 161.000
67.64672 196.000
67.66667 161.000
67.68661 166.000
67.70656 155.000
67.72651 182.000
67.74645 163.000
67.76640 174.000
67.78635 175.000
67.80630 171.000
67.82624 180.000
67.84619 156.000
67.86614 198.000
67.88608 162.000
67.90603 183.000
67.92598 180.000
67.94592 174.000
67.96587 182.000
67.98582 203.000
68.00576 187.000
68.02571 160.000
68.04566 193.000
68.06561 207.000
68.08555 205.000
68.10550 189.000
68.12545 213.000
68.14539 178.000
68.16534 185.000
68.18529 184.000
68.20523 217.000
68.22518 207.000
68.24513 201.000
68.26508 214.000
68.28502 192.000
68.30497 190.000
68.32492 192.000
68.34486 209.000
68.36481 182.000
68.38476 187.000
68.40470 168.000
68.42465 193.000
68.44460 164.000
68.46455 176.000
68.48449 156.000
68.50444 193.000
68.52439 173.000
68.54433 180.000
68.56428 193.000
68.58423 172.000
68.60417 179.000
68.62412 160.000
68.64407 179.000
68.66401 168.000
68.68396 173.000
68.70391 172.000
68.72386 177.000
68.74380 168.000
68.76375 156.000
68.78370 169.000
68.80364 184.000
68.82359 168.000
68.84354 137.000
68.86348 159.000
68.88343 162.000
68.90338 170.000
68.92333 171.000
68.94327 142.000
68.96322 156.000
68.98317 175.000
69.00311 174.000
69.02306 169.000
69.04301 147.000
69.06295 132.000
69.08290 156.000
69.10285 160.000
69.12279 157.000
69.14274 154.000
69.16269 147.000
69.18264 152.000
69.20258 135.000
69.22253 172.000
69.24248 155.000
69.26242 189.000
69.28237 152.000
69.30232 160.000
69.32226 175.000
69.34221 160.000
69.36216 167.000
69.38211 159.000
69.40205 159.000
69.42200 129.000
69.44195 151.000
69.46189 129.000
69.48184 160.000
69.50179 161.000
69.52173 159.000
69.54168 156.000
69.56163 151.000
69.58157 159.000
69.60152 160.000
69.62147 156.000
69.64142 158.000
69.66136 152.000
69.68131 161.000
69.70126 143.000
69.72120 144.000
69.74115 147.000
69.76110 158.000
69.78104 143.000
69.80099 145.000
69.82094 144.000
69.84089 165.000
69.86083 132.000
69.88078 163.000
69.90073 153.000
69.92067 173.000
69.94062 159.000
69.96057 167.000
69.98051 149.000
70.00046 159.000
70.02041 143.000
70.04035 161.000
70.06030 144.000
70.08025 153.000
70.10020 178.000
70.12014 155.000
70.14009 167.000
70.16004 162.000
70.17998 145.000
70.19993 154.000
70.21988 190.000
70.23982 143.000
70.25977 166.000
70.27972 170.000
70.29967 156.000
70.31961 167.000
70.33956 153.000
70.35951 142.000
70.37945 142.000
70.39940 174.000
70.41935 169.000
70.43929 149.000
70.45924 148.000
70.47919 144.000
70.49914 146.000
70.51908 157.000
70.53903 172.000
70.55898 169.000
70.57892 148.000
70.59887 142.000
70.61882 163.000
70.63876 170.000
70.65871 142.000
70.67866 156.000
70.69860 144.000
70.71855 153.000
70.73850 141.000
70.75845 134.000
70.77839 163.000
70.79834 157.000
70.81829 142.000
70.83823 165.000
70.85818 168.000
70.87813 151.000
70.89807 146.000
70.91802 155.000
70.93797 167.000
70.95792 173.000
70.97786 174.000
70.99781 139.000
71.01776 142.000
71.03770 161.000
71.05765 164.000
71.07760 156.000
71.09754 151.000
71.11749 165.000
71.13744 152.000
71.15738 144.000
71.17733 152.000
71.19728 148.000
71.21723 171.000
71.23717 139.000
71.25712 156.000
71.27707 155.000
71.29701 143.000
71.31696 180.000
71.33691 136.000
71.35685 135.000
71.37680 165.000
71.39675 165.000
71.41670 174.000
71.43664 164.000
71.45659 147.000
71.47654 150.000
71.49648 158.000
71.51643 147.000
71.53638 151.000
71.55632 168.000
71.57627 166.000
71.59622 159.000
71.61616 171.000
71.63611 151.000
71.65606 179.000
71.67601 141.000
71.69595 149.000
71.71590 156.000
71.73585 170.000
71.75579 164.000
71.77574 169.000
71.79569 171.000
71.81563 152.000
71.83558 168.000
71.85553 173.000
71.87548 156.000
71.89542 145.000
71.91537 168.000
71.93532 157.000
71.95526 167.000
71.97521 160.000
71.99516 151.000
72.01510 166.000
72.03505 123.000
72.05500 159.000
72.07495 156.000
72.09489 165.000
72.11484 164.000
72.13479 162.000
72.15473 141.000
72.17468 174.000
72.19463 146.000
72.21457 149.000
72.23452 151.000
72.25447 137.000
72.27441 145.000
72.29436 149.000
72.31431 136.000
72.33426 181.000
72.35420 164.000
72.37415 167.000
72.39410 160.000
72.41404 164.000
72.43399 181.000
72.45394 160.000
72.47388 165.000
72.49383 165.000
72.51378 155.000
72.53373 162.000
72.55367 165.000
72.57362 156.000
72.59357 176.000
72.61351 172.000
72.63346 162.000
72.65341 149.000
72.67335 173.000
72.69330 173.000
72.71325 171.000
72.73319 151.000
72.75314 171.000
72.77309 165.000
72.79304 167.000
72.81298 152.000
72.83293 170.000
72.85288 167.000
72.87282 181.000
72.89277 161.000
72.91272 163.000
72.93266 155.000
72.95261 141.000
72.97256 154.000
72.99251 185.000
73.01245 187.000
73.03240 177.000
73.05235 176.000
73.07229 152.000
73.09224 176.000
73.11219 191.000
73.13213 173.000
73.15208 189.000
73.17203 170.000
73.19197 186.000
73.21192 169.000
73.23187 194.000
73.25182 196.000
73.27176 175.000
73.29171 173.000
73.31166 206.000
73.33160 179.000
73.35155 192.000
73.37150 197.000
73.39144 170.000
73.41139 197.000
73.43134 206.000
73.45129 203.000
73.47123 215.000
73.49118 208.000
73.51113 207.000
73.53107 217.000
73.55102 231.000
73.57097 234.000
73.59091 258.000
73.61086 255.000
73.63081 225.000
73.65076 268.000
73.67070 236.000
73.69065 262.000
73.71060 241.000
73.73054 243.000
73.75049 225.000
73.77044 286.000
73.79038 253.000
73.81033 250.000
73.83028 238.000
73.85022 239.000
73.87017 217.000
73.89012 226.000
73.91007 234.000
73.93001 210.000
73.94996 227.000
73.96991 219.000
73.98985 234.000
74.00980 219.000
74.02975 203.000
74.04969 223.000
74.06964 196.000
74.08959 180.000
74.10954 216.000
74.12948 168.000
74.14943 168.000
74.16938 172.000
74.18932 164.000
74.20927 170.000
74.22922 163.000
74.24916 154.000
74.26911 168.000
74.28906 172.000
74.30900 165.000
74.32895 158.000
74.34890 169.000
74.36885 158.000
74.38879 192.000
74.40874 196.000
74.42869 160.000
74.44863 143.000
74.46858 178.000
74.48853 141.000
74.50847 153.000
74.52842 170.000
74.54837 174.000
74.56832 151.000
74.58826 178.000
74.60821 181.000
74.62816 196.000
74.64810 188.000
74.66805 177.000
74.68800 173.000
74.70794 183.000
74.72789 196.000
74.74784 188.000
74.76778 232.000
74.78773 180.000
74.80768 194.000
74.82763 204.000
74.84757 230.000
74.86752 225.000
74.88747 251.000
74.90741 240.000
74.92736 228.000
74.94731 256.000
74.96725 236.000
74.98720 258.000
75.00715 264.000
75.02710 267.000
75.04704 267.000
75.06699 295.000
75.08694 283.000
75.10688 276.000
75.12683 291.000
75.14678 284.000
75.16672 283.000
75.18667 301.000
75.20662 316.000
75.22657 295.000
75.24651 326.000
75.26646 280.000
75.28641 292.000
75.30635 276.000
75.32630 290.000
75.34625 285.000
75.36619 258.000
75.38614 272.000
75.40609 273.000
75.42603 249.000
75.44598 254.000
75.46593 229.000
75.48588 223.000
75.50582 232.000
75.52577 239.000
75.54572 200.000
75.56566 243.000
75.58561 231.000
75.60556 209.000
75.62550 212.000
75.64545 198.000
75.66540 222.000
75.68535 180.000
75.70529 218.000
75.72524 195.000
75.74519 191.000
75.76513 162.000
75.78508 164.000
75.80503 210.000
75.82497 202.000
75.84492 182.000
75.86487 177.000
75.88481 194.000
75.90476 198.000
75.92471 188.000
75.94466 186.000
75.96460 190.000
75.98455 200.000
76.00450 198.000
76.02444 218.000
76.04439 198.000
76.06434 217.000
76.08428 196.000
76.10423 201.000
76.12418 174.000
76.14413 196.000
76.16407 190.000
76.18402 170.000
76.20397 168.000
76.22391 196.000
76.24386 175.000
76.26381 175.000
76.28375 168.000
76.30370 170.000
76.32365 167.000
76.34359 161.000
76.36354 155.000
76.38349 152.000
76.40344 180.000
76.42338 145.000
76.44333 151.000
76.46328 189.000
76.48322 170.000
76.50317 173.000
76.52312 153.000
76.54306 148.000
76.56301 154.000
76.58296 164.000
76.60291 150.000
76.62285 157.000
76.64280 172.000
76.66275 174.000
76.68269 182.000
76.70264 162.000
76.72259 143.000
76.74253 169.000
76.76248 161.000
76.78243 155.000
76.80238 143.000
76.82232 162.000
76.84227 164.000
76.86222 169.000
76.88216 167.000
76.90211 162.000
76.92206 172.000
76.94200 168.000
76.96195 164.000
76.98190 161.000
77.00184 139.000
77.02179 154.000
77.04174 156.000
77.06169 178.000
77.08163 146.000
77.10158 166.000
77.12153 155.000
77.14147 175.000
77.16142 142.000
77.18137 172.000
77.20131 153.000
77.22126 164.000
77.24121 139.000
77.26116 165.000
77.28110 171.000
77.30105 168.000
77.32100 141.000
77.34094 160.000
77.36089 164.000
77.38084 136.000
77.40078 163.000
77.42073 175.000
77.44068 168.000
77.46062 152.000
77.48057 171.000
77.50052 163.000
77.52047 145.000
77.54041 156.000
77.56036 178.000
77.58031 142.000
77.60025 132.000
77.62020 147.000
77.64015 139.000
77.66009 178.000
77.68004 158.000
77.69999 156.000
77.71994 182.000
77.73988 170.000
77.75983 162.000
77.77978 185.000
77.79972 160.000
77.81967 177.000
77.83962 193.000
77.85956 197.000
77.87951 194.000
77.89946 208.000
77.91940 187.000
77.93935 210.000
77.95930 196.000
77.97925 190.000
77.99919 193.000
78.01914 207.000
78.03909 221.000
78.05903 234.000
78.07898 245.000
78.09893 218.000
78.11887 227.000
78.13882 205.000
78.15877 212.000
78.17872 235.000
78.19866 224.000
78.21861 228.000
78.23856 227.000
78.25850 216.000
78.27845 235.000
78.29840 250.000
78.31834 215.000
78.33829 270.000
78.35824 230.000
78.37819 235.000
78.39813 263.000
78.41808 249.000
78.43803 293.000
78.45797 247.000
78.47792 288.000
78.49787 268.000
78.51781 266.000
78.53776 247.000
78.55771 265.000
78.57765 277.000
78.59760 244.000
78.61755 236.000
78.63750 246.000
78.65744 254.000
78.67739 226.000
78.69734 263.000
78.71728 246.000
78.73723 241.000
78.75718 250.000
78.77712 246.000
78.79707 236.000
78.81702 260.000
78.83697 281.000
78.85691 249.000
78.87686 231.000
78.89681 257.000
78.91675 242.000
78.93670 245.000
78.95665 262.000
78.97659 283.000
78.99654 270.000
79.01649 236.000
79.03643 260.000
79.05638 273.000
79.07633 277.000
79.09628 233.000
79.11622 278.000
79.13617 258.000
79.15612 267.000
79.17606 287.000
79.19601 270.000
79.21596 273.000
79.23590 257.000
79.25585 255.000
79.27580 249.000
79.29575 235.000
79.31569 243.000
79.33564 232.000
79.35559 227.000
79.37553 236.000
79.39548 246.000
79.41543 225.000
79.43537 228.000
79.45532 215.000
79.47527 233.000
79.49521 192.000
79.51516 172.000
79.53511 201.000
79.55506 193.000
79.57500 188.000
79.59495 185.000
79.61490 180.000
79.63484 181.000
79.65479 197.000
79.67474 185.000
79.69468 167.000
79.71463 188.000
79.73458 161.000
79.75453 157.000
79.77447 170.000
79.79442 168.000
79.81437 171.000
79.83431 159.000
79.85426 143.000
79.87421 143.000
79.89415 155.000
79.91410 187.000
79.93405 170.000
79.95399 146.000
79.97394 162.000
79.99389 162.000
80.01384 150.000
80.03378 171.000
80.05373 170.000
80.07368 177.000
80.09362 145.000
80.11357 153.000
80.13352 150.000
80.15346 144.000
80.17341 163.000
80.19336 189.000
80.21331 143.000
80.23325 156.000
80.25320 156.000
80.27315 150.000
80.29309 171.000
80.31304 148.000
80.33299 165.000
80.35293 165.000
80.37288 152.000
80.39283 168.000
80.41278 164.000
80.43272 144.000
80.45267 156.000
80.47262 166.000
80.49256 150.000
80.51251 166.000
80.53246 144.000
80.55240 137.000
80.57235 158.000
80.59230 131.000
80.61224 167.000
80.63219 171.000
80.65214 153.000
80.67209 156.000
80.69203 157.000
80.71198 150.000
80.73193 189.000
80.75187 170.000
80.77182 158.000
80.79177 159.000
80.81171 169.000
80.83166 160.000
80.85161 160.000
80.87156 175.000
80.89150 163.000
80.91145 171.000
80.93140 174.000
80.95134 148.000
80.97129 162.000
80.99124 161.000
81.01118 159.000
81.03113 178.000
81.05108 152.000
81.07102 179.000
81.09097 176.000
81.11092 168.000
81.13087 148.000
81.15081 152.000
81.17076 137.000
81.19071 164.000
81.21065 116.000
81.23060 152.000
81.25055 155.000
81.27049 152.000
81.29044 131.000
81.31039 157.000
81.33034 142.000
81.35028 143.000
81.37023 156.000
81.39018 156.000
81.41012 179.000
81.43007 161.000
81.45002 162.000
81.46996 154.000
81.48991 154.000
81.50986 145.000
81.52980 179.000
81.54975 163.000
81.56970 163.000
81.58965 170.000
81.60959 153.000
81.62954 166.000
81.64949 135.000
81.66943 155.000
81.68938 143.000
81.70933 166.000
81.72927 178.000
81.74922 149.000
81.76917 152.000
81.78912 164.000
81.80906 140.000
81.82901 154.000
81.84896 150.000
81.86890 166.000
81.88885 149.000
81.90880 141.000
81.92874 154.000
81.94869 163.000
81.96864 162.000
81.98859 144.000
82.00853 167.000
82.02848 160.000
82.04843 143.000
82.06837 132.000
82.08832 165.000
82.10827 148.000
82.12821 140.000
82.14816 153.000
82.16811 141.000
82.18805 160.000
82.20800 176.000
82.22795 179.000
82.24790 142.000
82.26784 169.000
82.28779 154.000
82.30774 172.000
82.32768 158.000
82.34763 155.000
82.36758 151.000
82.38752 167.000
82.40747 150.000
82.42742 156.000
82.44737 171.000
82.46731 142.000
82.48726 160.000
82.50721 155.000
82.52715 174.000
82.54710 160.000
82.56705 141.000
82.58699 166.000
82.60694 155.000
82.62689 166.000
82.64683 164.000
82.66678 170.000
82.68673 164.000
82.70668 168.000
82.72662 156.000
82.74657 152.000
82.76652 170.000
82.78646 168.000
82.80641 152.000
82.82636 178.000
82.84630 159.000
82.86625 155.000
82.88620 155.000
82.90615 161.000
82.92609 173.000
82.94604 163.000
82.96599 167.000
82.98593 156.000
83.00588 145.000
83.02583 149.000
83.04577 147.000
83.06572 162.000
83.08567 144.000
83.10561 134.000
83.12556 154.000
83.14551 151.000
83.16546 158.000
83.18540 128.000
83.20535 152.000
83.22530 167.000
83.24524 157.000
83.26519 168.000
83.28514 151.000
83.30508 150.000
83.32503 143.000
83.34498 166.000
83.36493 156.000
83.38487 143.000
83.40482 157.000
83.42477 163.000
83.44471 181.000
83.46466 161.000
83.48461 147.000
83.50455 145.000
83.52450 160.000
83.54445 151.000
83.56440 156.000
83.58434 162.000
83.60429 159.000
83.62424 158.000
83.64418 157.000
83.66413 172.000
83.68408 168.000
83.70402 163.000
83.72397 162.000
83.74392 168.000
83.76386 161.000
83.78381 171.000
83.80376 157.000
83.82371 166.000
83.84365 151.000
83.86360 146.000
83.88355 138.000
83.90349 162.000
83.92344 150.000
83.94339 174.000
83.96333 168.000
83.98328 167.000
84.00323 154.000
84.02318 154.000
84.04312 161.000
84.06307 146.000
84.08302 139.000
84.10296 151.000
84.12291 146.000
84.14286 154.000
84.16280 158.000
84.18275 172.000
84.20270 156.000
84.22264 170.000
84.24259 171.000
84.26254 151.000
84.28249 144.000
84.30243 186.000
84.32238 162.000
84.34233 163.000
84.36227 180.000
84.38222 179.000
84.40217 145.000
84.42211 202.000
84.44206 190.000
84.46201 180.000
84.48196 207.000
84.50190 153.000
84.52185 186.000
84.54180 203.000
84.56174 201.000
84.58169 177.000
84.60164 229.000
84.62158 186.000
84.64153 230.000
84.66148 232.000
84.68142 212.000
84.70137 226.000
84.72132 219.000
84.74127 214.000
84.76121 203.000
84.78116 229.000
84.80111 227.000
84.82105 201.000
84.84100 216.000
84.86095 239.000
84.88089 199.000
84.90084 215.000
84.92079 205.000
84.94074 204.000
84.96068 189.000
84.98063 235.000
85.00058 236.000
85.02052 235.000
85.04047 202.000
85.06042 190.000
85.08036 215.000
85.10031 190.000
85.12026 199.000
85.14021 190.000
85.16015 152.000
85.18010 168.000
85.20005 180.000
85.21999 175.000
85.23994 181.000
85.25989 184.000
85.27983 177.000
85.29978 169.000
85.31973 145.000
85.33967 165.000
85.35962 175.000
85.37957 176.000
85.39952 161.000
85.41946 157.000
85.43941 156.000
85.45936 156.000
85.47930 163.000
85.49925 154.000
85.51920 144.000
85.53914 161.000
85.55909 145.000
85.57904 151.000
85.59899 180.000
85.61893 155.000
85.63888 152.000
85.65883 169.000
85.67877 156.000
85.69872 155.000
85.71867 141.000
85.73861 158.000
85.75856 164.000
85.77851 154.000
85.79845 149.000
85.81840 152.000
85.83835 154.000
85.85830 152.000
85.87824 140.000
85.89819 134.000
85.91814 148.000
85.93808 152.000
85.95803 159.000
85.97798 158.000
85.99792 157.000
86.01787 160.000
86.03782 149.000
86.05777 133.000
86.07771 157.000
86.09766 139.000
86.11761 177.000
86.13755 171.000
86.15750 149.000
86.17745 160.000
86.19739 165.000
86.21734 159.000
86.23729 172.000
86.25723 151.000
86.27718 148.000
86.29713 144.000
86.31708 164.000
86.33702 162.000
86.35697 173.000
86.37692 147.000
86.39686 147.000
86.41681 158.000
86.43676 140.000
86.45670 141.000
86.47665 161.000
86.49660 155.000
86.51655 157.000
86.53649 161.000
86.55644 164.000
86.57639 164.000
86.59633 129.000
86.61628 147.000
86.63623 159.000
86.65617 159.000
86.67612 159.000
86.69607 154.000
86.71602 138.000
86.73596 161.000
86.75591 172.000
86.77586 150.000
86.79580 159.000
86.81575 143.000
86.83570 164.000
86.85564 182.000
86.87559 187.000
86.89554 165.000
86.91548 142.000
86.93543 169.000
86.95538 169.000
86.97533 142.000
86.99527 180.000
87.01522 154.000
87.03517 154.000
87.05511 164.000
87.07506 172.000
87.09501 171.000
87.11495 165.000
87.13490 158.000
87.15485 178.000
87.17480 148.000
87.19474 180.000
87.21469 190.000
87.23464 165.000
87.25458 177.000
87.27453 160.000
87.29448 147.000
87.31442 164.000
87.33437 176.000
87.35432 177.000
87.37426 173.000
87.39421 175.000
87.41416 188.000
87.43411 182.000
87.45405 137.000
87.47400 176.000
87.49395 149.000
87.51389 159.000
87.53384 174.000
87.55379 166.000
87.57373 178.000
87.59368 167.000
87.61363 153.000
87.63358 181.000
87.65352 209.000
87.67347 179.000
87.69342 172.000
87.71336 184.000
87.73331 161.000
87.75326 192.000
87.77320 176.000
87.79315 164.000
87.81310 178.000
87.83304 161.000
87.85299 169.000
87.87294 166.000
87.89289 173.000
87.91283 162.000
87.93278 175.000
87.95273 159.000
87.97267 182.000
87.99262 171.000
88.01257 155.000
88.03251 167.000
88.05246 171.000
88.07241 159.000
88.09236 158.000
88.11230 162.000
88.13225 193.000
88.15220 169.000
88.17214 135.000
88.19209 178.000
88.21204 161.000
88.23198 172.000
88.25193 158.000
88.27188 153.000
88.29183 153.000
88.31177 167.000
88.33172 173.000
88.35167 170.000
88.37161 130.000
88.39156 153.000
88.41151 176.000
88.43145 165.000
88.45140 162.000
88.47135 165.000
88.49129 150.000
88.51124 174.000
88.53119 143.000
88.55114 149.000
88.57108 154.000
88.59103 154.000
88.61098 148.000
88.63092 167.000
88.65087 151.000
88.67082 147.000
88.69076 160.000
88.71071 141.000
88.73066 155.000
88.75061 161.000
88.77055 156.000
88.79050 162.000
88.81045 149.000
88.83039 144.000
88.85034 162.000
88.87029 158.000
88.89023 140.000
88.91018 152.000
88.93013 129.000
88.95007 127.000
88.97002 163.000
88.98997 175.000
89.00992 153.000
89.02986 146.000
89.04981 139.000
89.06976 175.000
89.08970 157.000
89.10965 157.000
89.12960 153.000
89.14954 162.000
89.16949 143.000
89.18944 157.000
89.20939 152.000
89.22933 158.000
89.24928 143.000
89.26923 164.000
89.28917 135.000
89.30912 148.000
89.32907 160.000
89.34901 167.000
89.36896 151.000
89.38891 150.000
89.40885 159.000
89.42880 158.000
89.44875 164.000
89.46870 148.000
89.48864 170.000
89.50859 158.000
89.52854 153.000
89.54848 178.000
89.56843 138.000
89.58838 156.000
89.60832 140.000
89.62827 167.000
89.64822 149.000
89.66817 140.000
89.68811 176.000
89.70806 144.000
89.72801 152.000
89.74795 164.000
89.76790 167.000
89.78785 155.000
89.80779 180.000
89.82774 168.000
89.84769 171.000
89.86764 152.000
89.88758 153.000
89.90753 173.000
89.92748 168.000
89.94742 143.000
89.96737 159.000
89.98732 149.000
90.00726 159.000
