10.00000 100.000
10.01995 98.000
10.03989 103.000
10.05984 70.000
10.07979 87.000
10.09973 96.000
10.11968 92.000
10.13963 107.000
10.15958 103.000
10.17952 96.000
10.19947 101.000
10.21942 104.000
10.23936 99.000
10.25931 95.000
10.27926 87.000
10.29920 90.000
10.31915 90.000
10.33910 89.000
10.35905 98.000
10.37899 88.000
10.39894 97.000
10.41889 100.000
10.43883 111.000
10.45878 92.000
10.47873 109.000
10.49867 108.000
10.51862 118.000
10.53857 86.000
10.55851 89.000
10.57846 96.000
10.59841 101.000
10.61836 98.000
10.63830 102.000
10.65825 86.000
10.67820 94.000
10.69814 96.000
10.71809 112.000
10.73804 91.000
10.75798 93.000
10.77793 103.000
10.79788 113.000
10.81783 97.000
10.83777 93.000
10.85772 86.000
10.87767 103.000
10.89761 90.000
10.91756 108.000
10.93751 100.000
10.95745 87.000
10.97740 100.000
10.99735 93.000
11.01730 102.000
11.03724 101.000
11.05719 103.000
11.07714 101.000
11.09708 87.000
11.11703 92.000
11.13698 94.000
11.15692 93.000
11.17687 95.000
11.19682 99.000
11.21676 113.000
11.23671 86.000
11.25666 121.000
11.27661 85.000
11.29655 95.000
11.31650 95.000
11.33645 110.000
11.35639 105.000
11.37634 109.000
11.39629 94.000
11.41623 100.000
11.43618 135.000
11.45613 110.000
11.47608 109.000
11.49602 110.000
11.51597 92.000
11.53592 96.000
11.55586 104.000
11.57581 109.000
11.59576 116.000
11.61570 110.000
11.63565 98.000
11.65560 106.000
11.67554 118.000
11.69549 102.000
11.71544 110.000
11.73539 103.000
11.75533 92.000
11.77528 92.000
11.79523 127.000
11.81517 99.000
11.83512 96.000
11.85507 102.000
11.87501 88.000
11.89496 90.000
11.91491 100.000
11.93486 101.000
11.95480 111.000
11.97475 97.000
11.99470 97.000
12.01464 114.000
12.03459 120.000
12.05454 119.000
12.07448 121.000
12.09443 115.000
12.11438 112.000
12.13432 107.000
12.15427 118.000
12.17422 111.000
12.19417 99.000
12.21411 100.000
12.23406 120.000
12.25401 93.000
12.27395 95.000
12.29390 110.000
12.31385 110.000
12.33379 131.000
12.35374 98.000
12.37369 112.000
12.39364 117.000
12.41358 121.000
12.43353 101.000
12.45348 118.000
12.47342 135.000
12.49337 117.000
12.51332 116.000
12.53326 111.000
12.55321 98.000
12.57316 91.000
12.59311 103.000
12.61305 104.000
12.63300 116.000
12.65295 134.000
12.67289 104.000
12.69284 105.000
12.71279 109.000
12.73273 136.000
12.75268 112.000
12.77263 128.000
12.79257 112.000
12.81252 111.000
12.83247 110.000
12.85242 108.000
12.87236 117.000
12.89231 130.000
12.91226 100.000
12.93220 98.000
12.95215 94.000
12.97210 100.000
12.99204 122.000
13.01199 116.000
13.03194 112.000
13.05189 110.000
13.07183 116.000
13.09178 119.000
13.11173 98.000
13.13167 111.000
13.15162 122.000
13.17157 108.000
13.19151 133.000
13.21146 121.000
13.23141 94.000
13.25135 112.000
13.27130 126.000
13.29125 107.000
13.31120 109.000
13.33114 112.000
13.35109 111.000
13.37104 143.000
13.39098 104.000
13.41093 142.000
13.43088 124.000
13.45082 117.000
13.47077 126.000
13.49072 127.000
13.51067 114.000
13.53061 105.000
13.55056 115.000
13.57051 136.000
13.59045 145.000
13.61040 120.000
13.63035 117.000
13.65029 121.000
13.67024 136.000
13.69019 117.000
13.71013 135.000
13.73008 141.000
13.75003 128.000
13.76998 98.000
13.78992 132.000
13.80987 123.000
13.82982 107.000
13.84976 112.000
13.86971 107.000
13.88966 106.000
13.90960 134.000
13.92955 131.000
13.94950 136.000
13.96945 133.000
13.98939 138.000
14.00934 123.000
14.02929 145.000
14.04923 115.000
14.06918 123.000
14.08913 138.000
14.10907 119.000
14.12902 123.000
14.14897 111.000
14.16892 130.000
14.18886 131.000
14.20881 121.000
14.22876 139.000
14.24870 120.000
14.26865 136.000
14.28860 123.000
14.30854 123.000
14.32849 130.000
14.34844 122.000
14.36838 123.000
14.38833 138.000
14.40828 125.000
14.42823 132.000
14.44817 121.000
14.46812 109.000
14.48807 142.000
14.50801 133.000
14.52796 112.000
14.54791 132.000
14.56785 120.000
14.58780 131.000
14.60775 127.000
14.62770 154.000
14.64764 128.000
14.66759 139.000
14.68754 146.000
14.70748 136.000
14.72743 138.000
14.74738 121.000
14.76732 110.000
14.78727 122.000
14.80722 136.000
14.82716 129.000
14.84711 155.000
14.86706 146.000
14.88701 123.000
14.90695 132.000
14.92690 160.000
14.94685 125.000
14.96679 121.000
14.98674 143.000
15.00669 145.000
15.02663 153.000
15.04658 126.000
15.06653 143.000
15.08648 143.000
15.10642 134.000
15.12637 162.000
15.14632 135.000
15.16626 169.000
15.18621 162.000
15.20616 144.000
15.22610 127.000
15.24605 145.000
15.26600 153.000
15.28594 141.000
15.30589 145.000
15.32584 155.000
15.34579 141.000
15.36573 145.000
15.38568 156.000
15.40563 148.000
15.42557 155.000
15.44552 133.000
15.46547 158.000
15.48541 169.000
15.50536 170.000
15.52531 127.000
15.54526 145.000
15.56520 151.000
15.58515 165.000
15.60510 137.000
15.62504 172.000
15.64499 151.000
15.66494 157.000
15.68488 187.000
15.70483 175.000
15.72478 136.000
15.74472 149.000
15.76467 142.000
15.78462 152.000
15.80457 153.000
15.82451 152.000
15.84446 173.000
15.86441 182.000
15.88435 161.000
15.90430 153.000
15.92425 171.000
15.94419 169.000
15.96414 174.000
15.98409 218.000
16.00404 198.000
16.02398 188.000
16.04393 186.000
16.06388 178.000
16.08382 189.000
16.10377 149.000
16.12372 155.000
16.14366 167.000
16.16361 166.000
16.18356 199.000
16.20351 177.000
16.22345 159.000
16.24340 196.000
16.26335 176.000
16.28329 176.000
16.30324 172.000
16.32319 188.000
16.34313 179.000
16.36308 173.000
16.38303 179.000
16.40297 217.000
16.42292 212.000
16.44287 174.000
16.46282 224.000
16.48276 185.000
16.50271 186.000
16.52266 187.000
16.54260 202.000
16.56255 210.000
16.58250 222.000
16.60244 204.000
16.62239 228.000
16.64234 203.000
16.66229 188.000
16.68223 202.000
16.70218 212.000
16.72213 191.000
16.74207 174.000
16.76202 221.000
16.78197 225.000
16.80191 244.000
16.82186 209.000
16.84181 211.000
16.86175 221.000
16.88170 214.000
16.90165 234.000
16.92160 220.000
16.94154 243.000
16.96149 214.000
16.98144 222.000
17.00138 218.000
17.02133 254.000
17.04128 219.000
17.06122 244.000
17.08117 239.000
17.10112 259.000
17.12107 248.000
17.14101 236.000
17.16096 251.000
17.18091 218.000
17.20085 234.000
17.22080 230.000
17.24075 264.000
17.26069 204.000
17.28064 222.000
17.30059 262.000
17.32053 262.000
17.34048 272.000
17.36043 248.000
17.38038 261.000
17.40032 246.000
17.42027 276.000
17.44022 272.000
17.46016 274.000
17.48011 253.000
17.50006 266.000
17.52000 295.000
17.53995 252.000
17.55990 261.000
17.57985 280.000
17.59979 281.000
17.61974 256.000
17.63969 300.000
17.65963 278.000
17.67958 291.000
17.69953 296.000
17.71947 273.000
17.73942 265.000
17.75937 302.000
17.77932 288.000
17.79926 286.000
17.81921 297.000
17.83916 287.000
17.85910 308.000
17.87905 291.000
17.89900 328.000
17.91894 323.000
17.93889 325.000
17.95884 299.000
17.97878 338.000
17.99873 280.000
18.01868 304.000
18.03863 279.000
18.05857 321.000
18.07852 323.000
18.09847 311.000
18.11841 298.000
18.13836 327.000
18.15831 280.000
18.17825 311.000
18.19820 296.000
18.21815 309.000
18.23810 348.000
18.25804 336.000
18.27799 309.000
18.29794 327.000
18.31788 319.000
18.33783 344.000
18.35778 354.000
18.37772 352.000
18.39767 312.000
18.41762 341.000
18.43756 383.000
18.45751 325.000
18.47746 329.000
18.49741 345.000
18.51735 305.000
18.53730 339.000
18.55725 342.000
18.57719 337.000
18.59714 404.000
18.61709 358.000
18.63703 327.000
18.65698 383.000
18.67693 348.000
18.69688 358.000
18.71682 365.000
18.73677 375.000
18.75672 384.000
18.77666 367.000
18.79661 384.000
18.81656 404.000
18.83650 379.000
18.85645 385.000
18.87640 366.000
18.89634 373.000
18.91629 355.000
18.93624 385.000
18.95619 405.000
18.97613 403.000
18.99608 412.000
19.01603 409.000
19.03597 384.000
19.05592 398.000
19.07587 400.000
19.09581 429.000
19.11576 401.000
19.13571 405.000
19.15566 425.000
19.17560 363.000
19.19555 456.000
19.21550 370.000
19.23544 372.000
19.25539 394.000
19.27534 412.000
19.29528 399.000
19.31523 410.000
19.33518 424.000
19.35513 372.000
19.37507 404.000
19.39502 444.000
19.41497 405.000
19.43491 400.000
19.45486 409.000
19.47481 413.000
19.49475 397.000
19.51470 419.000
19.53465 411.000
19.55459 417.000
19.57454 417.000
19.59449 422.000
19.61444 455.000
19.63438 414.000
19.65433 438.000
19.67428 435.000
19.69422 404.000
19.71417 434.000
19.73412 425.000
19.75406 427.000
19.77401 414.000
19.79396 381.000
19.81391 455.000
19.83385 440.000
19.85380 435.000
19.87375 450.000
19.89369 427.000
19.91364 441.000
19.93359 432.000
19.95353 460.000
19.97348 422.000
19.99343 417.000
20.01337 446.000
20.03332 467.000
20.05327 419.000
20.07322 469.000
20.09316 450.000
20.11311 464.000
20.13306 449.000
20.15300 462.000
20.17295 474.000
20.19290 427.000
20.21284 448.000
20.23279 507.000
20.25274 483.000
20.27269 459.000
20.29263 495.000
20.31258 431.000
20.33253 458.000
20.35247 457.000
20.37242 510.000
20.39237 466.000
20.41231 480.000
20.43226 480.000
20.45221 483.000
20.47215 483.000
20.49210 453.000
20.51205 489.000
20.53200 454.000
20.55194 506.000
20.57189 470.000
20.59184 496.000
20.61178 472.000
20.63173 510.000
20.65168 532.000
20.67162 465.000
20.69157 455.000
20.71152 494.000
20.73147 491.000
20.75141 452.000
20.77136 448.000
20.79131 512.000
20.81125 479.000
20.83120 480.000
20.85115 533.000
20.87109 518.000
20.89104 526.000
20.91099 528.000
20.93094 529.000
20.95088 453.000
20.97083 512.000
20.99078 511.000
21.01072 520.000
21.03067 485.000
21.05062 507.000
21.07056 513.000
21.09051 483.000
21.11046 551.000
21.13040 501.000
21.15035 539.000
21.17030 506.000
21.19025 562.000
21.21019 572.000
21.23014 512.000
21.25009 511.000
21.27003 527.000
21.28998 474.000
21.30993 547.000
21.32987 531.000
21.34982 529.000
21.36977 513.000
21.38972 523.000
21.40966 536.000
21.42961 538.000
21.44956 508.000
21.46950 527.000
21.48945 501.000
21.50940 538.000
21.52934 555.000
21.54929 554.000
21.56924 540.000
21.58918 554.000
21.60913 548.000
21.62908 540.000
21.64903 535.000
21.66897 513.000
21.68892 509.000
21.70887 531.000
21.72881 517.000
21.74876 544.000
21.76871 575.000
21.78865 581.000
21.80860 634.000
21.82855 558.000
21.84850 567.000
21.86844 555.000
21.88839 563.000
21.90834 598.000
21.92828 514.000
21.94823 614.000
21.96818 561.000
21.98812 521.000
22.00807 560.000
22.02802 589.000
22.04796 571.000
22.06791 581.000
22.08786 595.000
22.10781 565.000
22.12775 574.000
22.14770 616.000
22.16765 539.000
22.18759 570.000
22.20754 596.000
22.22749 620.000
22.24743 583.000
22.26738 541.000
22.28733 575.000
22.30728 573.000
22.32722 547.000
22.34717 558.000
22.36712 583.000
22.38706 619.000
22.40701 564.000
22.42696 601.000
22.44690 609.000
22.46685 643.000
22.48680 589.000
22.50675 657.000
22.52669 575.000
22.54664 615.000
22.56659 649.000
22.58653 650.000
22.60648 612.000
22.62643 569.000
22.64637 635.000
22.66632 567.000
22.68627 617.000
22.70621 555.000
22.72616 572.000
22.74611 590.000
22.76606 576.000
22.78600 583.000
22.80595 585.000
22.82590 623.000
22.84584 618.000
22.86579 675.000
22.88574 625.000
22.90568 574.000
22.92563 612.000
22.94558 583.000
22.96553 615.000
22.98547 588.000
23.00542 612.000
23.02537 589.000
23.04531 646.000
23.06526 614.000
23.08521 638.000
23.10515 635.000
23.12510 650.000
23.14505 631.000
23.16499 630.000
23.18494 611.000
23.20489 616.000
23.22484 640.000
23.24478 633.000
23.26473 625.000
23.28468 650.000
23.30462 675.000
23.32457 688.000
23.34452 645.000
23.36446 627.000
23.38441 641.000
23.40436 646.000
23.42431 621.000
23.44425 667.000
23.46420 682.000
23.48415 658.000
23.50409 673.000
23.52404 705.000
23.54399 647.000
23.56393 696.000
23.58388 632.000
23.60383 679.000
23.62377 659.000
23.64372 682.000
23.66367 715.000
23.68362 700.000
23.70356 628.000
23.72351 666.000
23.74346 698.000
23.76340 677.000
23.78335 704.000
23.80330 677.000
23.82324 737.000
23.84319 722.000
23.86314 672.000
23.88309 673.000
23.90303 649.000
23.92298 676.000
23.94293 720.000
23.96287 667.000
23.98282 640.000
24.00277 660.000
24.02271 681.000
24.04266 709.000
24.06261 633.000
24.08256 721.000
24.10250 695.000
24.12245 674.000
24.14240 658.000
24.16234 747.000
24.18229 681.000
24.20224 743.000
24.22218 709.000
24.24213 712.000
24.26208 668.000
24.28202 701.000
24.30197 759.000
24.32192 701.000
24.34187 740.000
24.36181 749.000
24.38176 715.000
24.40171 711.000
24.42165 691.000
24.44160 748.000
24.46155 749.000
24.48149 699.000
24.50144 756.000
24.52139 749.000
24.54134 691.000
24.56128 742.000
24.58123 693.000
24.60118 741.000
24.62112 750.000
24.64107 750.000
24.66102 770.000
24.68096 738.000
24.70091 766.000
24.72086 675.000
24.74080 750.000
24.76075 758.000
24.78070 770.000
24.80065 763.000
24.82059 765.000
24.84054 721.000
24.86049 777.000
24.88043 743.000
24.90038 747.000
24.92033 763.000
24.94027 800.000
24.96022 790.000
24.98017 800.000
25.00012 779.000
25.02006 752.000
25.04001 772.000
25.05996 787.000
25.07990 783.000
25.09985 807.000
25.11980 832.000
25.13974 861.000
25.15969 792.000
25.17964 785.000
25.19958 793.000
25.21953 831.000
25.23948 853.000
25.25943 740.000
25.27937 767.000
25.29932 818.000
25.31927 819.000
25.33921 792.000
25.35916 817.000
25.37911 766.000
25.39905 841.000
25.41900 861.000
25.43895 832.000
25.45890 814.000
25.47884 831.000
25.49879 814.000
25.51874 835.000
25.53868 847.000
25.55863 847.000
25.57858 904.000
25.59852 794.000
25.61847 813.000
25.63842 921.000
25.65837 845.000
25.67831 888.000
25.69826 841.000
25.71821 847.000
25.73815 880.000
25.75810 859.000
25.77805 886.000
25.79799 846.000
25.81794 836.000
25.83789 928.000
25.85783 902.000
25.87778 883.000
25.89773 878.000
25.91768 888.000
25.93762 906.000
25.95757 842.000
25.97752 911.000
25.99746 887.000
26.01741 857.000
26.03736 938.000
26.05730 916.000
26.07725 888.000
26.09720 840.000
26.11715 884.000
26.13709 861.000
26.15704 957.000
26.17699 925.000
26.19693 970.000
26.21688 904.000
26.23683 958.000
26.25677 924.000
26.27672 924.000
26.29667 946.000
26.31661 912.000
26.33656 998.000
26.35651 918.000
26.37646 967.000
26.39640 944.000
26.41635 1007.000
26.43630 972.000
26.45624 946.000
26.47619 967.000
26.49614 1006.000
26.51608 938.000
26.53603 993.000
26.55598 906.000
26.57593 1019.000
26.59587 1039.000
26.61582 978.000
26.63577 959.000
26.65571 940.000
26.67566 964.000
26.69561 998.000
26.71555 991.000
26.73550 992.000
26.75545 976.000
26.77539 973.000
26.79534 943.000
26.81529 998.000
26.83524 973.000
26.85518 940.000
26.87513 969.000
26.89508 1055.000
26.91502 991.000
26.93497 961.000
26.95492 992.000
26.97486 995.000
26.99481 1075.000
27.01476 1014.000
27.03471 1041.000
27.05465 1000.000
27.07460 1032.000
27.09455 1025.000
27.11449 1012.000
27.13444 1041.000
27.15439 1018.000
27.17433 1062.000
27.19428 972.000
27.21423 1036.000
27.23417 1045.000
27.25412 999.000
27.27407 1051.000
27.29402 1043.000
27.31396 1058.000
27.33391 1069.000
27.35386 1063.000
27.37380 1048.000
27.39375 1036.000
27.41370 1057.000
27.43364 1117.000
27.45359 1061.000
27.47354 1049.000
27.49349 1055.000
27.51343 1114.000
27.53338 1053.000
27.55333 1107.000
27.57327 1081.000
27.59322 1120.000
27.61317 1135.000
27.63311 1063.000
27.65306 1034.000
27.67301 1148.000
27.69296 1042.000
27.71290 1066.000
27.73285 1077.000
27.75280 1126.000
27.77274 1100.000
27.79269 1092.000
27.81264 1089.000
27.83258 1133.000
27.85253 1116.000
27.87248 1143.000
27.89242 1119.000
27.91237 1133.000
27.93232 1093.000
27.95227 1126.000
27.97221 1144.000
27.99216 1099.000
28.01211 1074.000
28.03205 1087.000
28.05200 1075.000
28.07195 1123.000
28.09189 1117.000
28.11184 1154.000
28.13179 1174.000
28.15174 1160.000
28.17168 1113.000
28.19163 1092.000
28.21158 1060.000
28.23152 1120.000
28.25147 1149.000
28.27142 1125.000
28.29136 1117.000
28.31131 1137.000
28.33126 1196.000
28.35120 1220.000
28.37115 1170.000
28.39110 1151.000
28.41105 1106.000
28.43099 1225.000
28.45094 1153.000
28.47089 1153.000
28.49083 1179.000
28.51078 1200.000
28.53073 1125.000
28.55067 1185.000
28.57062 1167.000
28.59057 1172.000
28.61052 1110.000
28.63046 1197.000
28.65041 1141.000
28.67036 1139.000
28.69030 1124.000
28.71025 1168.000
28.73020 1120.000
28.75014 1164.000
28.77009 1183.000
28.79004 1175.000
28.80998 1143.000
28.82993 1134.000
28.84988 1217.000
28.86983 1207.000
28.88977 1189.000
28.90972 1161.000
28.92967 1091.000
28.94961 1166.000
28.96956 1133.000
28.98951 1142.000
29.00945 1256.000
29.02940 1193.000
29.04935 1200.000
29.06930 1144.000
29.08924 1164.000
29.10919 1188.000
29.12914 1155.000
29.14908 1164.000
29.16903 1198.000
29.18898 1152.000
29.20892 1194.000
29.22887 1174.000
29.24882 1215.000
29.26877 1236.000
29.28871 1123.000
29.30866 1115.000
29.32861 1201.000
29.34855 1204.000
29.36850 1199.000
29.38845 1159.000
29.40839 1172.000
29.42834 1135.000
29.44829 1216.000
29.46823 1141.000
29.48818 1163.000
29.50813 1243.000
29.52808 1196.000
29.54802 1171.000
29.56797 1216.000
29.58792 1140.000
29.60786 1192.000
29.62781 1263.000
29.64776 1172.000
29.66770 1167.000
29.68765 1161.000
29.70760 1199.000
29.72755 1227.000
29.74749 1263.000
29.76744 1272.000
29.78739 1211.000
29.80733 1229.000
29.82728 1265.000
29.84723 1232.000
29.86717 1177.000
29.88712 1147.000
29.90707 1123.000
29.92701 1169.000
29.94696 1148.000
29.96691 1137.000
29.98686 1121.000
30.00680 1237.000
30.02675 1186.000
30.04670 1166.000
30.06664 1140.000
30.08659 1152.000
30.10654 1178.000
30.12648 1107.000
30.14643 1207.000
30.16638 1100.000
30.18633 1131.000
30.20627 1177.000
30.22622 1171.000
30.24617 1090.000
30.26611 1158.000
30.28606 1132.000
30.30601 1143.000
30.32595 1214.000
30.34590 1126.000
30.36585 1095.000
30.38579 1098.000
30.40574 1121.000
30.42569 1139.000
30.44564 1158.000
30.46558 1100.000
30.48553 1151.000
30.50548 1184.000
30.52542 1115.000
30.54537 1171.000
30.56532 1147.000
30.58526 1130.000
30.60521 1083.000
30.62516 1071.000
30.64511 1145.000
30.66505 1128.000
30.68500 1133.000
30.70495 1144.000
30.72489 1121.000
30.74484 1185.000
30.76479 1163.000
30.78473 1125.000
30.80468 1091.000
30.82463 1063.000
30.84458 1146.000
30.86452 1117.000
30.88447 1059.000
30.90442 1150.000
30.92436 1068.000
30.94431 1130.000
30.96426 1131.000
30.98420 1113.000
31.00415 1188.000
31.02410 1141.000
31.04404 1105.000
31.06399 1112.000
31.08394 1146.000
31.10389 1096.000
31.12383 1035.000
31.14378 1121.000
31.16373 1094.000
31.18367 1119.000
31.20362 1140.000
31.22357 1061.000
31.24351 1074.000
31.26346 1140.000
31.28341 1117.000
31.30336 1115.000
31.32330 1134.000
31.34325 1053.000
31.36320 1118.000
31.38314 1092.000
31.40309 1080.000
31.42304 1041.000
31.44298 1084.000
31.46293 1021.000
31.48288 1076.000
31.50282 1052.000
31.52277 1077.000
31.54272 1114.000
31.56267 1056.000
31.58261 1060.000
31.60256 1065.000
31.62251 1078.000
31.64245 1045.000
31.66240 1117.000
31.68235 1065.000
31.70229 1079.000
31.72224 1055.000
31.74219 1074.000
31.76214 1154.000
31.78208 1114.000
31.80203 1143.000
31.82198 1088.000
31.84192 1151.000
31.86187 1099.000
31.88182 1165.000
31.90176 1159.000
31.92171 1079.000
31.94166 1113.000
31.96160 1178.000
31.98155 1177.000
32.00150 1145.000
32.02145 1113.000
32.04139 1042.000
32.06134 1027.000
32.08129 1046.000
32.10123 1022.000
32.12118 1009.000
32.14113 997.000
32.16107 1043.000
32.18102 1025.000
32.20097 1017.000
32.22092 1017.000
32.24086 1083.000
32.26081 1041.000
32.28076 1036.000
32.30070 1012.000
32.32065 996.000
32.34060 1043.000
32.36054 1026.000
32.38049 928.000
32.40044 1020.000
32.42039 955.000
32.44033 959.000
32.46028 985.000
32.48023 978.000
32.50017 964.000
32.52012 942.000
32.54007 984.000
32.56001 971.000
32.57996 1021.000
32.59991 975.000
32.61985 962.000
32.63980 988.000
32.65975 1011.000
32.67970 1046.000
32.69964 991.000
32.71959 994.000
32.73954 943.000
32.75948 943.000
32.77943 994.000
32.79938 960.000
32.81932 929.000
32.83927 946.000
32.85922 1001.000
32.87917 960.000
32.89911 880.000
32.91906 954.000
32.93901 908.000
32.95895 915.000
32.97890 954.000
32.99885 964.000
33.01879 910.000
33.03874 965.000
33.05869 915.000
33.07863 965.000
33.09858 973.000
33.11853 899.000
33.13848 959.000
33.15842 947.000
33.17837 969.000
33.19832 932.000
33.21826 921.000
33.23821 968.000
33.25816 901.000
33.27810 919.000
33.29805 908.000
33.31800 886.000
33.33795 932.000
33.35789 916.000
33.37784 876.000
33.39779 912.000
33.41773 961.000
33.43768 967.000
33.45763 901.000
33.47757 924.000
33.49752 863.000
33.51747 882.000
33.53741 859.000
33.55736 877.000
33.57731 836.000
33.59726 918.000
33.61720 878.000
33.63715 900.000
33.65710 908.000
33.67704 865.000
33.69699 883.000
33.71694 899.000
33.73688 904.000
33.75683 912.000
33.77678 903.000
33.79673 924.000
33.81667 847.000
33.83662 896.000
33.85657 852.000
33.87651 929.000
33.89646 886.000
33.91641 887.000
33.93635 912.000
33.95630 893.000
33.97625 868.000
33.99620 870.000
34.01614 848.000
34.03609 841.000
34.05604 874.000
34.07598 881.000
34.09593 853.000
34.11588 865.000
34.13582 854.000
34.15577 861.000
34.17572 901.000
34.19566 931.000
34.21561 961.000
34.23556 858.000
34.25551 906.000
34.27545 881.000
34.29540 892.000
34.31535 884.000
34.33529 887.000
34.35524 931.000
34.37519 852.000
34.39513 909.000
34.41508 924.000
34.43503 893.000
34.45498 900.000
34.47492 963.000
34.49487 916.000
34.51482 923.000
34.53476 991.000
34.55471 1017.000
34.57466 1010.000
34.59460 1019.000
34.61455 1084.000
34.63450 1136.000
34.65444 1116.000
34.67439 1187.000
34.69434 1284.000
34.71429 1337.000
34.73423 1438.000
34.75418 1464.000
34.77413 1621.000
34.79407 1648.000
34.81402 1780.000
34.83397 1950.000
34.85391 1940.000
34.87386 2032.000
34.89381 2136.000
34.91376 2194.000
34.93370 2229.000
34.95365 2318.000
34.97360 2293.000
34.99354 2294.000
35.01349 2271.000
35.03344 2163.000
35.05338 2036.000
35.07333 1907.000
35.09328 1784.000
35.11322 1634.000
35.13317 1541.000
35.15312 1359.000
35.17307 1294.000
35.19301 1213.000
35.21296 1077.000
35.23291 995.000
35.25285 999.000
35.27280 907.000
35.29275 885.000
35.31269 876.000
35.33264 780.000
35.35259 769.000
35.37254 885.000
35.39248 823.000
35.41243 759.000
35.43238 816.000
35.45232 762.000
35.47227 817.000
35.49222 799.000
35.51216 824.000
35.53211 805.000
35.55206 759.000
35.57201 791.000
35.59195 795.000
35.61190 788.000
35.63185 731.000
35.65179 798.000
35.67174 745.000
35.69169 804.000
35.71163 811.000
35.73158 793.000
35.75153 782.000
35.77147 795.000
35.79142 736.000
35.81137 769.000
35.83132 758.000
35.85126 752.000
35.87121 799.000
35.89116 792.000
35.91110 781.000
35.93105 733.000
35.95100 786.000
35.97094 716.000
35.99089 759.000
36.01084 741.000
36.03079 797.000
36.05073 761.000
36.07068 730.000
36.09063 787.000
36.11057 791.000
36.13052 748.000
36.15047 809.000
36.17041 767.000
36.19036 788.000
36.21031 762.000
36.23025 771.000
36.25020 760.000
36.27015 796.000
36.29010 811.000
36.31004 778.000
36.32999 824.000
36.34994 785.000
36.36988 839.000
36.38983 849.000
36.40978 844.000
36.42972 853.000
36.44967 889.000
36.46962 940.000
36.48957 968.000
36.50951 934.000
36.52946 1021.000
36.54941 1065.000
36.56935 1060.000
36.58930 1094.000
36.60925 1088.000
36.62919 1050.000
36.64914 1058.000
36.66909 1037.000
36.68903 986.000
36.70898 918.000
36.72893 911.000
36.74888 836.000
36.76882 843.000
36.78877 784.000
36.80872 804.000
36.82866 787.000
36.84861 786.000
36.86856 762.000
36.88850 781.000
36.90845 763.000
36.92840 769.000
36.94835 728.000
36.96829 711.000
36.98824 734.000
37.00819 770.000
37.02813 744.000
37.04808 693.000
37.06803 755.000
37.08797 684.000
37.10792 723.000
37.12787 754.000
37.14781 753.000
37.16776 735.000
37.18771 693.000
37.20766 723.000
37.22760 772.000
37.24755 696.000
37.26750 765.000
37.28744 798.000
37.30739 719.000
37.32734 726.000
37.34728 771.000
37.36723 745.000
37.38718 795.000
37.40713 742.000
37.42707 763.000
37.44702 792.000
37.46697 703.000
37.48691 757.000
37.50686 767.000
37.52681 760.000
37.54675 796.000
37.56670 797.000
37.58665 745.000
37.60660 800.000
37.62654 852.000
37.64649 825.000
37.66644 845.000
37.68638 871.000
37.70633 933.000
37.72628 979.000
37.74622 989.000
37.76617 1004.000
37.78612 1064.000
37.80606 1075.000
37.82601 1137.000
37.84596 1191.000
37.86591 1257.000
37.88585 1393.000
37.90580 1478.000
37.92575 1619.000
37.94569 1653.000
37.96564 1851.000
37.98559 1932.000
38.00553 2111.000
38.02548 2169.000
38.04543 2235.000
38.06538 2412.000
38.08532 2274.000
38.10527 2283.000
38.12522 2226.000
38.14516 2071.000
38.16511 2088.000
38.18506 1894.000
38.20500 1716.000
38.22495 1669.000
38.24490 1541.000
38.26484 1384.000
38.28479 1351.000
38.30474 1278.000
38.32469 1274.000
38.34463 1247.000
38.36458 1205.000
38.38453 1207.000
38.40447 1219.000
38.42442 1180.000
38.44437 1146.000
38.46431 1129.000
38.48426 1036.000
38.50421 989.000
38.52416 949.000
38.54410 960.000
38.56405 919.000
38.58400 918.000
38.60394 817.000
38.62389 821.000
38.64384 782.000
38.66378 808.000
38.68373 749.000
38.70368 688.000
38.72362 778.000
38.74357 755.000
38.76352 691.000
38.78347 752.000
38.80341 703.000
38.82336 735.000
38.84331 750.000
38.86325 719.000
38.88320 678.000
38.90315 711.000
38.92309 711.000
38.94304 728.000
38.96299 714.000
38.98294 742.000
39.00288 661.000
39.02283 708.000
39.04278 728.000
39.06272 733.000
39.08267 692.000
39.10262 717.000
39.12256 706.000
39.14251 700.000
39.16246 703.000
39.18241 695.000
39.20235 689.000
39.22230 700.000
39.24225 711.000
39.26219 663.000
39.28214 730.000
39.30209 715.000
39.32203 697.000
39.34198 741.000
39.36193 676.000
39.38187 681.000
39.40182 689.000
39.42177 718.000
39.44172 723.000
39.46166 739.000
39.48161 746.000
39.50156 669.000
39.52150 732.000
39.54145 702.000
39.56140 669.000
39.58134 645.000
39.60129 689.000
39.62124 749.000
39.64119 719.000
39.66113 702.000
39.68108 695.000
39.70103 684.000
39.72097 737.000
39.74092 683.000
39.76087 675.000
39.78081 723.000
39.80076 700.000
39.82071 675.000
39.84065 667.000
39.86060 683.000
39.88055 708.000
39.90050 755.000
39.92044 660.000
39.94039 711.000
39.96034 730.000
39.98028 688.000
40.00023 722.000
40.02018 674.000
40.04012 665.000
40.06007 696.000
40.08002 639.000
40.09997 696.000
40.11991 727.000
40.13986 706.000
40.15981 717.000
40.17975 629.000
40.19970 693.000
40.21965 722.000
40.23959 713.000
40.25954 724.000
40.27949 687.000
40.29943 688.000
40.31938 686.000
40.33933 679.000
40.35928 687.000
40.37922 690.000
40.39917 679.000
40.41912 681.000
40.43906 696.000
40.45901 673.000
40.47896 707.000
40.49890 702.000
40.51885 676.000
40.53880 720.000
40.55875 691.000
40.57869 697.000
40.59864 753.000
40.61859 667.000
40.63853 679.000
40.65848 675.000
40.67843 678.000
40.69837 636.000
40.71832 680.000
40.73827 723.000
40.75822 711.000
40.77816 678.000
40.79811 701.000
40.81806 669.000
40.83800 714.000
40.85795 706.000
40.87790 698.000
40.89784 689.000
40.91779 696.000
40.93774 693.000
40.95768 643.000
40.97763 670.000
40.99758 704.000
41.01753 674.000
41.03747 662.000
41.05742 690.000
41.07737 734.000
41.09731 700.000
41.11726 645.000
41.13721 681.000
41.15715 690.000
41.17710 668.000
41.19705 673.000
41.21700 713.000
41.23694 669.000
41.25689 691.000
41.27684 713.000
41.29678 690.000
41.31673 673.000
41.33668 627.000
41.35662 758.000
41.37657 685.000
41.39652 687.000
41.41646 704.000
41.43641 658.000
41.45636 695.000
41.47631 690.000
41.49625 627.000
41.51620 719.000
41.53615 685.000
41.55609 693.000
41.57604 760.000
41.59599 693.000
41.61593 638.000
41.63588 698.000
41.65583 726.000
41.67578 684.000
41.69572 663.000
41.71567 631.000
41.73562 738.000
41.75556 678.000
41.77551 716.000
41.79546 627.000
41.81540 691.000
41.83535 701.000
41.85530 657.000
41.87524 683.000
41.89519 688.000
41.91514 695.000
41.93509 658.000
41.95503 670.000
41.97498 632.000
41.99493 703.000
42.01487 693.000
42.03482 725.000
42.05477 633.000
42.07471 689.000
42.09466 655.000
42.11461 673.000
42.13456 741.000
42.15450 722.000
42.17445 674.000
42.19440 673.000
42.21434 718.000
42.23429 671.000
42.25424 748.000
42.27418 775.000
42.29413 750.000
42.31408 784.000
42.33403 791.000
42.35397 804.000
42.37392 808.000
42.39387 857.000
42.41381 893.000
42.43376 895.000
42.45371 946.000
42.47365 1011.000
42.49360 965.000
42.51355 1097.000
42.53349 1169.000
42.55344 1151.000
42.57339 1175.000
42.59334 1182.000
42.61328 1159.000
42.63323 1216.000
42.65318 1161.000
42.67312 1151.000
42.69307 1184.000
42.71302 1131.000
42.73296 1053.000
42.75291 1023.000
42.77286 977.000
42.79281 975.000
42.81275 870.000
42.83270 865.000
42.85265 831.000
42.87259 773.000
42.89254 733.000
42.91249 744.000
42.93243 755.000
42.95238 743.000
42.97233 738.000
42.99227 698.000
43.01222 690.000
43.03217 705.000
43.05212 665.000
43.07206 645.000
43.09201 690.000
43.11196 660.000
43.13190 697.000
43.15185 678.000
43.17180 698.000
43.19174 628.000
43.21169 632.000
43.23164 637.000
43.25159 639.000
43.27153 612.000
43.29148 627.000
43.31143 647.000
43.33137 654.000
43.35132 667.000
43.37127 669.000
43.39121 689.000
43.41116 649.000
43.43111 678.000
43.45105 597.000
43.47100 628.000
43.49095 699.000
43.51090 642.000
43.53084 648.000
43.55079 624.000
43.57074 656.000
43.59068 615.000
43.61063 647.000
43.63058 644.000
43.65052 631.000
43.67047 632.000
43.69042 587.000
43.71037 634.000
43.73031 624.000
43.75026 651.000
43.77021 680.000
43.79015 644.000
43.81010 619.000
43.83005 587.000
43.84999 612.000
43.86994 628.000
43.88989 614.000
43.90984 622.000
43.92978 619.000
43.94973 616.000
43.96968 606.000
43.98962 622.000
44.00957 645.000
44.02952 639.000
44.04946 600.000
44.06941 647.000
44.08936 618.000
44.10930 622.000
44.12925 654.000
44.14920 631.000
44.16915 608.000
44.18909 597.000
44.20904 595.000
44.22899 582.000
44.24893 592.000
44.26888 619.000
44.28883 631.000
44.30877 647.000
44.32872 600.000
44.34867 626.000
44.36862 641.000
44.38856 608.000
44.40851 600.000
44.42846 602.000
44.44840 608.000
44.46835 644.000
44.48830 656.000
44.50824 588.000
44.52819 573.000
44.54814 588.000
44.56808 595.000
44.58803 633.000
44.60798 633.000
44.62793 632.000
44.64787 599.000
44.66782 623.000
44.68777 603.000
44.70771 636.000
44.72766 555.000
44.74761 607.000
44.76755 607.000
44.78750 563.000
44.80745 613.000
44.82740 582.000
44.84734 616.000
44.86729 582.000
44.88724 616.000
44.90718 599.000
44.92713 632.000
44.94708 579.000
44.96702 642.000
44.98697 602.000
45.00692 610.000
45.02686 621.000
45.04681 539.000
45.06676 566.000
45.08671 652.000
45.10665 564.000
45.12660 601.000
45.14655 569.000
45.16649 620.000
45.18644 591.000
45.20639 559.000
45.22633 580.000
45.24628 571.000
45.26623 576.000
45.28618 567.000
45.30612 620.000
45.32607 582.000
45.34602 604.000
45.36596 546.000
45.38591 592.000
45.40586 556.000
45.42580 619.000
45.44575 595.000
45.46570 556.000
45.48565 598.000
45.50559 526.000
45.52554 599.000
45.54549 594.000
45.56543 622.000
45.58538 621.000
45.60533 608.000
45.62527 577.000
45.64522 626.000
45.66517 595.000
45.68511 643.000
45.70506 618.000
45.72501 619.000
45.74496 594.000
45.76490 657.000
45.78485 575.000
45.80480 599.000
45.82474 610.000
45.84469 560.000
45.86464 563.000
45.88458 605.000
45.90453 599.000
45.92448 581.000
45.94443 593.000
45.96437 523.000
45.98432 559.000
46.00427 603.000
46.02421 551.000
46.04416 578.000
46.06411 585.000
46.08405 571.000
46.10400 565.000
46.12395 580.000
46.14389 535.000
46.16384 540.000
46.18379 515.000
46.20374 561.000
46.22368 519.000
46.24363 547.000
46.26358 539.000
46.28352 570.000
46.30347 519.000
46.32342 585.000
46.34336 549.000
46.36331 579.000
46.38326 554.000
46.40321 555.000
46.42315 540.000
46.44310 523.000
46.46305 557.000
46.48299 560.000
46.50294 557.000
46.52289 558.000
46.54283 537.000
46.56278 527.000
46.58273 561.000
46.60267 597.000
46.62262 580.000
46.64257 567.000
46.66252 541.000
46.68246 581.000
46.70241 546.000
46.72236 566.000
46.74230 514.000
46.76225 517.000
46.78220 565.000
46.80214 538.000
46.82209 515.000
46.84204 589.000
46.86199 527.000
46.88193 544.000
46.90188 518.000
46.92183 531.000
46.94177 547.000
46.96172 532.000
46.98167 529.000
47.00161 550.000
47.02156 490.000
47.04151 545.000
47.06146 567.000
47.08140 581.000
47.10135 544.000
47.12130 577.000
47.14124 547.000
47.16119 487.000
47.18114 523.000
47.20108 560.000
47.22103 548.000
47.24098 534.000
47.26092 527.000
47.28087 506.000
47.30082 559.000
47.32077 556.000
47.34071 531.000
47.36066 489.000
47.38061 538.000
47.40055 570.000
47.42050 534.000
47.44045 578.000
47.46039 519.000
47.48034 522.000
47.50029 510.000
47.52024 569.000
47.54018 509.000
47.56013 577.000
47.58008 529.000
47.60002 543.000
47.61997 524.000
47.63992 544.000
47.65986 571.000
47.67981 502.000
47.69976 520.000
47.71970 493.000
47.73965 539.000
47.75960 530.000
47.77955 553.000
47.79949 504.000
47.81944 553.000
47.83939 519.000
47.85933 562.000
47.87928 543.000
47.89923 552.000
47.91917 541.000
47.93912 593.000
47.95907 564.000
47.97902 549.000
47.99896 600.000
48.01891 669.000
48.03886 654.000
48.05880 638.000
48.07875 648.000
48.09870 684.000
48.11864 677.000
48.13859 771.000
48.15854 841.000
48.17848 864.000
48.19843 826.000
48.21838 889.000
48.23833 945.000
48.25827 1009.000
48.27822 1037.000
48.29817 1029.000
48.31811 1049.000
48.33806 1073.000
48.35801 1045.000
48.37795 1006.000
48.39790 955.000
48.41785 973.000
48.43780 925.000
48.45774 883.000
48.47769 828.000
48.49764 842.000
48.51758 775.000
48.53753 688.000
48.55748 713.000
48.57742 676.000
48.59737 629.000
48.61732 635.000
48.63726 609.000
48.65721 636.000
48.67716 598.000
48.69711 539.000
48.71705 566.000
48.73700 556.000
48.75695 562.000
48.77689 524.000
48.79684 559.000
48.81679 549.000
48.83673 583.000
48.85668 521.000
48.87663 560.000
48.89658 542.000
48.91652 532.000
48.93647 521.000
48.95642 535.000
48.97636 512.000
48.99631 532.000
49.01626 568.000
49.03620 548.000
49.05615 499.000
49.07610 576.000
49.09605 489.000
49.11599 540.000
49.13594 529.000
49.15589 515.000
49.17583 496.000
49.19578 465.000
49.21573 547.000
49.23567 522.000
49.25562 521.000
49.27557 546.000
49.29551 542.000
49.31546 528.000
49.33541 528.000
49.35536 525.000
49.37530 472.000
49.39525 520.000
49.41520 509.000
49.43514 536.000
49.45509 522.000
49.47504 517.000
49.49498 530.000
49.51493 553.000
49.53488 542.000
49.55483 537.000
49.57477 489.000
49.59472 547.000
49.61467 533.000
49.63461 518.000
49.65456 529.000
49.67451 535.000
49.69445 520.000
49.71440 502.000
49.73435 493.000
49.75429 512.000
49.77424 541.000
49.79419 513.000
49.81414 495.000
49.83408 531.000
49.85403 524.000
49.87398 515.000
49.89392 466.000
49.91387 523.000
49.93382 504.000
49.95376 511.000
49.97371 519.000
49.99366 502.000
50.01361 519.000
50.03355 521.000
50.05350 517.000
50.07345 498.000
50.09339 499.000
50.11334 495.000
50.13329 513.000
50.15323 533.000
50.17318 514.000
50.19313 519.000
50.21307 527.000
50.23302 534.000
50.25297 513.000
50.27292 507.000
50.29286 519.000
50.31281 503.000
50.33276 461.000
50.35270 535.000
50.37265 524.000
50.39260 498.000
50.41254 528.000
50.43249 506.000
50.45244 505.000
50.47239 516.000
50.49233 511.000
50.51228 533.000
50.53223 498.000
50.55217 466.000
50.57212 546.000
50.59207 506.000
50.61201 531.000
50.63196 573.000
50.65191 536.000
50.67186 529.000
50.69180 504.000
50.71175 535.000
50.73170 557.000
50.75164 532.000
50.77159 552.000
50.79154 526.000
50.81148 498.000
50.83143 511.000
50.85138 475.000
50.87132 523.000
50.89127 507.000
50.91122 527.000
50.93117 508.000
50.95111 552.000
50.97106 504.000
50.99101 505.000
51.01095 484.000
51.03090 517.000
51.05085 506.000
51.07079 479.000
51.09074 516.000
51.11069 476.000
51.13064 505.000
51.15058 515.000
51.17053 517.000
51.19048 516.000
51.21042 504.000
51.23037 477.000
51.25032 492.000
51.27026 527.000
51.29021 518.000
51.31016 505.000
51.33010 532.000
51.35005 516.000
51.37000 517.000
51.38995 523.000
51.40989 486.000
51.42984 504.000
51.44979 505.000
51.46973 459.000
51.48968 515.000
51.50963 514.000
51.52957 505.000
51.54952 465.000
51.56947 519.000
51.58942 528.000
51.60936 473.000
51.62931 499.000
51.64926 485.000
51.66920 498.000
51.68915 493.000
51.70910 545.000
51.72904 495.000
51.74899 519.000
51.76894 425.000
51.78888 497.000
51.80883 533.000
51.82878 478.000
51.84873 505.000
51.86867 518.000
51.88862 504.000
51.90857 507.000
51.92851 518.000
51.94846 501.000
51.96841 490.000
51.98835 483.000
52.00830 518.000
52.02825 515.000
52.04820 503.000
52.06814 529.000
52.08809 509.000
52.10804 461.000
52.12798 499.000
52.14793 506.000
52.16788 549.000
52.18782 531.000
52.20777 550.000
52.22772 539.000
52.24767 522.000
52.26761 481.000
52.28756 519.000
52.30751 543.000
52.32745 527.000
52.34740 509.000
52.36735 488.000
52.38729 482.000
52.40724 520.000
52.42719 501.000
52.44713 557.000
52.46708 523.000
52.48703 557.000
52.50698 582.000
52.52692 530.000
52.54687 531.000
52.56682 580.000
52.58676 581.000
52.60671 507.000
52.62666 591.000
52.64660 575.000
52.66655 561.000
52.68650 581.000
52.70645 589.000
52.72639 621.000
52.74634 655.000
52.76629 592.000
52.78623 639.000
52.80618 642.000
52.82613 637.000
52.84607 631.000
52.86602 661.000
52.88597 651.000
52.90591 620.000
52.92586 620.000
52.94581 592.000
52.96576 630.000
52.98570 593.000
53.00565 582.000
53.02560 630.000
53.04554 584.000
53.06549 588.000
53.08544 605.000
53.10538 583.000
53.12533 510.000
53.14528 518.000
53.16523 596.000
53.18517 518.000
53.20512 524.000
53.22507 560.000
53.24501 556.000
53.26496 504.000
53.28491 533.000
53.30485 545.000
53.32480 541.000
53.34475 515.000
53.36469 531.000
53.38464 543.000
53.40459 509.000
53.42454 506.000
53.44448 539.000
53.46443 463.000
53.48438 532.000
53.50432 451.000
53.52427 537.000
53.54422 517.000
53.56416 449.000
53.58411 470.000
53.60406 504.000
53.62401 491.000
53.64395 478.000
53.66390 500.000
53.68385 462.000
53.70379 480.000
53.72374 477.000
53.74369 477.000
53.76363 484.000
53.78358 516.000
53.80353 470.000
53.82348 505.000
53.84342 466.000
53.86337 483.000
53.88332 480.000
53.90326 475.000
53.92321 462.000
53.94316 489.000
53.96310 491.000
53.98305 506.000
54.00300 502.000
54.02294 518.000
54.04289 538.000
54.06284 498.000
54.08279 497.000
54.10273 466.000
54.12268 492.000
54.14263 461.000
54.16257 519.000
54.18252 510.000
54.20247 515.000
54.22241 517.000
54.24236 491.000
54.26231 473.000
54.28226 502.000
54.30220 502.000
54.32215 473.000
54.34210 488.000
54.36204 479.000
54.38199 508.000
54.40194 510.000
54.42188 542.000
54.44183 476.000
54.46178 498.000
54.48172 518.000
54.50167 480.000
54.52162 502.000
54.54157 470.000
54.56151 519.000
54.58146 508.000
54.60141 476.000
54.62135 474.000
54.64130 502.000
54.66125 500.000
54.68119 518.000
54.70114 506.000
54.72109 463.000
54.74104 510.000
54.76098 528.000
54.78093 498.000
54.80088 559.000
54.82082 468.000
54.84077 517.000
54.86072 510.000
54.88066 477.000
54.90061 439.000
54.92056 488.000
54.94050 512.000
54.96045 485.000
54.98040 517.000
55.00035 468.000
55.02029 490.000
55.04024 517.000
55.06019 445.000
55.08013 472.000
55.10008 499.000
55.12003 470.000
55.13997 485.000
55.15992 497.000
55.17987 493.000
55.19982 512.000
55.21976 468.000
55.23971 496.000
55.25966 491.000
55.27960 498.000
55.29955 485.000
55.31950 495.000
55.33944 454.000
55.35939 430.000
55.37934 498.000
55.39929 474.000
55.41923 471.000
55.43918 466.000
55.45913 455.000
55.47907 472.000
55.49902 439.000
55.51897 486.000
55.53891 491.000
55.55886 482.000
55.57881 512.000
55.59875 492.000
55.61870 519.000
55.63865 489.000
55.65860 479.000
55.67854 499.000
55.69849 498.000
55.71844 503.000
55.73838 477.000
55.75833 455.000
55.77828 515.000
55.79822 472.000
55.81817 549.000
55.83812 504.000
55.85807 505.000
55.87801 525.000
55.89796 499.000
55.91791 465.000
55.93785 462.000
55.95780 470.000
55.97775 479.000
55.99769 510.000
56.01764 507.000
56.03759 475.000
56.05753 479.000
56.07748 507.000
56.09743 523.000
56.11738 521.000
56.13732 493.000
56.15727 503.000
56.17722 528.000
56.19716 498.000
56.21711 502.000
56.23706 512.000
56.25700 490.000
56.27695 485.000
56.29690 508.000
56.31685 473.000
56.33679 482.000
56.35674 466.000
56.37669 509.000
56.39663 501.000
56.41658 562.000
56.43653 494.000
56.45647 494.000
56.47642 526.000
56.49637 489.000
56.51631 511.000
56.53626 446.000
56.55621 560.000
56.57616 512.000
56.59610 505.000
56.61605 485.000
56.63600 507.000
56.65594 516.000
56.67589 521.000
56.69584 518.000
56.71578 568.000
56.73573 600.000
56.75568 585.000
56.77563 555.000
56.79557 563.000
56.81552 587.000
56.83547 579.000
56.85541 586.000
56.87536 558.000
56.89531 580.000
56.91525 568.000
56.93520 583.000
56.95515 591.000
56.97510 553.000
56.99504 531.000
57.01499 520.000
57.03494 542.000
57.05488 520.000
57.07483 540.000
57.09478 502.000
57.11472 521.000
57.13467 516.000
57.15462 496.000
57.17456 543.000
57.19451 531.000
57.21446 526.000
57.23441 467.000
57.25435 509.000
57.27430 521.000
57.29425 502.000
57.31419 535.000
57.33414 530.000
57.35409 548.000
57.37403 532.000
57.39398 527.000
57.41393 598.000
57.43388 614.000
57.45382 602.000
57.47377 672.000
57.49372 656.000
57.51366 710.000
57.53361 733.000
57.55356 740.000
57.57350 740.000
57.59345 719.000
57.61340 784.000
57.63334 739.000
57.65329 759.000
57.67324 821.000
57.69319 767.000
57.71313 749.000
57.73308 768.000
57.75303 739.000
57.77297 719.000
57.79292 684.000
57.81287 603.000
57.83281 674.000
57.85276 649.000
57.87271 603.000
57.89266 568.000
57.91260 561.000
57.93255 535.000
57.95250 545.000
57.97244 562.000
57.99239 552.000
58.01234 528.000
58.03228 554.000
58.05223 502.000
58.07218 500.000
58.09212 520.000
58.11207 504.000
58.13202 497.000
58.15197 464.000
58.17191 529.000
58.19186 465.000
58.21181 482.000
58.23175 505.000
58.25170 491.000
58.27165 455.000
58.29159 485.000
58.31154 458.000
58.33149 469.000
58.35144 503.000
58.37138 497.000
58.39133 441.000
58.41128 497.000
58.43122 441.000
58.45117 499.000
58.47112 510.000
58.49106 444.000
58.51101 492.000
58.53096 475.000
58.55090 481.000
58.57085 473.000
58.59080 467.000
58.61075 485.000
58.63069 451.000
58.65064 467.000
58.67059 456.000
58.69053 478.000
58.71048 471.000
58.73043 481.000
58.75037 468.000
58.77032 461.000
58.79027 480.000
58.81022 475.000
58.83016 462.000
58.85011 511.000
58.87006 462.000
58.89000 476.000
58.90995 526.000
58.92990 485.000
58.94984 518.000
58.96979 475.000
58.98974 481.000
59.00969 466.000
59.02963 453.000
59.04958 482.000
59.06953 503.000
59.08947 504.000
59.10942 498.000
59.12937 465.000
59.14931 480.000
59.16926 505.000
59.18921 455.000
59.20915 533.000
59.22910 502.000
59.24905 515.000
59.26900 516.000
59.28894 464.000
59.30889 485.000
59.32884 483.000
59.34878 504.000
59.36873 482.000
59.38868 509.000
59.40862 493.000
59.42857 454.000
59.44852 500.000
59.46847 518.000
59.48841 441.000
59.50836 475.000
59.52831 456.000
59.54825 510.000
59.56820 485.000
59.58815 501.000
59.60809 500.000
59.62804 512.000
59.64799 486.000
59.66793 485.000
59.68788 436.000
59.70783 469.000
59.72778 529.000
59.74772 479.000
59.76767 469.000
59.78762 495.000
59.80756 484.000
59.82751 526.000
59.84746 502.000
59.86740 467.000
59.88735 488.000
59.90730 487.000
59.92725 508.000
59.94719 467.000
59.96714 507.000
59.98709 465.000
60.00703 501.000
60.02698 483.000
60.04693 503.000
60.06687 502.000
60.08682 481.000
60.10677 504.000
60.12671 467.000
60.14666 450.000
60.16661 472.000
60.18656 487.000
60.20650 473.000
60.22645 508.000
60.24640 488.000
60.26634 496.000
60.28629 484.000
60.30624 483.000
60.32618 480.000
60.34613 512.000
60.36608 499.000
60.38603 454.000
60.40597 541.000
60.42592 500.000
60.44587 498.000
60.46581 491.000
60.48576 538.000
60.50571 541.000
60.52565 505.000
60.54560 479.000
60.56555 478.000
60.58550 493.000
60.60544 475.000
60.62539 555.000
60.64534 514.000
60.66528 534.000
60.68523 537.000
60.70518 532.000
60.72512 510.000
60.74507 529.000
60.76502 561.000
60.78496 559.000
60.80491 581.000
60.82486 629.000
60.84481 714.000
60.86475 622.000
60.88470 650.000
60.90465 733.000
60.92459 789.000
60.94454 818.000
60.96449 786.000
60.98443 877.000
61.00438 908.000
61.02433 891.000
61.04428 930.000
61.06422 871.000
61.08417 913.000
61.10412 893.000
61.12406 885.000
61.14401 871.000
61.16396 808.000
61.18390 764.000
61.20385 735.000
61.22380 707.000
61.24374 667.000
61.26369 635.000
61.28364 646.000
61.30359 607.000
61.32353 630.000
61.34348 521.000
61.36343 555.000
61.38337 522.000
61.40332 524.000
61.42327 537.000
61.44321 513.000
61.46316 522.000
61.48311 515.000
61.50306 495.000
61.52300 511.000
61.54295 508.000
61.56290 484.000
61.58284 500.000
61.60279 474.000
61.62274 503.000
61.64268 506.000
61.66263 486.000
61.68258 507.000
61.70252 488.000
61.72247 482.000
61.74242 481.000
61.76237 549.000
61.78231 514.000
61.80226 493.000
61.82221 508.000
61.84215 517.000
61.86210 556.000
61.88205 566.000
61.90199 595.000
61.92194 566.000
61.94189 569.000
61.96184 616.000
61.98178 636.000
62.00173 648.000
62.02168 712.000
62.04162 644.000
62.06157 687.000
62.08152 750.000
62.10146 718.000
62.12141 758.000
62.14136 796.000
62.16131 829.000
62.18125 765.000
62.20120 816.000
62.22115 803.000
62.24109 844.000
62.26104 796.000
62.28099 885.000
62.30093 761.000
62.32088 783.000
62.34083 756.000
62.36077 791.000
62.38072 773.000
62.40067 730.000
62.42062 726.000
62.44056 719.000
62.46051 682.000
62.48046 648.000
62.50040 660.000
62.52035 658.000
62.54030 620.000
62.56024 631.000
62.58019 612.000
62.60014 538.000
62.62009 587.000
62.64003 533.000
62.65998 568.000
62.67993 518.000
62.69987 505.000
62.71982 544.000
62.73977 537.000
62.75971 522.000
62.77966 487.000
62.79961 533.000
62.81955 510.000
62.83950 529.000
62.85945 506.000
62.87940 478.000
62.89934 452.000
62.91929 473.000
62.93924 478.000
62.95918 496.000
62.97913 502.000
62.99908 493.000
63.01902 442.000
63.03897 490.000
63.05892 543.000
63.07887 505.000
63.09881 505.000
63.11876 454.000
63.13871 476.000
63.15865 507.000
63.17860 437.000
63.19855 490.000
63.21849 502.000
63.23844 498.000
63.25839 497.000
63.27833 483.000
63.29828 479.000
63.31823 479.000
63.33818 551.000
63.35812 500.000
63.37807 469.000
63.39802 462.000
63.41796 501.000
63.43791 478.000
63.45786 514.000
63.47780 477.000
63.49775 444.000
63.51770 461.000
63.53765 524.000
63.55759 473.000
63.57754 462.000
63.59749 500.000
63.61743 460.000
63.63738 497.000
63.65733 478.000
63.67727 492.000
63.69722 486.000
63.71717 433.000
63.73712 468.000
63.75706 474.000
63.77701 450.000
63.79696 468.000
63.81690 479.000
63.83685 492.000
63.85680 462.000
63.87674 471.000
63.89669 471.000
63.91664 481.000
63.93658 475.000
63.95653 536.000
63.97648 485.000
63.99643 509.000
64.01637 473.000
64.03632 469.000
64.05627 483.000
64.07621 474.000
64.09616 461.000
64.11611 497.000
64.13605 475.000
64.15600 521.000
64.17595 525.000
64.19590 500.000
64.21584 460.000
64.23579 496.000
64.25574 517.000
64.27568 518.000
64.29563 447.000
64.31558 484.000
64.33552 485.000
64.35547 469.000
64.37542 491.000
64.39536 499.000
64.41531 492.000
64.43526 474.000
64.45521 471.000
64.47515 505.000
64.49510 464.000
64.51505 484.000
64.53499 482.000
64.55494 483.000
64.57489 538.000
64.59483 474.000
64.61478 468.000
64.63473 494.000
64.65468 509.000
64.67462 516.000
64.69457 514.000
64.71452 531.000
64.73446 520.000
64.75441 527.000
64.77436 522.000
64.79430 521.000
64.81425 540.000
64.83420 550.000
64.85414 589.000
64.87409 570.000
64.89404 557.000
64.91399 598.000
64.93393 550.000
64.95388 592.000
64.97383 593.000
64.99377 616.000
65.01372 671.000
65.03367 636.000
65.05361 639.000
65.07356 664.000
65.09351 671.000
65.11346 664.000
65.13340 692.000
65.15335 686.000
65.17330 707.000
65.19324 701.000
65.21319 717.000
65.23314 729.000
65.25308 723.000
65.27303 676.000
65.29298 668.000
65.31293 663.000
65.33287 651.000
65.35282 636.000
65.37277 645.000
65.39271 627.000
65.41266 594.000
65.43261 665.000
65.45255 637.000
65.47250 564.000
65.49245 583.000
65.51239 602.000
65.53234 600.000
65.55229 595.000
65.57224 601.000
65.59218 561.000
65.61213 620.000
65.63208 607.000
65.65202 630.000
65.67197 632.000
65.69192 684.000
65.71186 671.000
65.73181 749.000
65.75176 738.000
65.77171 746.000
65.79165 799.000
65.81160 773.000
65.83155 768.000
65.85149 724.000
65.87144 762.000
65.89139 756.000
65.91133 808.000
65.93128 760.000
65.95123 718.000
65.97117 711.000
65.99112 741.000
66.01107 676.000
66.03102 688.000
66.05096 635.000
66.07091 634.000
66.09086 572.000
66.11080 545.000
66.13075 580.000
66.15070 577.000
66.17064 534.000
66.19059 545.000
66.21054 578.000
66.23049 535.000
66.25043 512.000
66.27038 529.000
66.29033 530.000
66.31027 533.000
66.33022 490.000
66.35017 485.000
66.37011 529.000
66.39006 474.000
66.41001 483.000
66.42995 472.000
66.44990 500.000
66.46985 508.000
66.48980 499.000
66.50974 501.000
66.52969 463.000
66.54964 507.000
66.56958 486.000
66.58953 501.000
66.60948 494.000
66.62942 510.000
66.64937 493.000
66.66932 443.000
66.68927 492.000
66.70921 508.000
66.72916 519.000
66.74911 476.000
66.76905 437.000
66.78900 507.000
66.80895 503.000
66.82889 491.000
66.84884 492.000
66.86879 485.000
66.88874 517.000
66.90868 546.000
66.92863 534.000
66.94858 481.000
66.96852 530.000
66.98847 514.000
67.00842 522.000
67.02836 513.000
67.04831 564.000
67.06826 625.000
67.08820 614.000
67.10815 590.000
67.12810 633.000
67.14805 666.000
67.16799 670.000
67.18794 645.000
67.20789 703.000
67.22783 721.000
67.24778 674.000
67.26773 714.000
67.28767 742.000
67.30762 675.000
67.32757 730.000
67.34752 739.000
67.36746 749.000
67.38741 756.000
67.40736 794.000
67.42730 811.000
67.44725 788.000
67.46720 828.000
67.48714 744.000
67.50709 782.000
67.52704 757.000
67.54698 752.000
67.56693 795.000
67.58688 703.000
67.60683 735.000
67.62677 660.000
67.64672 734.000
67.66667 735.000
67.68661 646.000
67.70656 627.000
67.72651 626.000
67.74645 626.000
67.76640 614.000
67.78635 630.000
67.80630 529.000
67.82624 527.000
67.84619 524.000
67.86614 594.000
67.88608 503.000
67.90603 496.000
67.92598 474.000
67.94592 514.000
67.96587 501.000
67.98582 528.000
68.00576 510.000
68.02571 463.000
68.04566 506.000
68.06561 498.000
68.08555 446.000
68.10550 501.000
68.12545 468.000
68.14539 455.000
68.16534 490.000
68.18529 452.000
68.20523 502.000
68.22518 456.000
68.24513 464.000
68.26508 490.000
68.28502 515.000
68.30497 451.000
68.32492 441.000
68.34486 493.000
68.36481 454.000
68.38476 430.000
68.40470 490.000
68.42465 461.000
68.44460 456.000
68.46455 450.000
68.48449 458.000
68.50444 498.000
68.52439 466.000
68.54433 486.000
68.56428 477.000
68.58423 486.000
68.60417 462.000
68.62412 467.000
68.64407 491.000
68.66401 457.000
68.68396 446.000
68.70391 454.000
68.72386 473.000
68.74380 458.000
68.76375 466.000
68.78370 481.000
68.80364 459.000
68.82359 475.000
68.84354 421.000
68.86348 444.000
68.88343 452.000
68.90338 462.000
68.92333 445.000
68.94327 446.000
68.96322 438.000
68.98317 461.000
69.00311 465.000
69.02306 504.000
69.04301 427.000
69.06295 453.000
69.08290 416.000
69.10285 454.000
69.12279 440.000
69.14274 458.000
69.16269 392.000
69.18264 465.000
69.20258 431.000
69.22253 480.000
69.24248 478.000
69.26242 475.000
69.28237 436.000
69.30232 431.000
69.32226 453.000
69.34221 418.000
69.36216 473.000
69.38211 432.000
69.40205 449.000
69.42200 451.000
69.44195 430.000
69.46189 438.000
69.48184 424.000
69.50179 431.000
69.52173 461.000
69.54168 447.000
69.56163 443.000
69.58157 459.000
69.60152 435.000
69.62147 469.000
69.64142 469.000
69.66136 474.000
69.68131 492.000
69.70126 476.000
69.72120 444.000
69.74115 487.000
69.76110 461.000
69.78104 462.000
69.80099 447.000
69.82094 451.000
69.84089 416.000
69.86083 463.000
69.88078 460.000
69.90073 460.000
69.92067 455.000
69.94062 432.000
69.96057 444.000
69.98051 463.000
70.00046 410.000
70.02041 431.000
70.04035 472.000
70.06030 415.000
70.08025 444.000
70.10020 464.000
70.12014 450.000
70.14009 430.000
70.16004 455.000
70.17998 460.000
70.19993 459.000
70.21988 435.000
70.23982 464.000
70.25977 430.000
70.27972 462.000
70.29967 469.000
70.31961 418.000
70.33956 444.000
70.35951 444.000
70.37945 439.000
70.39940 481.000
70.41935 475.000
70.43929 446.000
70.45924 480.000
70.47919 442.000
70.49914 452.000
70.51908 436.000
70.53903 425.000
70.55898 455.000
70.57892 433.000
70.59887 503.000
70.61882 448.000
70.63876 518.000
70.65871 464.000
70.67866 469.000
70.69860 455.000
70.71855 469.000
70.73850 470.000
70.75845 438.000
70.77839 459.000
70.79834 487.000
70.81829 478.000
70.83823 459.000
70.85818 482.000
70.87813 443.000
70.89807 490.000
70.91802 515.000
70.93797 420.000
70.95792 467.000
70.97786 483.000
70.99781 430.000
71.01776 426.000
71.03770 483.000
71.05765 457.000
71.07760 461.000
71.09754 440.000
71.11749 486.000
71.13744 454.000
71.15738 473.000
71.17733 485.000
71.19728 454.000
71.21723 454.000
71.23717 459.000
71.25712 493.000
71.27707 445.000
71.29701 482.000
71.31696 437.000
71.33691 503.000
71.35685 470.000
71.37680 399.000
71.39675 467.000
71.41670 426.000
71.43664 465.000
71.45659 470.000
71.47654 476.000
71.49648 485.000
71.51643 466.000
71.53638 463.000
71.55632 449.000
71.57627 466.000
71.59622 525.000
71.61616 513.000
71.63611 488.000
71.65606 501.000
71.67601 520.000
71.69595 560.000
71.71590 528.000
71.73585 551.000
71.75579 537.000
71.77574 554.000
71.79569 578.000
71.81563 603.000
71.83558 607.000
71.85553 635.000
71.87548 547.000
71.89542 607.000
71.91537 561.000
71.93532 613.000
71.95526 581.000
71.97521 522.000
71.99516 585.000
72.01510 550.000
72.03505 509.000
72.05500 512.000
72.07495 488.000
72.09489 515.000
72.11484 572.000
72.13479 463.000
72.15473 491.000
72.17468 496.000
72.19463 488.000
72.21457 505.000
72.23452 447.000
72.25447 459.000
72.27441 467.000
72.29436 477.000
72.31431 511.000
72.33426 435.000
72.35420 488.000
72.37415 464.000
72.39410 433.000
72.41404 442.000
72.43399 478.000
72.45394 461.000
72.47388 472.000
72.49383 467.000
72.51378 490.000
72.53373 451.000
72.55367 460.000
72.57362 433.000
72.59357 457.000
72.61351 447.000
72.63346 440.000
72.65341 479.000
72.67335 443.000
72.69330 445.000
72.71325 457.000
72.73319 484.000
72.75314 469.000
72.77309 433.000
72.79304 448.000
72.81298 489.000
72.83293 439.000
72.85288 499.000
72.87282 431.000
72.89277 460.000
72.91272 472.000
72.93266 453.000
72.95261 486.000
72.97256 467.000
72.99251 467.000
73.01245 453.000
73.03240 415.000
73.05235 468.000
73.07229 455.000
73.09224 438.000
73.11219 454.000
73.13213 459.000
73.15208 445.000
73.17203 470.000
73.19197 451.000
73.21192 479.000
73.23187 459.000
73.25182 418.000
73.27176 454.000
73.29171 487.000
73.31166 407.000
73.33160 418.000
73.35155 416.000
73.37150 443.000
73.39144 449.000
73.41139 447.000
73.43134 389.000
73.45129 509.000
73.47123 454.000
73.49118 448.000
73.51113 464.000
73.53107 481.000
73.55102 455.000
73.57097 494.000
73.59091 504.000
73.61086 463.000
73.63081 425.000
73.65076 456.000
73.67070 465.000
73.69065 436.000
73.71060 451.000
73.73054 424.000
73.75049 433.000
73.77044 475.000
73.79038 458.000
73.81033 430.000
73.83028 470.000
73.85022 497.000
73.87017 464.000
73.89012 426.000
73.91007 479.000
73.93001 485.000
73.94996 441.000
73.96991 474.000
73.98985 501.000
74.00980 495.000
74.02975 492.000
74.04969 475.000
74.06964 465.000
74.08959 465.000
74.10954 513.000
74.12948 485.000
74.14943 515.000
74.16938 499.000
74.18932 516.000
74.20927 527.000
74.22922 461.000
74.24916 537.000
74.26911 534.000
74.28906 560.000
74.30900 554.000
74.32895 604.000
74.34890 565.000
74.36885 583.000
74.38879 587.000
74.40874 606.000
74.42869 672.000
74.44863 682.000
74.46858 608.000
74.48853 595.000
74.50847 634.000
74.52842 619.000
74.54837 606.000
74.56832 622.000
74.58826 625.000
74.60821 667.000
74.62816 686.000
74.64810 651.000
74.66805 637.000
74.68800 695.000
74.70794 723.000
74.72789 678.000
74.74784 710.000
74.76778 623.000
74.78773 690.000
74.80768 678.000
74.82763 607.000
74.84757 623.000
74.86752 599.000
74.88747 589.000
74.90741 591.000
74.92736 606.000
74.94731 578.000
74.96725 533.000
74.98720 560.000
75.00715 531.000
75.02710 544.000
75.04704 522.000
75.06699 491.000
75.08694 537.000
75.10688 471.000
75.12683 507.000
75.14678 531.000
75.16672 468.000
75.18667 521.000
75.20662 502.000
75.22657 501.000
75.24651 499.000
75.26646 431.000
75.28641 473.000
75.30635 474.000
75.32630 474.000
75.34625 462.000
75.36619 471.000
75.38614 439.000
75.40609 426.000
75.42603 427.000
75.44598 478.000
75.46593 450.000
75.48588 427.000
75.50582 479.000
75.52577 425.000
75.54572 432.000
75.56566 433.000
75.58561 464.000
75.60556 427.000
75.62550 434.000
75.64545 396.000
75.66540 475.000
75.68535 449.000
75.70529 463.000
75.72524 422.000
75.74519 471.000
75.76513 437.000
75.78508 451.000
75.80503 448.000
75.82497 421.000
75.84492 440.000
75.86487 424.000
75.88481 428.000
75.90476 389.000
75.92471 435.000
75.94466 451.000
75.96460 420.000
75.98455 446.000
76.00450 439.000
76.02444 421.000
76.04439 420.000
76.06434 452.000
76.08428 434.000
76.10423 423.000
76.12418 453.000
76.14413 426.000
76.16407 436.000
76.18402 430.000
76.20397 416.000
76.22391 418.000
76.24386 449.000
76.26381 425.000
76.28375 451.000
76.30370 400.000
76.32365 450.000
76.34359 435.000
76.36354 467.000
76.38349 419.000
76.40344 422.000
76.42338 403.000
76.44333 418.000
76.46328 396.000
76.48322 451.000
76.50317 424.000
76.52312 454.000
76.54306 425.000
76.56301 449.000
76.58296 422.000
76.60291 495.000
76.62285 426.000
76.64280 437.000
76.66275 461.000
76.68269 453.000
76.70264 430.000
76.72259 439.000
76.74253 438.000
76.76248 414.000
76.78243 423.000
76.80238 422.000
76.82232 392.000
76.84227 449.000
76.86222 406.000
76.88216 433.000
76.90211 422.000
76.92206 393.000
76.94200 440.000
76.96195 407.000
76.98190 416.000
77.00184 411.000
77.02179 433.000
77.04174 462.000
77.06169 420.000
77.08163 418.000
77.10158 435.000
77.12153 461.000
77.14147 419.000
77.16142 427.000
77.18137 451.000
77.20131 448.000
77.22126 420.000
77.24121 424.000
77.26116 441.000
77.28110 442.000
77.30105 416.000
77.32100 441.000
77.34094 420.000
77.36089 416.000
77.38084 421.000
77.40078 427.000
77.42073 428.000
77.44068 423.000
77.46062 466.000
77.48057 455.000
77.50052 416.000
77.52047 419.000
77.54041 410.000
77.56036 405.000
77.58031 427.000
77.60025 444.000
77.62020 467.000
77.64015 439.000
77.66009 426.000
77.68004 439.000
77.69999 396.000
77.71994 429.000
77.73988 413.000
77.75983 406.000
77.77978 440.000
77.79972 425.000
77.81967 400.000
77.83962 410.000
77.85956 461.000
77.87951 447.000
77.89946 411.000
77.91940 430.000
77.93935 423.000
77.95930 445.000
77.97925 413.000
77.99919 431.000
78.01914 370.000
78.03909 470.000
78.05903 415.000
78.07898 451.000
78.09893 440.000
78.11887 443.000
78.13882 431.000
78.15877 441.000
78.17872 428.000
78.19866 458.000
78.21861 425.000
78.23856 465.000
78.25850 448.000
78.27845 470.000
78.29840 441.000
78.31834 392.000
78.33829 461.000
78.35824 433.000
78.37819 444.000
78.39813 438.000
78.41808 412.000
78.43803 435.000
78.45797 474.000
78.47792 439.000
78.49787 460.000
78.51781 430.000
78.53776 471.000
78.55771 521.000
78.57765 481.000
78.59760 488.000
78.61755 470.000
78.63750 497.000
78.65744 512.000
78.67739 497.000
78.69734 501.000
78.71728 500.000
78.73723 522.000
78.75718 509.000
78.77712 502.000
78.79707 491.000
78.81702 492.000
78.83697 507.000
78.85691 499.000
78.87686 514.000
78.89681 468.000
78.91675 465.000
78.93670 456.000
78.95665 451.000
78.97659 500.000
78.99654 479.000
79.01649 474.000
79.03643 490.000
79.05638 485.000
79.07633 467.000
79.09628 488.000
79.11622 458.000
79.13617 446.000
79.15612 431.000
79.17606 433.000
79.19601 454.000
79.21596 452.000
79.23590 456.000
79.25585 439.000
79.27580 451.000
79.29575 454.000
79.31569 460.000
79.33564 445.000
79.35559 435.000
79.37553 415.000
79.39548 422.000
79.41543 450.000
79.43537 446.000
79.45532 454.000
79.47527 436.000
79.49521 425.000
79.51516 409.000
79.53511 445.000
79.55506 438.000
79.57500 417.000
79.59495 441.000
79.61490 471.000
79.63484 443.000
79.65479 427.000
79.67474 484.000
79.69468 428.000
79.71463 483.000
79.73458 478.000
79.75453 463.000
79.77447 454.000
79.79442 468.000
79.81437 475.000
79.83431 469.000
79.85426 462.000
79.87421 491.000
79.89415 477.000
79.91410 522.000
79.93405 498.000
79.95399 459.000
79.97394 455.000
79.99389 440.000
80.01384 486.000
80.03378 431.000
80.05373 426.000
80.07368 461.000
80.09362 466.000
80.11357 477.000
80.13352 428.000
80.15346 468.000
80.17341 495.000
80.19336 464.000
80.21331 499.000
80.23325 458.000
80.25320 416.000
80.27315 442.000
80.29309 452.000
80.31304 492.000
80.33299 421.000
80.35293 437.000
80.37288 428.000
80.39283 405.000
80.41278 377.000
80.43272 434.000
80.45267 447.000
80.47262 441.000
80.49256 425.000
80.51251 407.000
80.53246 441.000
80.55240 416.000
80.57235 440.000
80.59230 425.000
80.61224 409.000
80.63219 462.000
80.65214 450.000
80.67209 419.000
80.69203 414.000
80.71198 402.000
80.73193 408.000
80.75187 429.000
80.77182 421.000
80.79177 415.000
80.81171 432.000
80.83166 440.000
80.85161 445.000
80.87156 451.000
80.89150 445.000
80.91145 417.000
80.93140 404.000
80.95134 411.000
80.97129 413.000
80.99124 438.000
81.01118 419.000
81.03113 405.000
81.05108 431.000
81.07102 446.000
81.09097 422.000
81.11092 425.000
81.13087 431.000
81.15081 397.000
81.17076 442.000
81.19071 453.000
81.21065 447.000
81.23060 419.000
81.25055 417.000
81.27049 453.000
81.29044 419.000
81.31039 423.000
81.33034 414.000
81.35028 388.000
81.37023 400.000
81.39018 434.000
81.41012 414.000
81.43007 414.000
81.45002 418.000
81.46996 442.000
81.48991 498.000
81.50986 427.000
81.52980 450.000
81.54975 402.000
81.56970 416.000
81.58965 433.000
81.60959 466.000
81.62954 462.000
81.64949 438.000
81.66943 418.000
81.68938 431.000
81.70933 427.000
81.72927 478.000
81.74922 407.000
81.76917 437.000
81.78912 445.000
81.80906 443.000
81.82901 433.000
81.84896 460.000
81.86890 477.000
81.88885 441.000
81.90880 426.000
81.92874 481.000
81.94869 466.000
81.96864 463.000
81.98859 502.000
82.00853 488.000
82.02848 526.000
82.04843 503.000
82.06837 533.000
82.08832 493.000
82.10827 464.000
82.12821 483.000
82.14816 541.000
82.16811 565.000
82.18805 570.000
82.20800 545.000
82.22795 580.000
82.24790 557.000
82.26784 503.000
82.28779 553.000
82.30774 565.000
82.32768 554.000
82.34763 555.000
82.36758 550.000
82.38752 523.000
82.40747 491.000
82.42742 530.000
82.44737 583.000
82.46731 534.000
82.48726 523.000
82.50721 493.000
82.52715 500.000
82.54710 492.000
82.56705 465.000
82.58699 496.000
82.60694 473.000
82.62689 450.000
82.64683 472.000
82.66678 497.000
82.68673 489.000
82.70668 487.000
82.72662 442.000
82.74657 447.000
82.76652 466.000
82.78646 425.000
82.80641 437.000
82.82636 503.000
82.84630 458.000
82.86625 410.000
82.88620 461.000
82.90615 493.000
82.92609 432.000
82.94604 402.000
82.96599 466.000
82.98593 451.000
83.00588 465.000
83.02583 482.000
83.04577 495.000
83.06572 485.000
83.08567 493.000
83.10561 504.000
83.12556 470.000
83.14551 509.000
83.16546 524.000
83.18540 515.000
83.20535 494.000
83.22530 501.000
83.24524 479.000
83.26519 452.000
83.28514 488.000
83.30508 501.000
83.32503 474.000
83.34498 484.000
83.36493 469.000
83.38487 448.000
83.40482 452.000
83.42477 483.000
83.44471 466.000
83.46466 487.000
83.48461 511.000
83.50455 447.000
83.52450 459.000
83.54445 428.000
83.56440 480.000
83.58434 447.000
83.60429 488.000
83.62424 402.000
83.64418 436.000
83.66413 493.000
83.68408 453.000
83.70402 434.000
83.72397 450.000
83.74392 487.000
83.76386 468.000
83.78381 429.000
83.80376 454.000
83.82371 452.000
83.84365 424.000
83.86360 455.000
83.88355 394.000
83.90349 462.000
83.92344 458.000
83.94339 426.000
83.96333 423.000
83.98328 466.000
84.00323 433.000
84.02318 435.000
84.04312 440.000
84.06307 451.000
84.08302 412.000
84.10296 418.000
84.12291 419.000
84.14286 413.000
84.16280 450.000
84.18275 385.000
84.20270 425.000
84.22264 419.000
84.24259 436.000
84.26254 449.000
84.28249 432.000
84.30243 445.000
84.32238 452.000
84.34233 413.000
84.36227 423.000
84.38222 430.000
84.40217 463.000
84.42211 440.000
84.44206 435.000
84.46201 425.000
84.48196 408.000
84.50190 417.000
84.52185 402.000
84.54180 394.000
84.56174 423.000
84.58169 426.000
84.60164 425.000
84.62158 447.000
84.64153 410.000
84.66148 409.000
84.68142 477.000
84.70137 461.000
84.72132 425.000
84.74127 412.000
84.76121 456.000
84.78116 428.000
84.80111 457.000
84.82105 417.000
84.84100 406.000
84.86095 448.000
84.88089 392.000
84.90084 440.000
84.92079 411.000
84.94074 453.000
84.96068 426.000
84.98063 399.000
85.00058 428.000
85.02052 427.000
85.04047 433.000
85.06042 448.000
85.08036 399.000
85.10031 448.000
85.12026 425.000
85.14021 407.000
85.16015 421.000
85.18010 422.000
85.20005 444.000
85.21999 407.000
85.23994 422.000
85.25989 393.000
85.27983 436.000
85.29978 425.000
85.31973 433.000
85.33967 411.000
85.35962 421.000
85.37957 407.000
85.39952 444.000
85.41946 439.000
85.43941 443.000
85.45936 470.000
85.47930 421.000
85.49925 429.000
85.51920 439.000
85.53914 431.000
85.55909 473.000
85.57904 446.000
85.59899 446.000
85.61893 435.000
85.63888 430.000
85.65883 407.000
85.67877 425.000
85.69872 425.000
85.71867 436.000
85.73861 426.000
85.75856 430.000
85.77851 429.000
85.79845 401.000
85.81840 425.000
85.83835 458.000
85.85830 410.000
85.87824 425.000
85.89819 464.000
85.91814 408.000
85.93808 404.000
85.95803 417.000
85.97798 463.000
85.99792 442.000
86.01787 459.000
86.03782 422.000
86.05777 406.000
86.07771 465.000
86.09766 410.000
86.11761 430.000
86.13755 445.000
86.15750 438.000
86.17745 443.000
86.19739 474.000
86.21734 401.000
86.23729 454.000
86.25723 415.000
86.27718 468.000
86.29713 418.000
86.31708 478.000
86.33702 433.000
86.35697 458.000
86.37692 438.000
86.39686 440.000
86.41681 451.000
86.43676 397.000
86.45670 463.000
86.47665 438.000
86.49660 438.000
86.51655 424.000
86.53649 436.000
86.55644 427.000
86.57639 459.000
86.59633 479.000
86.61628 443.000
86.63623 509.000
86.65617 483.000
86.67612 461.000
86.69607 436.000
86.71602 436.000
86.73596 429.000
86.75591 426.000
86.77586 467.000
86.79580 465.000
86.81575 464.000
86.83570 383.000
86.85564 491.000
86.87559 464.000
86.89554 455.000
86.91548 460.000
86.93543 495.000
86.95538 438.000
86.97533 436.000
86.99527 471.000
87.01522 457.000
87.03517 446.000
87.05511 496.000
87.07506 417.000
87.09501 438.000
87.11495 411.000
87.13490 464.000
87.15485 458.000
87.17480 428.000
87.19474 425.000
87.21469 433.000
87.23464 447.000
87.25458 472.000
87.27453 424.000
87.29448 449.000
87.31442 440.000
87.33437 432.000
87.35432 456.000
87.37426 442.000
87.39421 451.000
87.41416 456.000
87.43411 398.000
87.45405 452.000
87.47400 467.000
87.49395 436.000
87.51389 426.000
87.53384 406.000
87.55379 394.000
87.57373 429.000
87.59368 453.000
87.61363 425.000
87.63358 444.000
87.65352 424.000
87.67347 434.000
87.69342 431.000
87.71336 439.000
87.73331 428.000
87.75326 431.000
87.77320 434.000
87.79315 397.000
87.81310 427.000
87.83304 388.000
87.85299 426.000
87.87294 393.000
87.89289 397.000
87.91283 441.000
87.93278 427.000
87.95273 431.000
87.97267 414.000
87.99262 455.000
88.01257 442.000
88.03251 405.000
88.05246 436.000
88.07241 433.000
88.09236 400.000
88.11230 448.000
88.13225 439.000
88.15220 440.000
88.17214 416.000
88.19209 425.000
88.21204 427.000
88.23198 447.000
88.25193 437.000
88.27188 452.000
88.29183 449.000
88.31177 438.000
88.33172 420.000
88.35167 427.000
88.37161 463.000
88.39156 413.000
88.41151 437.000
88.43145 445.000
88.45140 461.000
88.47135 435.000
88.49129 442.000
88.51124 410.000
88.53119 452.000
88.55114 404.000
88.57108 454.000
88.59103 455.000
88.61098 434.000
88.63092 431.000
88.65087 441.000
88.67082 440.000
88.69076 426.000
88.71071 441.000
88.73066 466.000
88.75061 444.000
88.77055 413.000
88.79050 449.000
88.81045 507.000
88.83039 465.000
88.85034 465.000
88.87029 481.000
88.89023 440.000
88.91018 464.000
88.93013 451.000
88.95007 456.000
88.97002 453.000
88.98997 467.000
89.00992 468.000
89.02986 425.000
89.04981 477.000
89.06976 449.000
89.08970 490.000
89.10965 477.000
89.12960 449.000
89.14954 497.000
89.16949 514.000
89.18944 490.000
89.20939 513.000
89.22933 469.000
89.24928 476.000
89.26923 508.000
89.28917 479.000
89.30912 460.000
89.32907 476.000
89.34901 450.000
89.36896 460.000
89.38891 466.000
89.40885 447.000
89.42880 434.000
89.44875 482.000
89.46870 453.000
89.48864 486.000
89.50859 467.000
89.52854 503.000
89.54848 473.000
89.56843 463.000
89.58838 486.000
89.60832 482.000
89.62827 422.000
89.64822 431.000
89.66817 465.000
89.68811 420.000
89.70806 434.000
89.72801 453.000
89.74795 440.000
89.76790 437.000
89.78785 452.000
89.80779 476.000
89.82774 449.000
89.84769 498.000
89.86764 470.000
89.88758 452.000
89.90753 459.000
89.92748 504.000
89.94742 421.000
89.96737 473.000
89.98732 460.000
90.00726 490.000
