10.00000 46.000
10.01995 71.000
10.03989 53.000
10.05984 57.000
10.07979 65.000
10.09973 64.000
10.11968 57.000
10.13963 45.000
10.15958 62.000
10.17952 59.000
10.19947 39.000
10.21942 55.000
10.23936 70.000
10.25931 55.000
10.27926 48.000
10.29920 54.000
10.31915 58.000
10.33910 50.000
10.35905 65.000
10.37899 58.000
10.39894 45.000
10.41889 61.000
10.43883 50.000
10.45878 50.000
10.47873 48.000
10.49867 53.000
10.51862 59.000
10.53857 54.000
10.55851 54.000
10.57846 48.000
10.59841 57.000
10.61836 44.000
10.63830 60.000
10.65825 55.000
10.67820 56.000
10.69814 58.000
10.71809 51.000
10.73804 48.000
10.75798 71.000
10.77793 49.000
10.79788 70.000
10.81783 48.000
10.83777 55.000
10.85772 53.000
10.87767 49.000
10.89761 44.000
10.91756 51.000
10.93751 46.000
10.95745 48.000
10.97740 41.000
10.99735 62.000
11.01730 65.000
11.03724 55.000
11.05719 60.000
11.07714 55.000
11.09708 55.000
11.11703 55.000
11.13698 54.000
11.15692 46.000
11.17687 52.000
11.19682 53.000
11.21676 49.000
11.23671 60.000
11.25666 51.000
11.27661 45.000
11.29655 60.000
11.31650 57.000
11.33645 69.000
11.35639 45.000
11.37634 65.000
11.39629 64.000
11.41623 55.000
11.43618 47.000
11.45613 50.000
11.47608 56.000
11.49602 47.000
11.51597 46.000
11.53592 43.000
11.55586 44.000
11.57581 53.000
11.59576 54.000
11.61570 73.000
11.63565 54.000
11.65560 56.000
11.67554 49.000
11.69549 47.000
11.71544 51.000
11.73539 44.000
11.75533 59.000
11.77528 53.000
11.79523 37.000
11.81517 68.000
11.83512 48.000
11.85507 39.000
11.87501 54.000
11.89496 62.000
11.91491 45.000
11.93486 53.000
11.95480 50.000
11.97475 69.000
11.99470 54.000
12.01464 52.000
12.03459 54.000
12.05454 53.000
12.07448 42.000
12.09443 42.000
12.11438 45.000
12.13432 46.000
12.15427 55.000
12.17422 56.000
12.19417 52.000
12.21411 56.000
12.23406 47.000
12.25401 59.000
12.27395 45.000
12.29390 64.000
12.31385 51.000
12.33379 58.000
12.35374 52.000
12.37369 51.000
12.39364 46.000
12.41358 62.000
12.43353 49.000
12.45348 49.000
12.47342 49.000
12.49337 55.000
12.51332 49.000
12.53326 54.000
12.55321 58.000
12.57316 53.000
12.59311 42.000
12.61305 55.000
12.63300 45.000
12.65295 48.000
12.67289 57.000
12.69284 39.000
12.71279 55.000
12.73273 43.000
12.75268 43.000
12.77263 49.000
12.79257 44.000
12.81252 51.000
12.83247 41.000
12.85242 50.000
12.87236 41.000
12.89231 38.000
12.91226 57.000
12.93220 53.000
12.95215 45.000
12.97210 48.000
12.99204 38.000
13.01199 55.000
13.03194 43.000
13.05189 43.000
13.07183 33.000
13.09178 52.000
13.11173 45.000
13.13167 46.000
13.15162 40.000
13.17157 47.000
13.19151 45.000
13.21146 54.000
13.23141 53.000
13.25135 47.000
13.27130 53.000
13.29125 41.000
13.31120 51.000
13.33114 58.000
13.35109 35.000
13.37104 47.000
13.39098 58.000
13.41093 49.000
13.43088 46.000
13.45082 57.000
13.47077 52.000
13.49072 51.000
13.51067 44.000
13.53061 48.000
13.55056 53.000
13.57051 50.000
13.59045 43.000
13.61040 39.000
13.63035 51.000
13.65029 42.000
13.67024 49.000
13.69019 54.000
13.71013 41.000
13.73008 38.000
13.75003 43.000
13.76998 50.000
13.78992 59.000
13.80987 36.000
13.82982 46.000
13.84976 48.000
13.86971 46.000
13.88966 53.000
13.90960 56.000
13.92955 52.000
13.94950 36.000
13.96945 56.000
13.98939 53.000
14.00934 34.000
14.02929 45.000
14.04923 55.000
14.06918 50.000
14.08913 64.000
14.10907 52.000
14.12902 52.000
14.14897 64.000
14.16892 49.000
14.18886 62.000
14.20881 55.000
14.22876 52.000
14.24870 49.000
14.26865 52.000
14.28860 52.000
14.30854 42.000
14.32849 41.000
14.34844 41.000
14.36838 61.000
14.38833 45.000
14.40828 48.000
14.42823 70.000
14.44817 48.000
14.46812 46.000
14.48807 54.000
14.50801 51.000
14.52796 57.000
14.54791 51.000
14.56785 66.000
14.58780 55.000
14.60775 56.000
14.62770 59.000
14.64764 62.000
14.66759 49.000
14.68754 79.000
14.70748 46.000
14.72743 53.000
14.74738 57.000
14.76732 63.000
14.78727 57.000
14.80722 52.000
14.82716 54.000
14.84711 41.000
14.86706 55.000
14.88701 49.000
14.90695 66.000
14.92690 55.000
14.94685 51.000
14.96679 43.000
14.98674 57.000
15.00669 54.000
15.02663 59.000
15.04658 55.000
15.06653 56.000
15.08648 40.000
15.10642 53.000
15.12637 46.000
15.14632 60.000
15.16626 56.000
15.18621 68.000
15.20616 68.000
15.22610 55.000
15.24605 68.000
15.26600 54.000
15.28594 68.000
15.30589 58.000
15.32584 41.000
15.34579 62.000
15.36573 67.000
15.38568 57.000
15.40563 58.000
15.42557 71.000
15.44552 61.000
15.46547 70.000
15.48541 84.000
15.50536 69.000
15.52531 70.000
15.54526 88.000
15.56520 125.000
15.58515 118.000
15.60510 121.000
15.62504 155.000
15.64499 166.000
15.66494 190.000
15.68488 156.000
15.70483 178.000
15.72478 193.000
15.74472 175.000
15.76467 184.000
15.78462 165.000
15.80457 128.000
15.82451 154.000
15.84446 160.000
15.86441 171.000
15.88435 179.000
15.90430 212.000
15.92425 243.000
15.94419 269.000
15.96414 317.000
15.98409 343.000
16.00404 395.000
16.02398 468.000
16.04393 508.000
16.06388 502.000
16.08382 530.000
16.10377 619.000
16.12372 608.000
16.14366 682.000
16.16361 708.000
16.18356 759.000
16.20351 822.000
16.22345 817.000
16.24340 884.000
16.26335 933.000
16.28329 971.000
16.30324 1001.000
16.32319 1067.000
16.34313 1030.000
16.36308 977.000
16.38303 844.000
16.40297 739.000
16.42292 570.000
16.44287 501.000
16.46282 417.000
16.48276 335.000
16.50271 266.000
16.52266 250.000
16.54260 242.000
16.56255 188.000
16.58250 183.000
16.60244 155.000
16.62239 172.000
16.64234 132.000
16.66229 141.000
16.68223 148.000
16.70218 121.000
16.72213 120.000
16.74207 104.000
16.76202 119.000
16.78197 104.000
16.80191 98.000
16.82186 105.000
16.84181 115.000
16.86175 99.000
16.88170 84.000
16.90165 72.000
16.92160 85.000
16.94154 88.000
16.96149 87.000
16.98144 98.000
17.00138 104.000
17.02133 92.000
17.04128 81.000
17.06122 76.000
17.08117 74.000
17.10112 87.000
17.12107 82.000
17.14101 63.000
17.16096 78.000
17.18091 67.000
17.20085 67.000
17.22080 61.000
17.24075 76.000
17.26069 66.000
17.28064 79.000
17.30059 77.000
17.32053 67.000
17.34048 72.000
17.36043 54.000
17.38038 54.000
17.40032 64.000
17.42027 42.000
17.44022 52.000
17.46016 58.000
17.48011 50.000
17.50006 44.000
17.52000 67.000
17.53995 68.000
17.55990 74.000
17.57985 40.000
17.59979 53.000
17.61974 64.000
17.63969 61.000
17.65963 66.000
17.67958 46.000
17.69953 47.000
17.71947 43.000
17.73942 47.000
17.75937 53.000
17.77932 48.000
17.79926 44.000
17.81921 58.000
17.83916 44.000
17.85910 57.000
17.87905 49.000
17.89900 67.000
17.91894 47.000
17.93889 52.000
17.95884 42.000
17.97878 49.000
17.99873 41.000
18.01868 46.000
18.03863 49.000
18.05857 62.000
18.07852 66.000
18.09847 50.000
18.11841 47.000
18.13836 66.000
18.15831 62.000
18.17825 64.000
18.19820 72.000
18.21815 79.000
18.23810 96.000
18.25804 105.000
18.27799 105.000
18.29794 135.000
18.31788 123.000
18.33783 147.000
18.35778 116.000
18.37772 115.000
18.39767 98.000
18.41762 87.000
18.43756 79.000
18.45751 60.000
18.47746 57.000
18.49741 54.000
18.51735 62.000
18.53730 62.000
18.55725 39.000
18.57719 42.000
18.59714 45.000
18.61709 55.000
18.63703 46.000
18.65698 47.000
18.67693 38.000
18.69688 38.000
18.71682 59.000
18.73677 55.000
18.75672 49.000
18.77666 39.000
18.79661 44.000
18.81656 58.000
18.83650 55.000
18.85645 49.000
18.87640 43.000
18.89634 54.000
18.91629 46.000
18.93624 41.000
18.95619 34.000
18.97613 38.000
18.99608 49.000
19.01603 56.000
19.03597 46.000
19.05592 43.000
19.07587 51.000
19.09581 52.000
19.11576 36.000
19.13571 50.000
19.15566 45.000
19.17560 40.000
19.19555 42.000
19.21550 45.000
19.23544 42.000
19.25539 40.000
19.27534 43.000
19.29528 42.000
19.31523 59.000
19.33518 54.000
19.35513 52.000
19.37507 48.000
19.39502 38.000
19.41497 47.000
19.43491 44.000
19.45486 41.000
19.47481 51.000
19.49475 52.000
19.51470 41.000
19.53465 39.000
19.55459 43.000
19.57454 57.000
19.59449 38.000
19.61444 56.000
19.63438 46.000
19.65433 36.000
19.67428 42.000
19.69422 44.000
19.71417 43.000
19.73412 57.000
19.75406 42.000
19.77401 33.000
19.79396 40.000
19.81391 58.000
19.83385 47.000
19.85380 45.000
19.87375 48.000
19.89369 50.000
19.91364 48.000
19.93359 41.000
19.95353 41.000
19.97348 55.000
19.99343 47.000
20.01337 53.000
20.03332 42.000
20.05327 45.000
20.07322 61.000
20.09316 43.000
20.11311 36.000
20.13306 44.000
20.15300 52.000
20.17295 36.000
20.19290 36.000
20.21284 51.000
20.23279 65.000
20.25274 52.000
20.27269 47.000
20.29263 59.000
20.31258 47.000
20.33253 48.000
20.35247 36.000
20.37242 52.000
20.39237 58.000
20.41231 60.000
20.43226 59.000
20.45221 69.000
20.47215 84.000
20.49210 90.000
20.51205 82.000
20.53200 86.000
20.55194 98.000
20.57189 86.000
20.59184 92.000
20.61178 104.000
20.63173 99.000
20.65168 110.000
20.67162 112.000
20.69157 117.000
20.71152 104.000
20.73147 124.000
20.75141 104.000
20.77136 105.000
20.79131 98.000
20.81125 97.000
20.83120 91.000
20.85115 103.000
20.87109 103.000
20.89104 78.000
20.91099 74.000
20.93094 66.000
20.95088 63.000
20.97083 47.000
20.99078 66.000
21.01072 41.000
21.03067 45.000
21.05062 57.000
21.07056 41.000
21.09051 46.000
21.11046 40.000
21.13040 43.000
21.15035 36.000
21.17030 54.000
21.19025 45.000
21.21019 56.000
21.23014 45.000
21.25009 39.000
21.27003 45.000
21.28998 45.000
21.30993 42.000
21.32987 54.000
21.34982 47.000
21.36977 46.000
21.38972 41.000
21.40966 42.000
21.42961 51.000
21.44956 51.000
21.46950 44.000
21.48945 36.000
21.50940 44.000
21.52934 46.000
21.54929 47.000
21.56924 46.000
21.58918 43.000
21.60913 34.000
21.62908 35.000
21.64903 40.000
21.66897 41.000
21.68892 41.000
21.70887 37.000
21.72881 46.000
21.74876 47.000
21.76871 40.000
21.78865 34.000
21.80860 40.000
21.82855 34.000
21.84850 47.000
21.86844 42.000
21.88839 34.000
21.90834 39.000
21.92828 51.000
21.94823 44.000
21.96818 37.000
21.98812 35.000
22.00807 47.000
22.02802 37.000
22.04796 52.000
22.06791 47.000
22.08786 41.000
22.10781 38.000
22.12775 39.000
22.14770 48.000
22.16765 43.000
22.18759 52.000
22.20754 42.000
22.22749 40.000
22.24743 45.000
22.26738 55.000
22.28733 40.000
22.30728 36.000
22.32722 41.000
22.34717 31.000
22.36712 49.000
22.38706 45.000
22.40701 41.000
22.42696 39.000
22.44690 39.000
22.46685 33.000
22.48680 40.000
22.50675 42.000
22.52669 47.000
22.54664 40.000
22.56659 46.000
22.58653 24.000
22.60648 47.000
22.62643 39.000
22.64637 43.000
22.66632 44.000
22.68627 31.000
22.70621 43.000
22.72616 41.000
22.74611 42.000
22.76606 50.000
22.78600 50.000
22.80595 35.000
22.82590 41.000
22.84584 40.000
22.86579 40.000
22.88574 60.000
22.90568 52.000
22.92563 48.000
22.94558 54.000
22.96553 39.000
22.98547 41.000
23.00542 48.000
23.02537 45.000
23.04531 63.000
23.06526 41.000
23.08521 40.000
23.10515 47.000
23.12510 17.000
23.14505 44.000
23.16499 35.000
23.18494 34.000
23.20489 42.000
23.22484 47.000
23.24478 47.000
23.26473 35.000
23.28468 56.000
23.30462 44.000
23.32457 42.000
23.34452 45.000
23.36446 46.000
23.38441 49.000
23.40436 40.000
23.42431 33.000
23.44425 36.000
23.46420 44.000
23.48415 47.000
23.50409 35.000
23.52404 49.000
23.54399 43.000
23.56393 34.000
23.58388 41.000
23.60383 39.000
23.62377 34.000
23.64372 54.000
23.66367 54.000
23.68362 42.000
23.70356 42.000
23.72351 42.000
23.74346 45.000
23.76340 47.000
23.78335 46.000
23.80330 33.000
23.82324 39.000
23.84319 49.000
23.86314 36.000
23.88309 33.000
23.90303 46.000
23.92298 53.000
23.94293 36.000
23.96287 41.000
23.98282 52.000
24.00277 38.000
24.02271 32.000
24.04266 39.000
24.06261 46.000
24.08256 54.000
24.10250 45.000
24.12245 39.000
24.14240 44.000
24.16234 33.000
24.18229 42.000
24.20224 28.000
24.22218 41.000
24.24213 46.000
24.26208 40.000
24.28202 48.000
24.30197 34.000
24.32192 41.000
24.34187 50.000
24.36181 61.000
24.38176 47.000
24.40171 25.000
24.42165 59.000
24.44160 41.000
24.46155 38.000
24.48149 56.000
24.50144 36.000
24.52139 45.000
24.54134 35.000
24.56128 40.000
24.58123 36.000
24.60118 46.000
24.62112 42.000
24.64107 56.000
24.66102 40.000
24.68096 35.000
24.70091 41.000
24.72086 46.000
24.74080 44.000
24.76075 33.000
24.78070 57.000
24.80065 48.000
24.82059 37.000
24.84054 58.000
24.86049 31.000
24.88043 40.000
24.90038 39.000
24.92033 49.000
24.94027 39.000
24.96022 54.000
24.98017 39.000
25.00012 38.000
25.02006 52.000
25.04001 45.000
25.05996 30.000
25.07990 44.000
25.09985 38.000
25.11980 34.000
25.13974 44.000
25.15969 39.000
25.17964 35.000
25.19958 52.000
25.21953 48.000
25.23948 55.000
25.25943 50.000
25.27937 30.000
25.29932 40.000
25.31927 38.000
25.33921 42.000
25.35916 44.000
25.37911 45.000
25.39905 48.000
25.41900 41.000
25.43895 37.000
25.45890 38.000
25.47884 43.000
25.49879 56.000
25.51874 49.000
25.53868 49.000
25.55863 40.000
25.57858 35.000
25.59852 42.000
25.61847 48.000
25.63842 46.000
25.65837 39.000
25.67831 44.000
25.69826 46.000
25.71821 46.000
25.73815 37.000
25.75810 45.000
25.77805 45.000
25.79799 52.000
25.81794 49.000
25.83789 48.000
25.85783 44.000
25.87778 38.000
25.89773 43.000
25.91768 48.000
25.93762 46.000
25.95757 39.000
25.97752 36.000
25.99746 41.000
26.01741 47.000
26.03736 42.000
26.05730 51.000
26.07725 44.000
26.09720 49.000
26.11715 51.000
26.13709 49.000
26.15704 41.000
26.17699 57.000
26.19693 40.000
26.21688 43.000
26.23683 39.000
26.25677 49.000
26.27672 58.000
26.29667 53.000
26.31661 51.000
26.33656 48.000
26.35651 47.000
26.37646 34.000
26.39640 40.000
26.41635 46.000
26.43630 43.000
26.45624 44.000
26.47619 47.000
26.49614 48.000
26.51608 43.000
26.53603 43.000
26.55598 47.000
26.57593 42.000
26.59587 38.000
26.61582 46.000
26.63577 38.000
26.65571 45.000
26.67566 45.000
26.69561 48.000
26.71555 41.000
26.73550 39.000
26.75545 51.000
26.77539 49.000
26.79534 47.000
26.81529 42.000
26.83524 39.000
26.85518 43.000
26.87513 49.000
26.89508 35.000
26.91502 48.000
26.93497 41.000
26.95492 43.000
26.97486 39.000
26.99481 51.000
27.01476 43.000
27.03471 44.000
27.05465 45.000
27.07460 47.000
27.09455 54.000
27.11449 44.000
27.13444 45.000
27.15439 49.000
27.17433 58.000
27.19428 40.000
27.21423 47.000
27.23417 48.000
27.25412 38.000
27.27407 41.000
27.29402 48.000
27.31396 45.000
27.33391 41.000
27.35386 59.000
27.37380 46.000
27.39375 33.000
27.41370 51.000
27.43364 48.000
27.45359 44.000
27.47354 45.000
27.49349 51.000
27.51343 51.000
27.53338 49.000
27.55333 40.000
27.57327 65.000
27.59322 49.000
27.61317 41.000
27.63311 50.000
27.65306 43.000
27.67301 43.000
27.69296 50.000
27.71290 38.000
27.73285 38.000
27.75280 53.000
27.77274 39.000
27.79269 58.000
27.81264 40.000
27.83258 42.000
27.85253 32.000
27.87248 49.000
27.89242 48.000
27.91237 47.000
27.93232 40.000
27.95227 46.000
27.97221 47.000
27.99216 39.000
28.01211 48.000
28.03205 46.000
28.05200 47.000
28.07195 53.000
28.09189 47.000
28.11184 53.000
28.13179 46.000
28.15174 52.000
28.17168 42.000
28.19163 50.000
28.21158 53.000
28.23152 48.000
28.25147 42.000
28.27142 48.000
28.29136 35.000
28.31131 38.000
28.33126 49.000
28.35120 43.000
28.37115 50.000
28.39110 39.000
28.41105 49.000
28.43099 49.000
28.45094 55.000
28.47089 52.000
28.49083 43.000
28.51078 30.000
28.53073 38.000
28.55067 36.000
28.57062 38.000
28.59057 52.000
28.61052 48.000
28.63046 41.000
28.65041 41.000
28.67036 47.000
28.69030 58.000
28.71025 48.000
28.73020 41.000
28.75014 46.000
28.77009 55.000
28.79004 35.000
28.80998 53.000
28.82993 47.000
28.84988 44.000
28.86983 47.000
28.88977 38.000
28.90972 41.000
28.92967 44.000
28.94961 62.000
28.96956 44.000
28.98951 46.000
29.00945 49.000
29.02940 44.000
29.04935 50.000
29.06930 44.000
29.08924 56.000
29.10919 48.000
29.12914 58.000
29.14908 44.000
29.16903 47.000
29.18898 54.000
29.20892 45.000
29.22887 45.000
29.24882 35.000
29.26877 54.000
29.28871 60.000
29.30866 70.000
29.32861 54.000
29.34855 56.000
29.36850 57.000
29.38845 51.000
29.40839 50.000
29.42834 71.000
29.44829 52.000
29.46823 53.000
29.48818 65.000
29.50813 59.000
29.52808 64.000
29.54802 61.000
29.56797 55.000
29.58792 65.000
29.60786 77.000
29.62781 51.000
29.64776 49.000
29.66770 65.000
29.68765 58.000
29.70760 53.000
29.72755 61.000
29.74749 65.000
29.76744 59.000
29.78739 57.000
29.80733 60.000
29.82728 60.000
29.84723 59.000
29.86717 65.000
29.88712 78.000
29.90707 65.000
29.92701 85.000
29.94696 84.000
29.96691 73.000
29.98686 101.000
30.00680 97.000
30.02675 124.000
30.04670 145.000
30.06664 157.000
30.08659 147.000
30.10654 165.000
30.12648 210.000
30.14643 224.000
30.16638 305.000
30.18633 311.000
30.20627 311.000
30.22622 290.000
30.24617 333.000
30.26611 265.000
30.28606 230.000
30.30601 184.000
30.32595 163.000
30.34590 134.000
30.36585 117.000
30.38579 91.000
30.40574 77.000
30.42569 61.000
30.44564 61.000
30.46558 64.000
30.48553 61.000
30.50548 68.000
30.52542 71.000
30.54537 46.000
30.56532 47.000
30.58526 65.000
30.60521 54.000
30.62516 51.000
30.64511 50.000
30.66505 53.000
30.68500 43.000
30.70495 50.000
30.72489 56.000
30.74484 58.000
30.76479 54.000
30.78473 46.000
30.80468 43.000
30.82463 54.000
30.84458 46.000
30.86452 66.000
30.88447 55.000
30.90442 62.000
30.92436 44.000
30.94431 65.000
30.96426 50.000
30.98420 50.000
31.00415 50.000
31.02410 46.000
31.04404 48.000
31.06399 47.000
31.08394 40.000
31.10389 49.000
31.12383 56.000
31.14378 62.000
31.16373 57.000
31.18367 51.000
31.20362 62.000
31.22357 47.000
31.24351 46.000
31.26346 42.000
31.28341 42.000
31.30336 59.000
31.32330 40.000
31.34325 52.000
31.36320 52.000
31.38314 50.000
31.40309 48.000
31.42304 51.000
31.44298 44.000
31.46293 60.000
31.48288 46.000
31.50282 43.000
31.52277 55.000
31.54272 71.000
31.56267 62.000
31.58261 45.000
31.60256 57.000
31.62251 62.000
31.64245 57.000
31.66240 54.000
31.68235 45.000
31.70229 49.000
31.72224 51.000
31.74219 56.000
31.76214 53.000
31.78208 55.000
31.80203 57.000
31.82198 59.000
31.84192 62.000
31.86187 64.000
31.88182 54.000
31.90176 56.000
31.92171 59.000
31.94166 63.000
31.96160 58.000
31.98155 48.000
32.00150 55.000
32.02145 58.000
32.04139 51.000
32.06134 48.000
32.08129 46.000
32.10123 59.000
32.12118 57.000
32.14113 55.000
32.16107 57.000
32.18102 49.000
32.20097 55.000
32.22092 45.000
32.24086 61.000
32.26081 71.000
32.28076 61.000
32.30070 68.000
32.32065 68.000
32.34060 55.000
32.36054 74.000
32.38049 71.000
32.40044 71.000
32.42039 72.000
32.44033 70.000
32.46028 73.000
32.48023 98.000
32.50017 81.000
32.52012 78.000
32.54007 86.000
32.56001 69.000
32.57996 111.000
32.59991 83.000
32.61985 79.000
32.63980 83.000
32.65975 76.000
32.67970 93.000
32.69964 101.000
32.71959 98.000
32.73954 103.000
32.75948 113.000
32.77943 89.000
32.79938 94.000
32.81932 105.000
32.83927 113.000
32.85922 100.000
32.87917 123.000
32.89911 113.000
32.91906 127.000
32.93901 117.000
32.95895 123.000
32.97890 127.000
32.99885 138.000
33.01879 154.000
33.03874 131.000
33.05869 156.000
33.07863 189.000
33.09858 160.000
33.11853 151.000
33.13848 178.000
33.15842 161.000
33.17837 185.000
33.19832 121.000
33.21826 129.000
33.23821 129.000
33.25816 111.000
33.27810 116.000
33.29805 106.000
33.31800 116.000
33.33795 113.000
33.35789 98.000
33.37784 94.000
33.39779 82.000
33.41773 82.000
33.43768 70.000
33.45763 80.000
33.47757 79.000
33.49752 64.000
33.51747 63.000
33.53741 59.000
33.55736 74.000
33.57731 62.000
33.59726 67.000
33.61720 71.000
33.63715 64.000
33.65710 66.000
33.67704 72.000
33.69699 78.000
33.71694 77.000
33.73688 88.000
33.75683 82.000
33.77678 90.000
33.79673 93.000
33.81667 66.000
33.83662 87.000
33.85657 109.000
33.87651 95.000
33.89646 98.000
33.91641 119.000
33.93635 116.000
33.95630 110.000
33.97625 112.000
33.99620 106.000
34.01614 123.000
34.03609 113.000
34.05604 113.000
34.07598 116.000
34.09593 113.000
34.11588 129.000
34.13582 140.000
34.15577 137.000
34.17572 126.000
34.19566 130.000
34.21561 122.000
34.23556 129.000
34.25551 109.000
34.27545 112.000
34.29540 135.000
34.31535 122.000
34.33529 108.000
34.35524 120.000
34.37519 109.000
34.39513 96.000
34.41508 96.000
34.43503 114.000
34.45498 99.000
34.47492 88.000
34.49487 83.000
34.51482 72.000
34.53476 88.000
34.55471 89.000
34.57466 82.000
34.59460 71.000
34.61455 68.000
34.63450 68.000
34.65444 70.000
34.67439 78.000
34.69434 77.000
34.71429 68.000
34.73423 83.000
34.75418 69.000
34.77413 79.000
34.79407 109.000
34.81402 102.000
34.83397 93.000
34.85391 106.000
34.87386 110.000
34.89381 146.000
34.91376 157.000
34.93370 215.000
34.95365 237.000
34.97360 246.000
34.99354 265.000
35.01349 279.000
35.03344 276.000
35.05338 294.000
35.07333 296.000
35.09328 315.000
35.11322 349.000
35.13317 331.000
35.15312 318.000
35.17307 328.000
35.19301 295.000
35.21296 300.000
35.23291 311.000
35.25285 309.000
35.27280 289.000
35.29275 295.000
35.31269 316.000
35.33264 321.000
35.35259 307.000
35.37254 298.000
35.39248 335.000
35.41243 348.000
35.43238 378.000
35.45232 368.000
35.47227 467.000
35.49222 481.000
35.51216 561.000
35.53211 706.000
35.55206 744.000
35.57201 853.000
35.59195 889.000
35.61190 891.000
35.63185 836.000
35.65179 856.000
35.67174 753.000
35.69169 620.000
35.71163 507.000
35.73158 434.000
35.75153 344.000
35.77147 321.000
35.79142 233.000
35.81137 182.000
35.83132 160.000
35.85126 143.000
35.87121 146.000
35.89116 101.000
35.91110 99.000
35.93105 94.000
35.95100 98.000
35.97094 96.000
35.99089 79.000
36.01084 80.000
36.03079 116.000
36.05073 98.000
36.07068 98.000
36.09063 109.000
36.11057 84.000
36.13052 113.000
36.15047 118.000
36.17041 146.000
36.19036 159.000
36.21031 161.000
36.23025 222.000
36.25020 252.000
36.27015 303.000
36.29010 329.000
36.31004 358.000
36.32999 359.000
36.34994 399.000
36.36988 391.000
36.38983 388.000
36.40978 363.000
36.42972 358.000
36.44967 359.000
36.46962 327.000
36.48957 295.000
36.50951 291.000
36.52946 237.000
36.54941 271.000
36.56935 224.000
36.58930 179.000
36.60925 214.000
36.62919 177.000
36.64914 158.000
36.66909 167.000
36.68903 141.000
36.70898 121.000
36.72893 120.000
36.74888 115.000
36.76882 109.000
36.78877 98.000
36.80872 103.000
36.82866 86.000
36.84861 88.000
36.86856 87.000
36.88850 78.000
36.90845 83.000
36.92840 71.000
36.94835 81.000
36.96829 88.000
36.98824 73.000
37.00819 77.000
37.02813 81.000
37.04808 94.000
37.06803 109.000
37.08797 82.000
37.10792 88.000
37.12787 87.000
37.14781 101.000
37.16776 83.000
37.18771 104.000
37.20766 119.000
37.22760 129.000
37.24755 116.000
37.26750 127.000
37.28744 122.000
37.30739 99.000
37.32734 84.000
37.34728 88.000
37.36723 90.000
37.38718 89.000
37.40713 62.000
37.42707 58.000
37.44702 94.000
37.46697 67.000
37.48691 70.000
37.50686 66.000
37.52681 58.000
37.54675 58.000
37.56670 60.000
37.58665 50.000
37.60660 65.000
37.62654 67.000
37.64649 59.000
37.66644 65.000
37.68638 64.000
37.70633 74.000
37.72628 76.000
37.74622 51.000
37.76617 48.000
37.78612 50.000
37.80606 61.000
37.82601 69.000
37.84596 65.000
37.86591 65.000
37.88585 64.000
37.90580 55.000
37.92575 62.000
37.94569 63.000
37.96564 61.000
37.98559 73.000
38.00553 54.000
38.02548 58.000
38.04543 55.000
38.06538 51.000
38.08532 49.000
38.10527 55.000
38.12522 51.000
38.14516 55.000
38.16511 43.000
38.18506 47.000
38.20500 57.000
38.22495 62.000
38.24490 60.000
38.26484 56.000
38.28479 48.000
38.30474 49.000
38.32469 44.000
38.34463 49.000
38.36458 47.000
38.38453 51.000
38.40447 52.000
38.42442 47.000
38.44437 53.000
38.46431 45.000
38.48426 42.000
38.50421 51.000
38.52416 41.000
38.54410 63.000
38.56405 54.000
38.58400 47.000
38.60394 44.000
38.62389 38.000
38.64384 43.000
38.66378 46.000
38.68373 50.000
38.70368 56.000
38.72362 41.000
38.74357 49.000
38.76352 51.000
38.78347 38.000
38.80341 46.000
38.82336 67.000
38.84331 49.000
38.86325 54.000
38.88320 64.000
38.90315 63.000
38.92309 72.000
38.94304 64.000
38.96299 90.000
38.98294 65.000
39.00288 70.000
39.02283 63.000
39.04278 72.000
39.06272 60.000
39.08267 70.000
39.10262 66.000
39.12256 70.000
39.14251 43.000
39.16246 53.000
39.18241 55.000
39.20235 63.000
39.22230 57.000
39.24225 71.000
39.26219 59.000
39.28214 40.000
39.30209 58.000
39.32203 46.000
39.34198 40.000
39.36193 64.000
39.38187 46.000
39.40182 41.000
39.42177 60.000
39.44172 53.000
39.46166 58.000
39.48161 44.000
39.50156 49.000
39.52150 49.000
39.54145 69.000
39.56140 58.000
39.58134 41.000
39.60129 50.000
39.62124 59.000
39.64119 53.000
39.66113 53.000
39.68108 39.000
39.70103 53.000
39.72097 54.000
39.74092 62.000
39.76087 68.000
39.78081 71.000
39.80076 63.000
39.82071 69.000
39.84065 52.000
39.86060 74.000
39.88055 58.000
39.90050 54.000
39.92044 52.000
39.94039 57.000
39.96034 55.000
39.98028 60.000
40.00023 54.000
40.02018 64.000
40.04012 63.000
40.06007 55.000
40.08002 55.000
40.09997 44.000
40.11991 51.000
40.13986 53.000
40.15981 55.000
40.17975 50.000
40.19970 53.000
40.21965 66.000
40.23959 63.000
40.25954 56.000
40.27949 66.000
40.29943 55.000
40.31938 65.000
40.33933 70.000
40.35928 83.000
40.37922 57.000
40.39917 53.000
40.41912 37.000
40.43906 61.000
40.45901 50.000
40.47896 71.000
40.49890 56.000
40.51885 59.000
40.53880 68.000
40.55875 61.000
40.57869 73.000
40.59864 62.000
40.61859 48.000
40.63853 64.000
40.65848 78.000
40.67843 62.000
40.69837 71.000
40.71832 79.000
40.73827 78.000
40.75822 90.000
40.77816 80.000
40.79811 92.000
40.81806 112.000
40.83800 96.000
40.85795 105.000
40.87790 106.000
40.89784 124.000
40.91779 105.000
40.93774 136.000
40.95768 150.000
40.97763 150.000
40.99758 148.000
41.01753 180.000
41.03747 180.000
41.05742 218.000
41.07737 250.000
41.09731 297.000
41.11726 313.000
41.13721 390.000
41.15715 434.000
41.17710 551.000
41.19705 649.000
41.21700 824.000
41.23694 1092.000
41.25689 1280.000
41.27684 1507.000
41.29678 1695.000
41.31673 1752.000
41.33668 1679.000
41.35662 1696.000
41.37657 1598.000
41.39652 1670.000
41.41646 1458.000
41.43641 1266.000
41.45636 1093.000
41.47631 1000.000
41.49625 795.000
41.51620 684.000
41.53615 560.000
41.55609 456.000
41.57604 405.000
41.59599 328.000
41.61593 280.000
41.63588 270.000
41.65583 250.000
41.67578 227.000
41.69572 191.000
41.71567 166.000
41.73562 158.000
41.75556 168.000
41.77551 119.000
41.79546 117.000
41.81540 159.000
41.83535 117.000
41.85530 121.000
41.87524 116.000
41.89519 132.000
41.91514 121.000
41.93509 125.000
41.95503 107.000
41.97498 90.000
41.99493 103.000
42.01487 89.000
42.03482 101.000
42.05477 91.000
42.07471 90.000
42.09466 81.000
42.11461 68.000
42.13456 94.000
42.15450 76.000
42.17445 84.000
42.19440 95.000
42.21434 59.000
42.23429 73.000
42.25424 67.000
42.27418 64.000
42.29413 71.000
42.31408 76.000
42.33403 79.000
42.35397 53.000
42.37392 48.000
42.39387 67.000
42.41381 71.000
42.43376 68.000
42.45371 71.000
42.47365 67.000
42.49360 56.000
42.51355 57.000
42.53349 72.000
42.55344 70.000
42.57339 54.000
42.59334 66.000
42.61328 71.000
42.63323 56.000
42.65318 45.000
42.67312 64.000
42.69307 77.000
42.71302 68.000
42.73296 56.000
42.75291 82.000
42.77286 64.000
42.79281 66.000
42.81275 86.000
42.83270 57.000
42.85265 62.000
42.87259 75.000
42.89254 56.000
42.91249 98.000
42.93243 60.000
42.95238 93.000
42.97233 77.000
42.99227 79.000
43.01222 106.000
43.03217 109.000
43.05212 121.000
43.07206 88.000
43.09201 129.000
43.11196 108.000
43.13190 116.000
43.15185 147.000
43.17180 144.000
43.19174 172.000
43.21169 180.000
43.23164 154.000
43.25159 214.000
43.27153 219.000
43.29148 203.000
43.31143 221.000
43.33137 226.000
43.35132 212.000
43.37127 190.000
43.39121 148.000
43.41116 138.000
43.43111 135.000
43.45105 127.000
43.47100 90.000
43.49095 91.000
43.51090 82.000
43.53084 80.000
43.55079 64.000
43.57074 68.000
43.59068 68.000
43.61063 65.000
43.63058 49.000
43.65052 37.000
43.67047 61.000
43.69042 47.000
43.71037 59.000
43.73031 54.000
43.75026 54.000
43.77021 66.000
43.79015 42.000
43.81010 52.000
43.83005 34.000
43.84999 56.000
43.86994 53.000
43.88989 45.000
43.90984 47.000
43.92978 52.000
43.94973 47.000
43.96968 52.000
43.98962 40.000
44.00957 41.000
44.02952 45.000
44.04946 42.000
44.06941 51.000
44.08936 47.000
44.10930 43.000
44.12925 50.000
44.14920 40.000
44.16915 39.000
44.18909 37.000
44.20904 49.000
44.22899 49.000
44.24893 36.000
44.26888 46.000
44.28883 45.000
44.30877 30.000
44.32872 44.000
44.34867 51.000
44.36862 48.000
44.38856 47.000
44.40851 52.000
44.42846 57.000
44.44840 51.000
44.46835 52.000
44.48830 42.000
44.50824 55.000
44.52819 59.000
44.54814 59.000
44.56808 56.000
44.58803 60.000
44.60798 60.000
44.62793 67.000
44.64787 106.000
44.66782 78.000
44.68777 84.000
44.70771 99.000
44.72766 84.000
44.74761 89.000
44.76755 84.000
44.78750 74.000
44.80745 78.000
44.82740 75.000
44.84734 89.000
44.86729 56.000
44.88724 81.000
44.90718 56.000
44.92713 61.000
44.94708 60.000
44.96702 49.000
44.98697 52.000
45.00692 35.000
45.02686 43.000
45.04681 54.000
45.06676 35.000
45.08671 56.000
45.10665 59.000
45.12660 45.000
45.14655 48.000
45.16649 45.000
45.18644 34.000
45.20639 48.000
45.22633 39.000
45.24628 43.000
45.26623 51.000
45.28618 46.000
45.30612 41.000
45.32607 43.000
45.34602 43.000
45.36596 37.000
45.38591 49.000
45.40586 43.000
45.42580 39.000
45.44575 43.000
45.46570 35.000
45.48565 40.000
45.50559 41.000
45.52554 53.000
45.54549 47.000
45.56543 47.000
45.58538 41.000
45.60533 39.000
45.62527 54.000
45.64522 47.000
45.66517 43.000
45.68511 44.000
45.70506 54.000
45.72501 40.000
45.74496 52.000
45.76490 44.000
45.78485 43.000
45.80480 40.000
45.82474 47.000
45.84469 52.000
45.86464 43.000
45.88458 46.000
45.90453 60.000
45.92448 45.000
45.94443 54.000
45.96437 38.000
45.98432 38.000
46.00427 46.000
46.02421 52.000
46.04416 41.000
46.06411 55.000
46.08405 34.000
46.10400 48.000
46.12395 47.000
46.14389 49.000
46.16384 57.000
46.18379 64.000
46.20374 54.000
46.22368 46.000
46.24363 39.000
46.26358 40.000
46.28352 53.000
46.30347 43.000
46.32342 42.000
46.34336 50.000
46.36331 60.000
46.38326 61.000
46.40321 55.000
46.42315 38.000
46.44310 41.000
46.46305 46.000
46.48299 46.000
46.50294 48.000
46.52289 42.000
46.54283 44.000
46.56278 45.000
46.58273 45.000
46.60267 38.000
46.62262 55.000
46.64257 34.000
46.66252 37.000
46.68246 48.000
46.70241 49.000
46.72236 43.000
46.74230 48.000
46.76225 48.000
46.78220 44.000
46.80214 45.000
46.82209 40.000
46.84204 27.000
46.86199 48.000
46.88193 41.000
46.90188 42.000
46.92183 37.000
46.94177 28.000
46.96172 53.000
46.98167 44.000
47.00161 42.000
47.02156 38.000
47.04151 44.000
47.06146 49.000
47.08140 42.000
47.10135 48.000
47.12130 43.000
47.14124 37.000
47.16119 34.000
47.18114 49.000
47.20108 47.000
47.22103 39.000
47.24098 35.000
47.26092 40.000
47.28087 47.000
47.30082 45.000
47.32077 49.000
47.34071 43.000
47.36066 45.000
47.38061 32.000
47.40055 45.000
47.42050 39.000
47.44045 56.000
47.46039 43.000
47.48034 35.000
47.50029 29.000
47.52024 33.000
47.54018 36.000
47.56013 37.000
47.58008 46.000
47.60002 55.000
47.61997 45.000
47.63992 48.000
47.65986 44.000
47.67981 42.000
47.69976 39.000
47.71970 38.000
47.73965 39.000
47.75960 26.000
47.77955 41.000
47.79949 44.000
47.81944 41.000
47.83939 39.000
47.85933 42.000
47.87928 38.000
47.89923 34.000
47.91917 36.000
47.93912 42.000
47.95907 53.000
47.97902 44.000
47.99896 41.000
48.01891 39.000
48.03886 38.000
48.05880 57.000
48.07875 36.000
48.09870 54.000
48.11864 48.000
48.13859 49.000
48.15854 45.000
48.17848 50.000
48.19843 48.000
48.21838 30.000
48.23833 54.000
48.25827 53.000
48.27822 51.000
48.29817 55.000
48.31811 67.000
48.33806 57.000
48.35801 57.000
48.37795 62.000
48.39790 50.000
48.41785 49.000
48.43780 67.000
48.45774 61.000
48.47769 51.000
48.49764 50.000
48.51758 66.000
48.53753 56.000
48.55748 46.000
48.57742 47.000
48.59737 58.000
48.61732 50.000
48.63726 60.000
48.65721 54.000
48.67716 52.000
48.69711 51.000
48.71705 42.000
48.73700 35.000
48.75695 50.000
48.77689 43.000
48.79684 46.000
48.81679 51.000
48.83673 51.000
48.85668 39.000
48.87663 49.000
48.89658 48.000
48.91652 38.000
48.93647 49.000
48.95642 39.000
48.97636 45.000
48.99631 46.000
49.01626 38.000
49.03620 47.000
49.05615 46.000
49.07610 46.000
49.09605 40.000
49.11599 44.000
49.13594 39.000
49.15589 43.000
49.17583 31.000
49.19578 41.000
49.21573 49.000
49.23567 51.000
49.25562 39.000
49.27557 39.000
49.29551 38.000
49.31546 36.000
49.33541 38.000
49.35536 43.000
49.37530 42.000
49.39525 40.000
49.41520 56.000
49.43514 40.000
49.45509 51.000
49.47504 52.000
49.49498 47.000
49.51493 50.000
49.53488 38.000
49.55483 52.000
49.57477 51.000
49.59472 33.000
49.61467 51.000
49.63461 56.000
49.65456 47.000
49.67451 43.000
49.69445 45.000
49.71440 39.000
49.73435 31.000
49.75429 35.000
49.77424 45.000
49.79419 46.000
49.81414 39.000
49.83408 54.000
49.85403 48.000
49.87398 41.000
49.89392 34.000
49.91387 42.000
49.93382 32.000
49.95376 39.000
49.97371 36.000
49.99366 39.000
50.01361 59.000
50.03355 37.000
50.05350 47.000
50.07345 31.000
50.09339 39.000
50.11334 40.000
50.13329 38.000
50.15323 31.000
50.17318 35.000
50.19313 41.000
50.21307 35.000
50.23302 45.000
50.25297 45.000
50.27292 36.000
50.29286 48.000
50.31281 40.000
50.33276 35.000
50.35270 26.000
50.37265 38.000
50.39260 41.000
50.41254 40.000
50.43249 40.000
50.45244 38.000
50.47239 38.000
50.49233 35.000
50.51228 37.000
50.53223 27.000
50.55217 33.000
50.57212 39.000
50.59207 44.000
50.61201 49.000
50.63196 42.000
50.65191 43.000
50.67186 40.000
50.69180 48.000
50.71175 48.000
50.73170 33.000
50.75164 30.000
50.77159 41.000
50.79154 49.000
50.81148 52.000
50.83143 35.000
50.85138 40.000
50.87132 41.000
50.89127 39.000
50.91122 37.000
50.93117 38.000
50.95111 39.000
50.97106 32.000
50.99101 47.000
51.01095 35.000
51.03090 34.000
51.05085 46.000
51.07079 46.000
51.09074 43.000
51.11069 54.000
51.13064 33.000
51.15058 47.000
51.17053 33.000
51.19048 45.000
51.21042 48.000
51.23037 41.000
51.25032 45.000
51.27026 42.000
51.29021 44.000
51.31016 46.000
51.33010 40.000
51.35005 40.000
51.37000 46.000
51.38995 43.000
51.40989 51.000
51.42984 46.000
51.44979 44.000
51.46973 37.000
51.48968 42.000
51.50963 44.000
51.52957 34.000
51.54952 26.000
51.56947 34.000
51.58942 35.000
51.60936 44.000
51.62931 53.000
51.64926 45.000
51.66920 42.000
51.68915 44.000
51.70910 43.000
51.72904 44.000
51.74899 36.000
51.76894 39.000
51.78888 43.000
51.80883 31.000
51.82878 41.000
51.84873 49.000
51.86867 33.000
51.88862 43.000
51.90857 46.000
51.92851 31.000
51.94846 53.000
51.96841 48.000
51.98835 45.000
52.00830 62.000
52.02825 38.000
52.04820 49.000
52.06814 52.000
52.08809 52.000
52.10804 42.000
52.12798 34.000
52.14793 57.000
52.16788 47.000
52.18782 67.000
52.20777 47.000
52.22772 41.000
52.24767 45.000
52.26761 42.000
52.28756 47.000
52.30751 57.000
52.32745 48.000
52.34740 50.000
52.36735 51.000
52.38729 54.000
52.40724 56.000
52.42719 61.000
52.44713 63.000
52.46708 67.000
52.48703 73.000
52.50698 58.000
52.52692 59.000
52.54687 62.000
52.56682 58.000
52.58676 74.000
52.60671 84.000
52.62666 92.000
52.64660 102.000
52.66655 70.000
52.68650 111.000
52.70645 116.000
52.72639 119.000
52.74634 125.000
52.76629 142.000
52.78623 135.000
52.80618 123.000
52.82613 142.000
52.84607 137.000
52.86602 149.000
52.88597 167.000
52.90591 181.000
52.92586 149.000
52.94581 192.000
52.96576 187.000
52.98570 194.000
53.00565 172.000
53.02560 167.000
53.04554 178.000
53.06549 147.000
53.08544 136.000
53.10538 157.000
53.12533 110.000
53.14528 121.000
53.16523 104.000
53.18517 103.000
53.20512 107.000
53.22507 100.000
53.24501 93.000
53.26496 73.000
53.28491 70.000
53.30485 77.000
53.32480 66.000
53.34475 60.000
53.36469 67.000
53.38464 77.000
53.40459 74.000
53.42454 62.000
53.44448 72.000
53.46443 59.000
53.48438 71.000
53.50432 66.000
53.52427 69.000
53.54422 60.000
53.56416 69.000
53.58411 77.000
53.60406 83.000
53.62401 83.000
53.64395 91.000
53.66390 91.000
53.68385 89.000
53.70379 102.000
53.72374 99.000
53.74369 100.000
53.76363 107.000
53.78358 108.000
53.80353 94.000
53.82348 71.000
53.84342 88.000
53.86337 91.000
53.88332 75.000
53.90326 79.000
53.92321 82.000
53.94316 57.000
53.96310 64.000
53.98305 40.000
54.00300 48.000
54.02294 62.000
54.04289 50.000
54.06284 45.000
54.08279 40.000
54.10273 67.000
54.12268 48.000
54.14263 57.000
54.16257 50.000
54.18252 56.000
54.20247 55.000
54.22241 44.000
54.24236 56.000
54.26231 49.000
54.28226 48.000
54.30220 42.000
54.32215 49.000
54.34210 49.000
54.36204 58.000
54.38199 49.000
54.40194 46.000
54.42188 44.000
54.44183 54.000
54.46178 42.000
54.48172 45.000
54.50167 39.000
54.52162 46.000
54.54157 43.000
54.56151 41.000
54.58146 41.000
54.60141 45.000
54.62135 43.000
54.64130 38.000
54.66125 49.000
54.68119 52.000
54.70114 42.000
54.72109 44.000
54.74104 55.000
54.76098 46.000
54.78093 31.000
54.80088 29.000
54.82082 51.000
54.84077 42.000
54.86072 45.000
54.88066 29.000
54.90061 41.000
54.92056 36.000
54.94050 41.000
54.96045 37.000
54.98040 48.000
55.00035 45.000
55.02029 43.000
55.04024 32.000
55.06019 48.000
55.08013 33.000
55.10008 33.000
55.12003 48.000
55.13997 54.000
55.15992 35.000
55.17987 39.000
55.19982 48.000
55.21976 38.000
55.23971 44.000
55.25966 47.000
55.27960 42.000
55.29955 39.000
55.31950 45.000
55.33944 46.000
55.35939 43.000
55.37934 39.000
55.39929 41.000
55.41923 39.000
55.43918 40.000
55.45913 45.000
55.47907 45.000
55.49902 57.000
55.51897 42.000
55.53891 37.000
55.55886 40.000
55.57881 51.000
55.59875 48.000
55.61870 40.000
55.63865 49.000
55.65860 36.000
55.67854 39.000
55.69849 50.000
55.71844 45.000
55.73838 37.000
55.75833 36.000
55.77828 32.000
55.79822 45.000
55.81817 48.000
55.83812 49.000
55.85807 35.000
55.87801 42.000
55.89796 42.000
55.91791 51.000
55.93785 37.000
55.95780 39.000
55.97775 39.000
55.99769 45.000
56.01764 50.000
56.03759 44.000
56.05753 40.000
56.07748 47.000
56.09743 31.000
56.11738 55.000
56.13732 54.000
56.15727 46.000
56.17722 53.000
56.19716 48.000
56.21711 36.000
56.23706 40.000
56.25700 35.000
56.27695 57.000
56.29690 48.000
56.31685 45.000
56.33679 48.000
56.35674 41.000
56.37669 41.000
56.39663 55.000
56.41658 53.000
56.43653 48.000
56.45647 38.000
56.47642 42.000
56.49637 45.000
56.51631 56.000
56.53626 49.000
56.55621 48.000
56.57616 61.000
56.59610 51.000
56.61605 50.000
56.63600 61.000
56.65594 52.000
56.67589 69.000
56.69584 54.000
56.71578 59.000
56.73573 63.000
56.75568 65.000
56.77563 61.000
56.79557 58.000
56.81552 68.000
56.83547 69.000
56.85541 83.000
56.87536 78.000
56.89531 93.000
56.91525 89.000
56.93520 95.000
56.95515 106.000
56.97510 89.000
56.99504 106.000
57.01499 96.000
57.03494 101.000
57.05488 116.000
57.07483 114.000
57.09478 116.000
57.11472 142.000
57.13467 140.000
57.15462 177.000
57.17456 184.000
57.19451 198.000
57.21446 180.000
57.23441 251.000
57.25435 252.000
57.27430 310.000
57.29425 268.000
57.31419 277.000
57.33414 298.000
57.35409 283.000
57.37403 271.000
57.39398 255.000
57.41393 290.000
57.43388 271.000
57.45382 247.000
57.47377 292.000
57.49372 262.000
57.51366 225.000
57.53361 214.000
57.55356 259.000
57.57350 244.000
57.59345 240.000
57.61340 281.000
57.63334 300.000
57.65329 316.000
57.67324 270.000
57.69319 333.000
57.71313 347.000
57.73308 312.000
57.75303 353.000
57.77297 318.000
57.79292 261.000
57.81287 259.000
57.83281 274.000
57.85276 240.000
57.87271 237.000
57.89266 235.000
57.91260 212.000
57.93255 210.000
57.95250 185.000
57.97244 153.000
57.99239 122.000
58.01234 123.000
58.03228 106.000
58.05223 95.000
58.07218 99.000
58.09212 88.000
58.11207 79.000
58.13202 72.000
58.15197 71.000
58.17191 66.000
58.19186 59.000
58.21181 60.000
58.23175 55.000
58.25170 58.000
58.27165 68.000
58.29159 53.000
58.31154 54.000
58.33149 54.000
58.35144 70.000
58.37138 70.000
58.39133 52.000
58.41128 54.000
58.43122 54.000
58.45117 49.000
58.47112 67.000
58.49106 73.000
58.51101 46.000
58.53096 43.000
58.55090 58.000
58.57085 51.000
58.59080 47.000
58.61075 46.000
58.63069 47.000
58.65064 52.000
58.67059 51.000
58.69053 48.000
58.71048 52.000
58.73043 54.000
58.75037 56.000
58.77032 53.000
58.79027 56.000
58.81022 55.000
58.83016 55.000
58.85011 53.000
58.87006 48.000
58.89000 36.000
58.90995 62.000
58.92990 53.000
58.94984 44.000
58.96979 39.000
58.98974 57.000
59.00969 42.000
59.02963 49.000
59.04958 40.000
59.06953 45.000
59.08947 46.000
59.10942 56.000
59.12937 59.000
59.14931 58.000
59.16926 39.000
59.18921 39.000
59.20915 60.000
59.22910 48.000
59.24905 44.000
59.26900 45.000
59.28894 37.000
59.30889 45.000
59.32884 56.000
59.34878 52.000
59.36873 52.000
59.38868 46.000
59.40862 35.000
59.42857 36.000
59.44852 49.000
59.46847 42.000
59.48841 46.000
59.50836 38.000
59.52831 43.000
59.54825 53.000
59.56820 41.000
59.58815 57.000
59.60809 54.000
59.62804 46.000
59.64799 50.000
59.66793 57.000
59.68788 47.000
59.70783 48.000
59.72778 44.000
59.74772 40.000
59.76767 50.000
59.78762 58.000
59.80756 52.000
59.82751 57.000
59.84746 64.000
59.86740 51.000
59.88735 50.000
59.90730 49.000
59.92725 52.000
59.94719 45.000
59.96714 50.000
59.98709 54.000
60.00703 48.000
60.02698 47.000
60.04693 54.000
60.06687 47.000
60.08682 46.000
60.10677 48.000
60.12671 46.000
60.14666 64.000
60.16661 39.000
60.18656 46.000
60.20650 53.000
60.22645 44.000
60.24640 47.000
60.26634 45.000
60.28629 49.000
60.30624 51.000
60.32618 46.000
60.34613 44.000
60.36608 48.000
60.38603 52.000
60.40597 42.000
60.42592 37.000
60.44587 36.000
60.46581 43.000
60.48576 45.000
60.50571 51.000
60.52565 42.000
60.54560 39.000
60.56555 59.000
60.58550 52.000
60.60544 64.000
60.62539 58.000
60.64534 56.000
60.66528 41.000
60.68523 62.000
60.70518 52.000
60.72512 52.000
60.74507 68.000
60.76502 45.000
60.78496 54.000
60.80491 50.000
60.82486 61.000
60.84481 46.000
60.86475 54.000
60.88470 57.000
60.90465 56.000
60.92459 54.000
60.94454 46.000
60.96449 49.000
60.98443 55.000
61.00438 47.000
61.02433 48.000
61.04428 44.000
61.06422 56.000
61.08417 63.000
61.10412 55.000
61.12406 55.000
61.14401 53.000
61.16396 60.000
61.18390 58.000
61.20385 57.000
61.22380 62.000
61.24374 51.000
61.26369 64.000
61.28364 64.000
61.30359 65.000
61.32353 62.000
61.34348 56.000
61.36343 65.000
61.38337 66.000
61.40332 72.000
61.42327 67.000
61.44321 71.000
61.46316 78.000
61.48311 64.000
61.50306 81.000
61.52300 72.000
61.54295 83.000
61.56290 76.000
61.58284 69.000
61.60279 91.000
61.62274 107.000
61.64268 81.000
61.66263 99.000
61.68258 101.000
61.70252 102.000
61.72247 126.000
61.74242 120.000
61.76237 134.000
61.78231 139.000
61.80226 156.000
61.82221 186.000
61.84215 185.000
61.86210 232.000
61.88205 219.000
61.90199 243.000
61.92194 245.000
61.94189 239.000
61.96184 253.000
61.98178 286.000
62.00173 260.000
62.02168 271.000
62.04162 238.000
62.06157 281.000
62.08152 261.000
62.10146 245.000
62.12141 255.000
62.14136 248.000
62.16131 272.000
62.18125 228.000
62.20120 229.000
62.22115 195.000
62.24109 198.000
62.26104 197.000
62.28099 208.000
62.30093 217.000
62.32088 169.000
62.34083 197.000
62.36077 181.000
62.38072 178.000
62.40067 186.000
62.42062 146.000
62.44056 176.000
62.46051 147.000
62.48046 176.000
62.50040 157.000
62.52035 150.000
62.54030 163.000
62.56024 153.000
62.58019 164.000
62.60014 162.000
62.62009 167.000
62.64003 147.000
62.65998 150.000
62.67993 159.000
62.69987 168.000
62.71982 174.000
62.73977 193.000
62.75971 190.000
62.77966 208.000
62.79961 212.000
62.81955 206.000
62.83950 236.000
62.85945 289.000
62.87940 279.000
62.89934 310.000
62.91929 269.000
62.93924 305.000
62.95918 288.000
62.97913 284.000
62.99908 287.000
63.01902 227.000
63.03897 251.000
63.05892 223.000
63.07887 241.000
63.09881 203.000
63.11876 188.000
63.13871 174.000
63.15865 173.000
63.17860 127.000
63.19855 154.000
63.21849 115.000
63.23844 100.000
63.25839 96.000
63.27833 73.000
63.29828 85.000
63.31823 72.000
63.33818 57.000
63.35812 74.000
63.37807 68.000
63.39802 59.000
63.41796 57.000
63.43791 56.000
63.45786 56.000
63.47780 48.000
63.49775 57.000
63.51770 48.000
63.53765 59.000
63.55759 52.000
63.57754 62.000
63.59749 53.000
63.61743 57.000
63.63738 76.000
63.65733 51.000
63.67727 38.000
63.69722 57.000
63.71717 48.000
63.73712 56.000
63.75706 46.000
63.77701 52.000
63.79696 57.000
63.81690 46.000
63.83685 49.000
63.85680 56.000
63.87674 58.000
63.89669 53.000
63.91664 31.000
63.93658 44.000
63.95653 59.000
63.97648 46.000
63.99643 40.000
64.01637 65.000
64.03632 49.000
64.05627 45.000
64.07621 56.000
64.09616 55.000
64.11611 46.000
64.13605 42.000
64.15600 41.000
64.17595 50.000
64.19590 40.000
64.21584 45.000
64.23579 53.000
64.25574 54.000
64.27568 53.000
64.29563 53.000
64.31558 50.000
64.33552 67.000
64.35547 59.000
64.37542 61.000
64.39536 63.000
64.41531 71.000
64.43526 63.000
64.45521 78.000
64.47515 81.000
64.49510 87.000
64.51505 99.000
64.53499 110.000
64.55494 103.000
64.57489 97.000
64.59483 118.000
64.61478 105.000
64.63473 122.000
64.65468 123.000
64.67462 125.000
64.69457 94.000
64.71452 129.000
64.73446 110.000
64.75441 106.000
64.77436 130.000
64.79430 109.000
64.81425 122.000
64.83420 109.000
64.85414 98.000
64.87409 119.000
64.89404 88.000
64.91399 98.000
64.93393 98.000
64.95388 94.000
64.97383 96.000
64.99377 83.000
65.01372 90.000
65.03367 89.000
65.05361 93.000
65.07356 84.000
65.09351 82.000
65.11346 95.000
65.13340 72.000
65.15335 94.000
65.17330 74.000
65.19324 78.000
65.21319 50.000
65.23314 71.000
65.25308 88.000
65.27303 60.000
65.29298 74.000
65.31293 93.000
65.33287 85.000
65.35282 66.000
65.37277 53.000
65.39271 64.000
65.41266 76.000
65.43261 41.000
65.45255 63.000
65.47250 48.000
65.49245 52.000
65.51239 57.000
65.53234 48.000
65.55229 68.000
65.57224 60.000
65.59218 42.000
65.61213 55.000
65.63208 61.000
65.65202 49.000
65.67197 38.000
65.69192 44.000
65.71186 53.000
65.73181 58.000
65.75176 57.000
65.77171 56.000
65.79165 49.000
65.81160 47.000
65.83155 47.000
65.85149 43.000
65.87144 55.000
65.89139 47.000
65.91133 53.000
65.93128 43.000
65.95123 43.000
65.97117 52.000
65.99112 36.000
66.01107 51.000
66.03102 56.000
66.05096 39.000
66.07091 51.000
66.09086 48.000
66.11080 43.000
66.13075 42.000
66.15070 50.000
66.17064 49.000
66.19059 55.000
66.21054 45.000
66.23049 50.000
66.25043 37.000
66.27038 40.000
66.29033 49.000
66.31027 58.000
66.33022 32.000
66.35017 43.000
66.37011 43.000
66.39006 41.000
66.41001 56.000
66.42995 50.000
66.44990 46.000
66.46985 36.000
66.48980 50.000
66.50974 43.000
66.52969 41.000
66.54964 39.000
66.56958 51.000
66.58953 42.000
66.60948 45.000
66.62942 37.000
66.64937 24.000
66.66932 36.000
66.68927 38.000
66.70921 33.000
66.72916 42.000
66.74911 35.000
66.76905 40.000
66.78900 42.000
66.80895 29.000
66.82889 32.000
66.84884 47.000
66.86879 46.000
66.88874 45.000
66.90868 53.000
66.92863 51.000
66.94858 45.000
66.96852 38.000
66.98847 37.000
67.00842 52.000
67.02836 45.000
67.04831 51.000
67.06826 41.000
67.08820 50.000
67.10815 59.000
67.12810 32.000
67.14805 37.000
67.16799 43.000
67.18794 50.000
67.20789 42.000
67.22783 50.000
67.24778 43.000
67.26773 52.000
67.28767 49.000
67.30762 52.000
67.32757 51.000
67.34752 54.000
67.36746 48.000
67.38741 50.000
67.40736 54.000
67.42730 44.000
67.44725 41.000
67.46720 45.000
67.48714 53.000
67.50709 52.000
67.52704 48.000
67.54698 58.000
67.56693 63.000
67.58688 59.000
67.60683 54.000
67.62677 43.000
67.64672 76.000
67.66667 59.000
67.68661 47.000
67.70656 63.000
67.72651 70.000
67.74645 55.000
67.76640 65.000
67.78635 55.000
67.80630 65.000
67.82624 63.000
67.84619 85.000
67.86614 40.000
67.88608 55.000
67.90603 72.000
67.92598 67.000
67.94592 59.000
67.96587 64.000
67.98582 64.000
68.00576 62.000
68.02571 62.000
68.04566 77.000
68.06561 68.000
68.08555 61.000
68.10550 79.000
68.12545 74.000
68.14539 79.000
68.16534 79.000
68.18529 95.000
68.20523 89.000
68.22518 75.000
68.24513 90.000
68.26508 90.000
68.28502 80.000
68.30497 94.000
68.32492 78.000
68.34486 73.000
68.36481 71.000
68.38476 84.000
68.40470 91.000
68.42465 67.000
68.44460 69.000
68.46455 88.000
68.48449 62.000
68.50444 76.000
68.52439 86.000
68.54433 52.000
68.56428 59.000
68.58423 56.000
68.60417 65.000
68.62412 61.000
68.64407 63.000
68.66401 50.000
68.68396 55.000
68.70391 67.000
68.72386 52.000
68.74380 41.000
68.76375 49.000
68.78370 46.000
68.80364 47.000
68.82359 52.000
68.84354 38.000
68.86348 47.000
68.88343 41.000
68.90338 56.000
68.92333 50.000
68.94327 55.000
68.96322 50.000
68.98317 44.000
69.00311 49.000
69.02306 52.000
69.04301 42.000
69.06295 53.000
69.08290 37.000
69.10285 43.000
69.12279 38.000
69.14274 41.000
69.16269 37.000
69.18264 52.000
69.20258 54.000
69.22253 40.000
69.24248 48.000
69.26242 34.000
69.28237 40.000
69.30232 47.000
69.32226 50.000
69.34221 45.000
69.36216 58.000
69.38211 64.000
69.40205 65.000
69.42200 53.000
69.44195 40.000
69.46189 67.000
69.48184 52.000
69.50179 59.000
69.52173 58.000
69.54168 47.000
69.56163 60.000
69.58157 55.000
69.60152 55.000
69.62147 65.000
69.64142 56.000
69.66136 56.000
69.68131 52.000
69.70126 64.000
69.72120 45.000
69.74115 44.000
69.76110 59.000
69.78104 50.000
69.80099 32.000
69.82094 49.000
69.84089 50.000
69.86083 45.000
69.88078 52.000
69.90073 44.000
69.92067 36.000
69.94062 53.000
69.96057 50.000
69.98051 40.000
70.00046 49.000
70.02041 49.000
70.04035 46.000
70.06030 29.000
70.08025 47.000
70.10020 49.000
70.12014 33.000
70.14009 46.000
70.16004 37.000
70.17998 49.000
70.19993 31.000
70.21988 43.000
70.23982 36.000
70.25977 36.000
70.27972 43.000
70.29967 38.000
70.31961 31.000
70.33956 28.000
70.35951 33.000
70.37945 35.000
70.39940 37.000
70.41935 42.000
70.43929 42.000
70.45924 41.000
70.47919 38.000
70.49914 33.000
70.51908 30.000
70.53903 46.000
70.55898 33.000
70.57892 41.000
70.59887 27.000
70.61882 36.000
70.63876 33.000
70.65871 43.000
70.67866 37.000
70.69860 50.000
70.71855 31.000
70.73850 49.000
70.75845 46.000
70.77839 44.000
70.79834 35.000
70.81829 44.000
70.83823 43.000
70.85818 45.000
70.87813 38.000
70.89807 61.000
70.91802 52.000
70.93797 35.000
70.95792 51.000
70.97786 33.000
70.99781 44.000
71.01776 44.000
71.03770 52.000
71.05765 36.000
71.07760 44.000
71.09754 55.000
71.11749 39.000
71.13744 34.000
71.15738 49.000
71.17733 44.000
71.19728 44.000
71.21723 62.000
71.23717 31.000
71.25712 42.000
71.27707 52.000
71.29701 53.000
71.31696 57.000
71.33691 46.000
71.35685 59.000
71.37680 63.000
71.39675 59.000
71.41670 54.000
71.43664 42.000
71.45659 59.000
71.47654 46.000
71.49648 54.000
71.51643 70.000
71.53638 53.000
71.55632 58.000
71.57627 58.000
71.59622 66.000
71.61616 69.000
71.63611 48.000
71.65606 64.000
71.67601 57.000
71.69595 43.000
71.71590 66.000
71.73585 58.000
71.75579 57.000
71.77574 43.000
71.79569 44.000
71.81563 56.000
71.83558 54.000
71.85553 47.000
71.87548 66.000
71.89542 59.000
71.91537 42.000
71.93532 66.000
71.95526 74.000
71.97521 53.000
71.99516 53.000
72.01510 65.000
72.03505 81.000
72.05500 92.000
72.07495 90.000
72.09489 81.000
72.11484 107.000
72.13479 106.000
72.15473 110.000
72.17468 106.000
72.19463 89.000
72.21457 110.000
72.23452 106.000
72.25447 98.000
72.27441 103.000
72.29436 93.000
72.31431 123.000
72.33426 124.000
72.35420 110.000
72.37415 111.000
72.39410 101.000
72.41404 95.000
72.43399 103.000
72.45394 92.000
72.47388 94.000
72.49383 79.000
72.51378 74.000
72.53373 83.000
72.55367 61.000
72.57362 66.000
72.59357 83.000
72.61351 77.000
72.63346 54.000
72.65341 73.000
72.67335 66.000
72.69330 68.000
72.71325 54.000
72.73319 69.000
72.75314 60.000
72.77309 63.000
72.79304 81.000
72.81298 70.000
72.83293 53.000
72.85288 50.000
72.87282 42.000
72.89277 54.000
72.91272 44.000
72.93266 45.000
72.95261 56.000
72.97256 59.000
72.99251 55.000
73.01245 48.000
73.03240 58.000
73.05235 62.000
73.07229 46.000
73.09224 53.000
73.11219 69.000
73.13213 63.000
73.15208 72.000
73.17203 60.000
73.19197 55.000
73.21192 68.000
73.23187 63.000
73.25182 75.000
73.27176 77.000
73.29171 49.000
73.31166 74.000
73.33160 69.000
73.35155 60.000
73.37150 53.000
73.39144 67.000
73.41139 78.000
73.43134 63.000
73.45129 67.000
73.47123 64.000
73.49118 67.000
73.51113 65.000
73.53107 64.000
73.55102 70.000
73.57097 49.000
73.59091 59.000
73.61086 62.000
73.63081 56.000
73.65076 77.000
73.67070 74.000
73.69065 68.000
73.71060 58.000
73.73054 80.000
73.75049 64.000
73.77044 70.000
73.79038 67.000
73.81033 76.000
73.83028 71.000
73.85022 83.000
73.87017 85.000
73.89012 97.000
73.91007 82.000
73.93001 78.000
73.94996 106.000
73.96991 83.000
73.98985 98.000
74.00980 107.000
74.02975 96.000
74.04969 99.000
74.06964 124.000
74.08959 92.000
74.10954 75.000
74.12948 97.000
74.14943 97.000
74.16938 88.000
74.18932 96.000
74.20927 97.000
74.22922 100.000
74.24916 87.000
74.26911 87.000
74.28906 78.000
74.30900 98.000
74.32895 97.000
74.34890 84.000
74.36885 98.000
74.38879 98.000
74.40874 92.000
74.42869 96.000
74.44863 117.000
74.46858 97.000
74.48853 88.000
74.50847 102.000
74.52842 97.000
74.54837 86.000
74.56832 89.000
74.58826 100.000
74.60821 82.000
74.62816 82.000
74.64810 56.000
74.66805 92.000
74.68800 69.000
74.70794 82.000
74.72789 73.000
74.74784 75.000
74.76778 65.000
74.78773 66.000
74.80768 58.000
74.82763 47.000
74.84757 44.000
74.86752 55.000
74.88747 49.000
74.90741 55.000
74.92736 51.000
74.94731 63.000
74.96725 54.000
74.98720 57.000
75.00715 47.000
75.02710 41.000
75.04704 50.000
75.06699 46.000
75.08694 56.000
75.10688 36.000
75.12683 53.000
75.14678 40.000
75.16672 45.000
75.18667 46.000
75.20662 49.000
75.22657 35.000
75.24651 44.000
75.26646 60.000
75.28641 57.000
75.30635 52.000
75.32630 46.000
75.34625 62.000
75.36619 51.000
75.38614 55.000
75.40609 44.000
75.42603 58.000
75.44598 53.000
75.46593 45.000
75.48588 62.000
75.50582 60.000
75.52577 51.000
75.54572 56.000
75.56566 62.000
75.58561 57.000
75.60556 59.000
75.62550 38.000
75.64545 53.000
75.66540 55.000
75.68535 45.000
75.70529 43.000
75.72524 48.000
75.74519 36.000
75.76513 34.000
75.78508 46.000
75.80503 40.000
75.82497 53.000
75.84492 39.000
75.86487 47.000
75.88481 30.000
75.90476 44.000
75.92471 44.000
75.94466 59.000
75.96460 38.000
75.98455 39.000
76.00450 28.000
76.02444 35.000
76.04439 42.000
76.06434 45.000
76.08428 35.000
76.10423 35.000
76.12418 39.000
76.14413 48.000
76.16407 22.000
76.18402 34.000
76.20397 32.000
76.22391 34.000
76.24386 32.000
76.26381 29.000
76.28375 39.000
76.30370 29.000
76.32365 33.000
76.34359 32.000
76.36354 48.000
76.38349 50.000
76.40344 37.000
76.42338 37.000
76.44333 35.000
76.46328 40.000
76.48322 41.000
76.50317 37.000
76.52312 44.000
76.54306 27.000
76.56301 42.000
76.58296 31.000
76.60291 40.000
76.62285 48.000
76.64280 30.000
76.66275 47.000
76.68269 32.000
76.70264 51.000
76.72259 31.000
76.74253 49.000
76.76248 37.000
76.78243 47.000
76.80238 41.000
76.82232 39.000
76.84227 45.000
76.86222 39.000
76.88216 57.000
76.90211 48.000
76.92206 46.000
76.94200 46.000
76.96195 48.000
76.98190 58.000
77.00184 52.000
77.02179 61.000
77.04174 54.000
77.06169 71.000
77.08163 72.000
77.10158 80.000
77.12153 72.000
77.14147 78.000
77.16142 92.000
77.18137 87.000
77.20131 94.000
77.22126 100.000
77.24121 81.000
77.26116 96.000
77.28110 100.000
77.30105 92.000
77.32100 98.000
77.34094 97.000
77.36089 102.000
77.38084 102.000
77.40078 94.000
77.42073 105.000
77.44068 105.000
77.46062 107.000
77.48057 102.000
77.50052 113.000
77.52047 101.000
77.54041 80.000
77.56036 76.000
77.58031 97.000
77.60025 85.000
77.62020 84.000
77.64015 90.000
77.66009 87.000
77.68004 76.000
77.69999 91.000
77.71994 94.000
77.73988 79.000
77.75983 75.000
77.77978 83.000
77.79972 81.000
77.81967 82.000
77.83962 52.000
77.85956 58.000
77.87951 69.000
77.89946 71.000
77.91940 61.000
77.93935 58.000
77.95930 74.000
77.97925 41.000
77.99919 57.000
78.01914 56.000
78.03909 63.000
78.05903 51.000
78.07898 48.000
78.09893 43.000
78.11887 45.000
78.13882 56.000
78.15877 38.000
78.17872 51.000
78.19866 51.000
78.21861 46.000
78.23856 40.000
78.25850 55.000
78.27845 39.000
78.29840 43.000
78.31834 41.000
78.33829 36.000
78.35824 41.000
78.37819 49.000
78.39813 52.000
78.41808 44.000
78.43803 31.000
78.45797 36.000
78.47792 44.000
78.49787 34.000
78.51781 31.000
78.53776 31.000
78.55771 36.000
78.57765 45.000
78.59760 42.000
78.61755 38.000
78.63750 43.000
78.65744 35.000
78.67739 39.000
78.69734 37.000
78.71728 39.000
78.73723 34.000
78.75718 48.000
78.77712 30.000
78.79707 37.000
78.81702 39.000
78.83697 43.000
78.85691 47.000
78.87686 31.000
78.89681 45.000
78.91675 37.000
78.93670 38.000
78.95665 37.000
78.97659 42.000
78.99654 27.000
79.01649 40.000
79.03643 43.000
79.05638 36.000
79.07633 41.000
79.09628 38.000
79.11622 24.000
79.13617 34.000
79.15612 41.000
79.17606 40.000
79.19601 47.000
79.21596 40.000
79.23590 43.000
79.25585 40.000
79.27580 40.000
79.29575 39.000
79.31569 51.000
79.33564 41.000
79.35559 35.000
79.37553 36.000
79.39548 44.000
79.41543 38.000
79.43537 57.000
79.45532 46.000
79.47527 45.000
79.49521 48.000
79.51516 40.000
79.53511 36.000
79.55506 54.000
79.57500 49.000
79.59495 41.000
79.61490 43.000
79.63484 51.000
79.65479 50.000
79.67474 47.000
79.69468 48.000
79.71463 60.000
79.73458 54.000
79.75453 54.000
79.77447 40.000
79.79442 52.000
79.81437 48.000
79.83431 47.000
79.85426 44.000
79.87421 44.000
79.89415 51.000
79.91410 46.000
79.93405 40.000
79.95399 55.000
79.97394 31.000
79.99389 37.000
80.01384 48.000
80.03378 44.000
80.05373 48.000
80.07368 44.000
80.09362 44.000
80.11357 43.000
80.13352 32.000
80.15346 33.000
80.17341 38.000
80.19336 37.000
80.21331 30.000
80.23325 30.000
80.25320 47.000
80.27315 40.000
80.29309 39.000
80.31304 39.000
80.33299 31.000
80.35293 37.000
80.37288 36.000
80.39283 46.000
80.41278 37.000
80.43272 51.000
80.45267 42.000
80.47262 44.000
80.49256 34.000
80.51251 41.000
80.53246 44.000
80.55240 32.000
80.57235 35.000
80.59230 45.000
80.61224 43.000
80.63219 39.000
80.65214 35.000
80.67209 27.000
80.69203 33.000
80.71198 42.000
80.73193 29.000
80.75187 33.000
80.77182 34.000
80.79177 34.000
80.81171 43.000
80.83166 33.000
80.85161 51.000
80.87156 46.000
80.89150 40.000
80.91145 23.000
80.93140 29.000
80.95134 32.000
80.97129 36.000
80.99124 42.000
81.01118 31.000
81.03113 41.000
81.05108 38.000
81.07102 50.000
81.09097 34.000
81.11092 29.000
81.13087 28.000
81.15081 34.000
81.17076 37.000
81.19071 26.000
81.21065 37.000
81.23060 43.000
81.25055 45.000
81.27049 49.000
81.29044 32.000
81.31039 33.000
81.33034 36.000
81.35028 31.000
81.37023 50.000
81.39018 29.000
81.41012 39.000
81.43007 32.000
81.45002 37.000
81.46996 32.000
81.48991 42.000
81.50986 36.000
81.52980 33.000
81.54975 30.000
81.56970 31.000
81.58965 43.000
81.60959 33.000
81.62954 38.000
81.64949 36.000
81.66943 38.000
81.68938 38.000
81.70933 37.000
81.72927 31.000
81.74922 30.000
81.76917 41.000
81.78912 39.000
81.80906 39.000
81.82901 38.000
81.84896 48.000
81.86890 40.000
81.88885 32.000
81.90880 36.000
81.92874 32.000
81.94869 51.000
81.96864 28.000
81.98859 41.000
82.00853 36.000
82.02848 40.000
82.04843 39.000
82.06837 40.000
82.08832 32.000
82.10827 32.000
82.12821 39.000
82.14816 38.000
82.16811 49.000
82.18805 38.000
82.20800 29.000
82.22795 41.000
82.24790 44.000
82.26784 43.000
82.28779 34.000
82.30774 28.000
82.32768 37.000
82.34763 39.000
82.36758 53.000
82.38752 37.000
82.40747 42.000
82.42742 28.000
82.44737 37.000
82.46731 43.000
82.48726 39.000
82.50721 40.000
82.52715 45.000
82.54710 32.000
82.56705 44.000
82.58699 36.000
82.60694 29.000
82.62689 30.000
82.64683 38.000
82.66678 53.000
82.68673 31.000
82.70668 36.000
82.72662 41.000
82.74657 32.000
82.76652 37.000
82.78646 38.000
82.80641 40.000
82.82636 36.000
82.84630 28.000
82.86625 33.000
82.88620 45.000
82.90615 18.000
82.92609 41.000
82.94604 43.000
82.96599 41.000
82.98593 46.000
83.00588 38.000
83.02583 31.000
83.04577 31.000
83.06572 41.000
83.08567 34.000
83.10561 30.000
83.12556 39.000
83.14551 40.000
83.16546 33.000
83.18540 34.000
83.20535 33.000
83.22530 39.000
83.24524 53.000
83.26519 38.000
83.28514 35.000
83.30508 31.000
83.32503 32.000
83.34498 35.000
83.36493 30.000
83.38487 41.000
83.40482 33.000
83.42477 24.000
83.44471 47.000
83.46466 23.000
83.48461 19.000
83.50455 27.000
83.52450 31.000
83.54445 29.000
83.56440 38.000
83.58434 36.000
83.60429 28.000
83.62424 44.000
83.64418 38.000
83.66413 42.000
83.68408 36.000
83.70402 26.000
83.72397 26.000
83.74392 29.000
83.76386 41.000
83.78381 35.000
83.80376 43.000
83.82371 28.000
83.84365 40.000
83.86360 29.000
83.88355 31.000
83.90349 49.000
83.92344 32.000
83.94339 36.000
83.96333 50.000
83.98328 44.000
84.00323 53.000
84.02318 38.000
84.04312 53.000
84.06307 25.000
84.08302 31.000
84.10296 47.000
84.12291 40.000
84.14286 36.000
84.16280 36.000
84.18275 41.000
84.20270 43.000
84.22264 43.000
84.24259 42.000
84.26254 32.000
84.28249 41.000
84.30243 38.000
84.32238 39.000
84.34233 36.000
84.36227 43.000
84.38222 44.000
84.40217 39.000
84.42211 31.000
84.44206 37.000
84.46201 42.000
84.48196 35.000
84.50190 42.000
84.52185 32.000
84.54180 38.000
84.56174 26.000
84.58169 35.000
84.60164 33.000
84.62158 34.000
84.64153 33.000
84.66148 25.000
84.68142 32.000
84.70137 30.000
84.72132 39.000
84.74127 36.000
84.76121 31.000
84.78116 29.000
84.80111 34.000
84.82105 47.000
84.84100 48.000
84.86095 36.000
84.88089 46.000
84.90084 24.000
84.92079 37.000
84.94074 34.000
84.96068 38.000
84.98063 36.000
85.00058 41.000
85.02052 24.000
85.04047 35.000
85.06042 31.000
85.08036 43.000
85.10031 35.000
85.12026 37.000
85.14021 42.000
85.16015 48.000
85.18010 36.000
85.20005 35.000
85.21999 34.000
85.23994 43.000
85.25989 36.000
85.27983 31.000
85.29978 31.000
85.31973 45.000
85.33967 28.000
85.35962 34.000
85.37957 29.000
85.39952 31.000
85.41946 32.000
85.43941 33.000
85.45936 37.000
85.47930 49.000
85.49925 42.000
85.51920 51.000
85.53914 42.000
85.55909 26.000
85.57904 46.000
85.59899 42.000
85.61893 36.000
85.63888 29.000
85.65883 35.000
85.67877 48.000
85.69872 42.000
85.71867 47.000
85.73861 38.000
85.75856 34.000
85.77851 51.000
85.79845 51.000
85.81840 43.000
85.83835 37.000
85.85830 52.000
85.87824 41.000
85.89819 38.000
85.91814 60.000
85.93808 49.000
85.95803 56.000
85.97798 60.000
85.99792 34.000
86.01787 55.000
86.03782 50.000
86.05777 51.000
86.07771 40.000
86.09766 46.000
86.11761 59.000
86.13755 49.000
86.15750 53.000
86.17745 55.000
86.19739 56.000
86.21734 51.000
86.23729 35.000
86.25723 54.000
86.27718 58.000
86.29713 55.000
86.31708 53.000
86.33702 45.000
86.35697 53.000
86.37692 46.000
86.39686 50.000
86.41681 45.000
86.43676 47.000
86.45670 33.000
86.47665 38.000
86.49660 41.000
86.51655 48.000
86.53649 43.000
86.55644 30.000
86.57639 52.000
86.59633 47.000
86.61628 32.000
86.63623 36.000
86.65617 38.000
86.67612 39.000
86.69607 47.000
86.71602 54.000
86.73596 37.000
86.75591 41.000
86.77586 47.000
86.79580 40.000
86.81575 30.000
86.83570 40.000
86.85564 44.000
86.87559 41.000
86.89554 41.000
86.91548 47.000
86.93543 43.000
86.95538 40.000
86.97533 33.000
86.99527 47.000
87.01522 41.000
87.03517 51.000
87.05511 50.000
87.07506 31.000
87.09501 53.000
87.11495 24.000
87.13490 50.000
87.15485 43.000
87.17480 45.000
87.19474 44.000
87.21469 52.000
87.23464 48.000
87.25458 47.000
87.27453 40.000
87.29448 52.000
87.31442 46.000
87.33437 37.000
87.35432 50.000
87.37426 43.000
87.39421 57.000
87.41416 57.000
87.43411 57.000
87.45405 40.000
87.47400 47.000
87.49395 62.000
87.51389 47.000
87.53384 51.000
87.55379 48.000
87.57373 38.000
87.59368 41.000
87.61363 48.000
87.63358 37.000
87.65352 43.000
87.67347 48.000
87.69342 50.000
87.71336 43.000
87.73331 41.000
87.75326 42.000
87.77320 35.000
87.79315 48.000
87.81310 37.000
87.83304 50.000
87.85299 31.000
87.87294 32.000
87.89289 31.000
87.91283 35.000
87.93278 34.000
87.95273 46.000
87.97267 33.000
87.99262 36.000
88.01257 35.000
88.03251 32.000
88.05246 37.000
88.07241 42.000
88.09236 36.000
88.11230 32.000
88.13225 33.000
88.15220 27.000
88.17214 29.000
88.19209 24.000
88.21204 37.000
88.23198 41.000
88.25193 35.000
88.27188 33.000
88.29183 35.000
88.31177 27.000
88.33172 30.000
88.35167 38.000
88.37161 36.000
88.39156 29.000
88.41151 24.000
88.43145 32.000
88.45140 34.000
88.47135 32.000
88.49129 43.000
88.51124 29.000
88.53119 32.000
88.55114 32.000
88.57108 41.000
88.59103 40.000
88.61098 33.000
88.63092 45.000
88.65087 39.000
88.67082 35.000
88.69076 44.000
88.71071 28.000
88.73066 43.000
88.75061 31.000
88.77055 37.000
88.79050 36.000
88.81045 34.000
88.83039 33.000
88.85034 26.000
88.87029 39.000
88.89023 33.000
88.91018 38.000
88.93013 34.000
88.95007 40.000
88.97002 35.000
88.98997 38.000
89.00992 32.000
89.02986 28.000
89.04981 44.000
89.06976 41.000
89.08970 49.000
89.10965 29.000
89.12960 36.000
89.14954 40.000
89.16949 36.000
89.18944 36.000
89.20939 28.000
89.22933 37.000
89.24928 37.000
89.26923 41.000
89.28917 33.000
89.30912 58.000
89.32907 39.000
89.34901 49.000
89.36896 27.000
89.38891 40.000
89.40885 43.000
89.42880 48.000
89.44875 48.000
89.46870 36.000
89.48864 54.000
89.50859 49.000
89.52854 48.000
89.54848 54.000
89.56843 41.000
89.58838 59.000
89.60832 62.000
89.62827 50.000
89.64822 59.000
89.66817 60.000
89.68811 65.000
89.70806 67.000
89.72801 72.000
89.74795 70.000
89.76790 85.000
89.78785 79.000
89.80779 90.000
89.82774 77.000
89.84769 76.000
89.86764 100.000
89.88758 91.000
89.90753 98.000
89.92748 89.000
89.94742 94.000
89.96737 111.000
89.98732 107.000
90.00726 101.000
