10.00000 375.000
10.01995 396.000
10.03989 386.000
10.05984 392.000
10.07979 395.000
10.09973 363.000
10.11968 403.000
10.13963 354.000
10.15958 404.000
10.17952 389.000
10.19947 383.000
10.21942 388.000
10.23936 414.000
10.25931 350.000
10.27926 397.000
10.29920 397.000
10.31915 352.000
10.33910 366.000
10.35905 375.000
10.37899 417.000
10.39894 396.000
10.41889 396.000
10.43883 389.000
10.45878 372.000
10.47873 393.000
10.49867 399.000
10.51862 423.000
10.53857 388.000
10.55851 381.000
10.57846 441.000
10.59841 392.000
10.61836 372.000
10.63830 386.000
10.65825 384.000
10.67820 388.000
10.69814 407.000
10.71809 392.000
10.73804 400.000
10.75798 384.000
10.77793 401.000
10.79788 398.000
10.81783 380.000
10.83777 427.000
10.85772 391.000
10.87767 384.000
10.89761 417.000
10.91756 444.000
10.93751 405.000
10.95745 442.000
10.97740 363.000
10.99735 406.000
11.01730 417.000
11.03724 390.000
11.05719 389.000
11.07714 380.000
11.09708 413.000
11.11703 410.000
11.13698 413.000
11.15692 364.000
11.17687 376.000
11.19682 395.000
11.21676 405.000
11.23671 412.000
11.25666 394.000
11.27661 413.000
11.29655 412.000
11.31650 419.000
11.33645 412.000
11.35639 393.000
11.37634 397.000
11.39629 427.000
11.41623 415.000
11.43618 388.000
11.45613 382.000
11.47608 387.000
11.49602 406.000
11.51597 408.000
11.53592 385.000
11.55586 382.000
11.57581 382.000
11.59576 422.000
11.61570 405.000
11.63565 388.000
11.65560 391.000
11.67554 418.000
11.69549 403.000
11.71544 409.000
11.73539 395.000
11.75533 433.000
11.77528 377.000
11.79523 428.000
11.81517 375.000
11.83512 413.000
11.85507 392.000
11.87501 419.000
11.89496 414.000
11.91491 391.000
11.93486 423.000
11.95480 412.000
11.97475 418.000
11.99470 395.000
12.01464 375.000
12.03459 398.000
12.05454 439.000
12.07448 417.000
12.09443 428.000
12.11438 395.000
12.13432 437.000
12.15427 373.000
12.17422 392.000
12.19417 416.000
12.21411 399.000
12.23406 426.000
12.25401 390.000
12.27395 378.000
12.29390 385.000
12.31385 402.000
12.33379 423.000
12.35374 394.000
12.37369 427.000
12.39364 421.000
12.41358 384.000
12.43353 444.000
12.45348 460.000
12.47342 415.000
12.49337 472.000
12.51332 408.000
12.53326 386.000
12.55321 380.000
12.57316 407.000
12.59311 392.000
12.61305 396.000
12.63300 400.000
12.65295 407.000
12.67289 413.000
12.69284 384.000
12.71279 399.000
12.73273 400.000
12.75268 390.000
12.77263 391.000
12.79257 424.000
12.81252 434.000
12.83247 426.000
12.85242 398.000
12.87236 437.000
12.89231 393.000
12.91226 382.000
12.93220 420.000
12.95215 394.000
12.97210 396.000
12.99204 427.000
13.01199 411.000
13.03194 388.000
13.05189 406.000
13.07183 386.000
13.09178 423.000
13.11173 409.000
13.13167 407.000
13.15162 444.000
13.17157 390.000
13.19151 398.000
13.21146 397.000
13.23141 429.000
13.25135 388.000
13.27130 408.000
13.29125 409.000
13.31120 424.000
13.33114 425.000
13.35109 416.000
13.37104 375.000
13.39098 426.000
13.41093 396.000
13.43088 413.000
13.45082 408.000
13.47077 399.000
13.49072 434.000
13.51067 414.000
13.53061 422.000
13.55056 410.000
13.57051 399.000
13.59045 418.000
13.61040 409.000
13.63035 421.000
13.65029 392.000
13.67024 419.000
13.69019 416.000
13.71013 405.000
13.73008 431.000
13.75003 413.000
13.76998 430.000
13.78992 397.000
13.80987 418.000
13.82982 431.000
13.84976 418.000
13.86971 413.000
13.88966 384.000
13.90960 385.000
13.92955 451.000
13.94950 415.000
13.96945 408.000
13.98939 346.000
14.00934 410.000
14.02929 386.000
14.04923 436.000
14.06918 432.000
14.08913 410.000
14.10907 398.000
14.12902 433.000
14.14897 416.000
14.16892 433.000
14.18886 439.000
14.20881 416.000
14.22876 428.000
14.24870 378.000
14.26865 432.000
14.28860 441.000
14.30854 417.000
14.32849 401.000
14.34844 399.000
14.36838 390.000
14.38833 406.000
14.40828 404.000
14.42823 410.000
14.44817 415.000
14.46812 368.000
14.48807 415.000
14.50801 414.000
14.52796 437.000
14.54791 392.000
14.56785 422.000
14.58780 423.000
14.60775 417.000
14.62770 438.000
14.64764 442.000
14.66759 431.000
14.68754 390.000
14.70748 387.000
14.72743 389.000
14.74738 360.000
14.76732 421.000
14.78727 429.000
14.80722 431.000
14.82716 423.000
14.84711 415.000
14.86706 410.000
14.88701 420.000
14.90695 408.000
14.92690 421.000
14.94685 423.000
14.96679 404.000
14.98674 386.000
15.00669 412.000
15.02663 414.000
15.04658 380.000
15.06653 422.000
15.08648 410.000
15.10642 428.000
15.12637 446.000
15.14632 441.000
15.16626 406.000
15.18621 417.000
15.20616 443.000
15.22610 420.000
15.24605 394.000
15.26600 432.000
15.28594 407.000
15.30589 402.000
15.32584 439.000
15.34579 412.000
15.36573 401.000
15.38568 456.000
15.40563 453.000
15.42557 438.000
15.44552 468.000
15.46547 417.000
15.48541 442.000
15.50536 451.000
15.52531 454.000
15.54526 433.000
15.56520 467.000
15.58515 431.000
15.60510 410.000
15.62504 438.000
15.64499 471.000
15.66494 510.000
15.68488 517.000
15.70483 493.000
15.72478 525.000
15.74472 565.000
15.76467 554.000
15.78462 724.000
15.80457 810.000
15.82451 920.000
15.84446 1127.000
15.86441 1242.000
15.88435 1509.000
15.90430 1545.000
15.92425 1481.000
15.94419 1363.000
15.96414 1278.000
15.98409 1130.000
16.00404 880.000
16.02398 691.000
16.04393 599.000
16.06388 551.000
16.08382 561.000
16.10377 606.000
16.12372 573.000
16.14366 626.000
16.16361 678.000
16.18356 686.000
16.20351 772.000
16.22345 767.000
16.24340 828.000
16.26335 918.000
16.28329 990.000
16.30324 998.000
16.32319 1090.000
16.34313 1162.000
16.36308 1206.000
16.38303 1261.000
16.40297 1272.000
16.42292 1223.000
16.44287 1193.000
16.46282 1229.000
16.48276 1198.000
16.50271 1089.000
16.52266 928.000
16.54260 814.000
16.56255 756.000
16.58250 630.000
16.60244 518.000
16.62239 508.000
16.64234 469.000
16.66229 514.000
16.68223 465.000
16.70218 517.000
16.72213 449.000
16.74207 466.000
16.76202 516.000
16.78197 548.000
16.80191 579.000
16.82186 597.000
16.84181 627.000
16.86175 631.000
16.88170 604.000
16.90165 622.000
16.92160 579.000
16.94154 513.000
16.96149 526.000
16.98144 474.000
17.00138 470.000
17.02133 465.000
17.04128 435.000
17.06122 424.000
17.08117 444.000
17.10112 426.000
17.12107 449.000
17.14101 448.000
17.16096 465.000
17.18091 454.000
17.20085 418.000
17.22080 372.000
17.24075 406.000
17.26069 448.000
17.28064 418.000
17.30059 404.000
17.32053 437.000
17.34048 410.000
17.36043 430.000
17.38038 420.000
17.40032 412.000
17.42027 426.000
17.44022 411.000
17.46016 415.000
17.48011 412.000
17.50006 415.000
17.52000 403.000
17.53995 421.000
17.55990 437.000
17.57985 396.000
17.59979 444.000
17.61974 444.000
17.63969 419.000
17.65963 434.000
17.67958 404.000
17.69953 420.000
17.71947 425.000
17.73942 444.000
17.75937 406.000
17.77932 454.000
17.79926 401.000
17.81921 416.000
17.83916 403.000
17.85910 475.000
17.87905 447.000
17.89900 423.000
17.91894 421.000
17.93889 432.000
17.95884 440.000
17.97878 425.000
17.99873 403.000
18.01868 422.000
18.03863 463.000
18.05857 457.000
18.07852 424.000
18.09847 434.000
18.11841 480.000
18.13836 418.000
18.15831 462.000
18.17825 432.000
18.19820 481.000
18.21815 405.000
18.23810 439.000
18.25804 445.000
18.27799 443.000
18.29794 420.000
18.31788 457.000
18.33783 416.000
18.35778 431.000
18.37772 468.000
18.39767 442.000
18.41762 465.000
18.43756 482.000
18.45751 443.000
18.47746 461.000
18.49741 393.000
18.51735 455.000
18.53730 457.000
18.55725 463.000
18.57719 436.000
18.59714 433.000
18.61709 429.000
18.63703 440.000
18.65698 423.000
18.67693 426.000
18.69688 430.000
18.71682 430.000
18.73677 434.000
18.75672 413.000
18.77666 414.000
18.79661 410.000
18.81656 439.000
18.83650 417.000
18.85645 474.000
18.87640 443.000
18.89634 435.000
18.91629 419.000
18.93624 475.000
18.95619 451.000
18.97613 410.000
18.99608 414.000
19.01603 389.000
19.03597 425.000
19.05592 441.000
19.07587 451.000
19.09581 427.000
19.11576 414.000
19.13571 446.000
19.15566 435.000
19.17560 414.000
19.19555 422.000
19.21550 417.000
19.23544 400.000
19.25539 471.000
19.27534 439.000
19.29528 408.000
19.31523 437.000
19.33518 415.000
19.35513 401.000
19.37507 427.000
19.39502 423.000
19.41497 445.000
19.43491 433.000
19.45486 447.000
19.47481 440.000
19.49475 392.000
19.51470 458.000
19.53465 433.000
19.55459 440.000
19.57454 405.000
19.59449 399.000
19.61444 421.000
19.63438 421.000
19.65433 445.000
19.67428 409.000
19.69422 456.000
19.71417 410.000
19.73412 414.000
19.75406 422.000
19.77401 436.000
19.79396 444.000
19.81391 423.000
19.83385 416.000
19.85380 448.000
19.87375 420.000
19.89369 435.000
19.91364 438.000
19.93359 400.000
19.95353 442.000
19.97348 452.000
19.99343 457.000
20.01337 419.000
20.03332 406.000
20.05327 438.000
20.07322 421.000
20.09316 445.000
20.11311 432.000
20.13306 440.000
20.15300 441.000
20.17295 416.000
20.19290 428.000
20.21284 442.000
20.23279 451.000
20.25274 430.000
20.27269 414.000
20.29263 422.000
20.31258 451.000
20.33253 441.000
20.35247 482.000
20.37242 451.000
20.39237 441.000
20.41231 463.000
20.43226 453.000
20.45221 453.000
20.47215 419.000
20.49210 457.000
20.51205 499.000
20.53200 480.000
20.55194 452.000
20.57189 468.000
20.59184 462.000
20.61178 500.000
20.63173 494.000
20.65168 473.000
20.67162 459.000
20.69157 514.000
20.71152 500.000
20.73147 535.000
20.75141 556.000
20.77136 576.000
20.79131 626.000
20.81125 616.000
20.83120 640.000
20.85115 697.000
20.87109 689.000
20.89104 741.000
20.91099 747.000
20.93094 714.000
20.95088 741.000
20.97083 741.000
20.99078 670.000
21.01072 671.000
21.03067 606.000
21.05062 640.000
21.07056 668.000
21.09051 597.000
21.11046 584.000
21.13040 557.000
21.15035 552.000
21.17030 524.000
21.19025 494.000
21.21019 506.000
21.23014 502.000
21.25009 467.000
21.27003 489.000
21.28998 438.000
21.30993 431.000
21.32987 427.000
21.34982 462.000
21.36977 401.000
21.38972 400.000
21.40966 403.000
21.42961 395.000
21.44956 451.000
21.46950 433.000
21.48945 454.000
21.50940 429.000
21.52934 432.000
21.54929 442.000
21.56924 447.000
21.58918 447.000
21.60913 445.000
21.62908 466.000
21.64903 413.000
21.66897 406.000
21.68892 427.000
21.70887 447.000
21.72881 404.000
21.74876 431.000
21.76871 448.000
21.78865 426.000
21.80860 480.000
21.82855 416.000
21.84850 414.000
21.86844 442.000
21.88839 429.000
21.90834 466.000
21.92828 409.000
21.94823 450.000
21.96818 442.000
21.98812 460.000
22.00807 467.000
22.02802 426.000
22.04796 425.000
22.06791 431.000
22.08786 449.000
22.10781 422.000
22.12775 436.000
22.14770 452.000
22.16765 459.000
22.18759 443.000
22.20754 442.000
22.22749 464.000
22.24743 467.000
22.26738 452.000
22.28733 449.000
22.30728 436.000
22.32722 446.000
22.34717 420.000
22.36712 436.000
22.38706 428.000
22.40701 425.000
22.42696 416.000
22.44690 460.000
22.46685 446.000
22.48680 426.000
22.50675 420.000
22.52669 461.000
22.54664 428.000
22.56659 380.000
22.58653 404.000
22.60648 428.000
22.62643 420.000
22.64637 448.000
22.66632 440.000
22.68627 446.000
22.70621 451.000
22.72616 414.000
22.74611 440.000
22.76606 406.000
22.78600 471.000
22.80595 437.000
22.82590 402.000
22.84584 412.000
22.86579 488.000
22.88574 407.000
22.90568 453.000
22.92563 433.000
22.94558 473.000
22.96553 400.000
22.98547 428.000
23.00542 455.000
23.02537 409.000
23.04531 426.000
23.06526 447.000
23.08521 472.000
23.10515 468.000
23.12510 452.000
23.14505 466.000
23.16499 476.000
23.18494 479.000
23.20489 427.000
23.22484 457.000
23.24478 444.000
23.26473 437.000
23.28468 432.000
23.30462 414.000
23.32457 443.000
23.34452 430.000
23.36446 457.000
23.38441 445.000
23.40436 452.000
23.42431 436.000
23.44425 438.000
23.46420 464.000
23.48415 430.000
23.50409 423.000
23.52404 440.000
23.54399 424.000
23.56393 464.000
23.58388 457.000
23.60383 396.000
23.62377 491.000
23.64372 442.000
23.66367 459.000
23.68362 441.000
23.70356 433.000
23.72351 464.000
23.74346 457.000
23.76340 443.000
23.78335 446.000
23.80330 425.000
23.82324 435.000
23.84319 493.000
23.86314 410.000
23.88309 429.000
23.90303 465.000
23.92298 454.000
23.94293 434.000
23.96287 413.000
23.98282 443.000
24.00277 429.000
24.02271 454.000
24.04266 437.000
24.06261 450.000
24.08256 433.000
24.10250 436.000
24.12245 436.000
24.14240 481.000
24.16234 458.000
24.18229 447.000
24.20224 477.000
24.22218 437.000
24.24213 489.000
24.26208 448.000
24.28202 447.000
24.30197 456.000
24.32192 450.000
24.34187 455.000
24.36181 412.000
24.38176 458.000
24.40171 449.000
24.42165 443.000
24.44160 428.000
24.46155 465.000
24.48149 440.000
24.50144 419.000
24.52139 431.000
24.54134 437.000
24.56128 464.000
24.58123 476.000
24.60118 451.000
24.62112 454.000
24.64107 417.000
24.66102 413.000
24.68096 454.000
24.70091 464.000
24.72086 457.000
24.74080 485.000
24.76075 484.000
24.78070 461.000
24.80065 449.000
24.82059 456.000
24.84054 408.000
24.86049 495.000
24.88043 456.000
24.90038 473.000
24.92033 510.000
24.94027 513.000
24.96022 532.000
24.98017 606.000
25.00012 565.000
25.02006 593.000
25.04001 506.000
25.05996 571.000
25.07990 557.000
25.09985 538.000
25.11980 496.000
25.13974 513.000
25.15969 467.000
25.17964 485.000
25.19958 483.000
25.21953 457.000
25.23948 447.000
25.25943 439.000
25.27937 479.000
25.29932 460.000
25.31927 443.000
25.33921 436.000
25.35916 465.000
25.37911 415.000
25.39905 452.000
25.41900 437.000
25.43895 435.000
25.45890 479.000
25.47884 427.000
25.49879 437.000
25.51874 477.000
25.53868 428.000
25.55863 457.000
25.57858 375.000
25.59852 462.000
25.61847 432.000
25.63842 396.000
25.65837 428.000
25.67831 455.000
25.69826 451.000
25.71821 409.000
25.73815 433.000
25.75810 432.000
25.77805 453.000
25.79799 436.000
25.81794 430.000
25.83789 451.000
25.85783 420.000
25.87778 442.000
25.89773 406.000
25.91768 442.000
25.93762 430.000
25.95757 429.000
25.97752 476.000
25.99746 438.000
26.01741 471.000
26.03736 407.000
26.05730 456.000
26.07725 465.000
26.09720 432.000
26.11715 458.000
26.13709 463.000
26.15704 439.000
26.17699 447.000
26.19693 452.000
26.21688 437.000
26.23683 450.000
26.25677 445.000
26.27672 455.000
26.29667 480.000
26.31661 472.000
26.33656 481.000
26.35651 454.000
26.37646 434.000
26.39640 475.000
26.41635 469.000
26.43630 496.000
26.45624 466.000
26.47619 474.000
26.49614 436.000
26.51608 433.000
26.53603 466.000
26.55598 443.000
26.57593 455.000
26.59587 461.000
26.61582 459.000
26.63577 452.000
26.65571 452.000
26.67566 419.000
26.69561 476.000
26.71555 461.000
26.73550 487.000
26.75545 445.000
26.77539 444.000
26.79534 449.000
26.81529 495.000
26.83524 502.000
26.85518 450.000
26.87513 459.000
26.89508 426.000
26.91502 457.000
26.93497 471.000
26.95492 469.000
26.97486 499.000
26.99481 479.000
27.01476 422.000
27.03471 443.000
27.05465 446.000
27.07460 476.000
27.09455 462.000
27.11449 447.000
27.13444 444.000
27.15439 430.000
27.17433 462.000
27.19428 482.000
27.21423 454.000
27.23417 467.000
27.25412 468.000
27.27407 464.000
27.29402 469.000
27.31396 455.000
27.33391 424.000
27.35386 439.000
27.37380 460.000
27.39375 428.000
27.41370 461.000
27.43364 454.000
27.45359 445.000
27.47354 476.000
27.49349 458.000
27.51343 467.000
27.53338 458.000
27.55333 459.000
27.57327 476.000
27.59322 449.000
27.61317 455.000
27.63311 501.000
27.65306 447.000
27.67301 499.000
27.69296 453.000
27.71290 475.000
27.73285 464.000
27.75280 439.000
27.77274 435.000
27.79269 510.000
27.81264 474.000
27.83258 462.000
27.85253 514.000
27.87248 396.000
27.89242 473.000
27.91237 453.000
27.93232 451.000
27.95227 443.000
27.97221 491.000
27.99216 437.000
28.01211 466.000
28.03205 450.000
28.05200 400.000
28.07195 513.000
28.09189 427.000
28.11184 446.000
28.13179 403.000
28.15174 476.000
28.17168 482.000
28.19163 497.000
28.21158 479.000
28.23152 422.000
28.25147 458.000
28.27142 430.000
28.29136 464.000
28.31131 446.000
28.33126 440.000
28.35120 447.000
28.37115 458.000
28.39110 497.000
28.41105 473.000
28.43099 516.000
28.45094 484.000
28.47089 465.000
28.49083 444.000
28.51078 477.000
28.53073 453.000
28.55067 487.000
28.57062 474.000
28.59057 494.000
28.61052 404.000
28.63046 475.000
28.65041 449.000
28.67036 454.000
28.69030 473.000
28.71025 484.000
28.73020 439.000
28.75014 436.000
28.77009 459.000
28.79004 468.000
28.80998 444.000
28.82993 502.000
28.84988 449.000
28.86983 478.000
28.88977 484.000
28.90972 461.000
28.92967 448.000
28.94961 453.000
28.96956 444.000
28.98951 498.000
29.00945 496.000
29.02940 477.000
29.04935 476.000
29.06930 488.000
29.08924 455.000
29.10919 481.000
29.12914 534.000
29.14908 479.000
29.16903 501.000
29.18898 485.000
29.20892 487.000
29.22887 527.000
29.24882 578.000
29.26877 624.000
29.28871 659.000
29.30866 700.000
29.32861 734.000
29.34855 850.000
29.36850 867.000
29.38845 933.000
29.40839 942.000
29.42834 923.000
29.44829 850.000
29.46823 853.000
29.48818 812.000
29.50813 727.000
29.52808 671.000
29.54802 661.000
29.56797 586.000
29.58792 600.000
29.60786 612.000
29.62781 538.000
29.64776 528.000
29.66770 520.000
29.68765 504.000
29.70760 530.000
29.72755 549.000
29.74749 527.000
29.76744 520.000
29.78739 494.000
29.80733 467.000
29.82728 467.000
29.84723 484.000
29.86717 495.000
29.88712 468.000
29.90707 460.000
29.92701 453.000
29.94696 460.000
29.96691 451.000
29.98686 443.000
30.00680 497.000
30.02675 504.000
30.04670 482.000
30.06664 470.000
30.08659 490.000
30.10654 474.000
30.12648 500.000
30.14643 483.000
30.16638 481.000
30.18633 498.000
30.20627 451.000
30.22622 506.000
30.24617 486.000
30.26611 493.000
30.28606 507.000
30.30601 501.000
30.32595 486.000
30.34590 502.000
30.36585 511.000
30.38579 480.000
30.40574 476.000
30.42569 475.000
30.44564 472.000
30.46558 500.000
30.48553 447.000
30.50548 489.000
30.52542 467.000
30.54537 487.000
30.56532 452.000
30.58526 460.000
30.60521 461.000
30.62516 509.000
30.64511 443.000
30.66505 466.000
30.68500 471.000
30.70495 484.000
30.72489 453.000
30.74484 487.000
30.76479 461.000
30.78473 460.000
30.80468 508.000
30.82463 483.000
30.84458 442.000
30.86452 484.000
30.88447 478.000
30.90442 526.000
30.92436 441.000
30.94431 487.000
30.96426 487.000
30.98420 501.000
31.00415 483.000
31.02410 473.000
31.04404 466.000
31.06399 460.000
31.08394 481.000
31.10389 456.000
31.12383 481.000
31.14378 442.000
31.16373 527.000
31.18367 487.000
31.20362 491.000
31.22357 493.000
31.24351 487.000
31.26346 472.000
31.28341 471.000
31.30336 476.000
31.32330 494.000
31.34325 493.000
31.36320 467.000
31.38314 440.000
31.40309 454.000
31.42304 472.000
31.44298 428.000
31.46293 455.000
31.48288 478.000
31.50282 496.000
31.52277 492.000
31.54272 460.000
31.56267 470.000
31.58261 465.000
31.60256 463.000
31.62251 501.000
31.64245 497.000
31.66240 499.000
31.68235 486.000
31.70229 448.000
31.72224 465.000
31.74219 441.000
31.76214 447.000
31.78208 515.000
31.80203 454.000
31.82198 480.000
31.84192 521.000
31.86187 454.000
31.88182 460.000
31.90176 494.000
31.92171 498.000
31.94166 460.000
31.96160 486.000
31.98155 525.000
32.00150 531.000
32.02145 552.000
32.04139 529.000
32.06134 567.000
32.08129 541.000
32.10123 555.000
32.12118 545.000
32.14113 575.000
32.16107 584.000
32.18102 575.000
32.20097 532.000
32.22092 552.000
32.24086 548.000
32.26081 500.000
32.28076 541.000
32.30070 502.000
32.32065 544.000
32.34060 553.000
32.36054 565.000
32.38049 590.000
32.40044 647.000
32.42039 630.000
32.44033 712.000
32.46028 755.000
32.48023 838.000
32.50017 941.000
32.52012 933.000
32.54007 897.000
32.56001 798.000
32.57996 763.000
32.59991 717.000
32.61985 746.000
32.63980 622.000
32.65975 628.000
32.67970 548.000
32.69964 537.000
32.71959 590.000
32.73954 531.000
32.75948 481.000
32.77943 487.000
32.79938 511.000
32.81932 482.000
32.83927 510.000
32.85922 528.000
32.87917 502.000
32.89911 539.000
32.91906 550.000
32.93901 509.000
32.95895 550.000
32.97890 525.000
32.99885 506.000
33.01879 566.000
33.03874 602.000
33.05869 530.000
33.07863 543.000
33.09858 577.000
33.11853 519.000
33.13848 515.000
33.15842 561.000
33.17837 560.000
33.19832 547.000
33.21826 554.000
33.23821 535.000
33.25816 560.000
33.27810 569.000
33.29805 557.000
33.31800 545.000
33.33795 554.000
33.35789 559.000
33.37784 522.000
33.39779 559.000
33.41773 499.000
33.43768 491.000
33.45763 515.000
33.47757 470.000
33.49752 468.000
33.51747 476.000
33.53741 467.000
33.55736 468.000
33.57731 500.000
33.59726 525.000
33.61720 492.000
33.63715 479.000
33.65710 505.000
33.67704 511.000
33.69699 469.000
33.71694 513.000
33.73688 470.000
33.75683 486.000
33.77678 505.000
33.79673 476.000
33.81667 479.000
33.83662 499.000
33.85657 524.000
33.87651 496.000
33.89646 504.000
33.91641 483.000
33.93635 506.000
33.95630 499.000
33.97625 528.000
33.99620 560.000
34.01614 538.000
34.03609 538.000
34.05604 557.000
34.07598 508.000
34.09593 565.000
34.11588 538.000
34.13582 591.000
34.15577 595.000
34.17572 651.000
34.19566 597.000
34.21561 633.000
34.23556 675.000
34.25551 686.000
34.27545 697.000
34.29540 717.000
34.31535 735.000
34.33529 780.000
34.35524 768.000
34.37519 812.000
34.39513 734.000
34.41508 871.000
34.43503 834.000
34.45498 834.000
34.47492 814.000
34.49487 815.000
34.51482 797.000
34.53476 828.000
34.55471 769.000
34.57466 776.000
34.59460 765.000
34.61455 697.000
34.63450 733.000
34.65444 724.000
34.67439 692.000
34.69434 732.000
34.71429 741.000
34.73423 717.000
34.75418 764.000
34.77413 757.000
34.79407 836.000
34.81402 836.000
34.83397 889.000
34.85391 795.000
34.87386 812.000
34.89381 877.000
34.91376 814.000
34.93370 737.000
34.95365 733.000
34.97360 679.000
34.99354 723.000
35.01349 707.000
35.03344 640.000
35.05338 654.000
35.07333 665.000
35.09328 671.000
35.11322 673.000
35.13317 666.000
35.15312 743.000
35.17307 808.000
35.19301 814.000
35.21296 848.000
35.23291 945.000
35.25285 966.000
35.27280 989.000
35.29275 1090.000
35.31269 1231.000
35.33264 1330.000
35.35259 1489.000
35.37254 1851.000
35.39248 1994.000
35.41243 2322.000
35.43238 2823.000
35.45232 3178.000
35.47227 3353.000
35.49222 3499.000
35.51216 3890.000
35.53211 4367.000
35.55206 4540.000
35.57201 4426.000
35.59195 4124.000
35.61190 3704.000
35.63185 3362.000
35.65179 2971.000
35.67174 2653.000
35.69169 2138.000
35.71163 1773.000
35.73158 1537.000
35.75153 1269.000
35.77147 1171.000
35.79142 1077.000
35.81137 963.000
35.83132 858.000
35.85126 801.000
35.87121 719.000
35.89116 734.000
35.91110 685.000
35.93105 705.000
35.95100 669.000
35.97094 665.000
35.99089 603.000
36.01084 545.000
36.03079 617.000
36.05073 599.000
36.07068 592.000
36.09063 564.000
36.11057 584.000
36.13052 601.000
36.15047 569.000
36.17041 558.000
36.19036 596.000
36.21031 569.000
36.23025 579.000
36.25020 555.000
36.27015 590.000
36.29010 595.000
36.31004 557.000
36.32999 543.000
36.34994 566.000
36.36988 520.000
36.38983 545.000
36.40978 588.000
36.42972 542.000
36.44967 531.000
36.46962 553.000
36.48957 632.000
36.50951 537.000
36.52946 594.000
36.54941 586.000
36.56935 589.000
36.58930 583.000
36.60925 593.000
36.62919 645.000
36.64914 610.000
36.66909 645.000
36.68903 635.000
36.70898 657.000
36.72893 651.000
36.74888 693.000
36.76882 720.000
36.78877 719.000
36.80872 665.000
36.82866 683.000
36.84861 774.000
36.86856 714.000
36.88850 669.000
36.90845 693.000
36.92840 698.000
36.94835 739.000
36.96829 746.000
36.98824 690.000
37.00819 808.000
37.02813 777.000
37.04808 865.000
37.06803 833.000
37.08797 826.000
37.10792 898.000
37.12787 920.000
37.14781 926.000
37.16776 898.000
37.18771 861.000
37.20766 885.000
37.22760 842.000
37.24755 840.000
37.26750 743.000
37.28744 752.000
37.30739 712.000
37.32734 666.000
37.34728 643.000
37.36723 617.000
37.38718 592.000
37.40713 597.000
37.42707 586.000
37.44702 565.000
37.46697 556.000
37.48691 528.000
37.50686 534.000
37.52681 542.000
37.54675 517.000
37.56670 506.000
37.58665 482.000
37.60660 482.000
37.62654 522.000
37.64649 547.000
37.66644 580.000
37.68638 503.000
37.70633 529.000
37.72628 489.000
37.74622 553.000
37.76617 539.000
37.78612 549.000
37.80606 535.000
37.82601 543.000
37.84596 551.000
37.86591 536.000
37.88585 558.000
37.90580 522.000
37.92575 526.000
37.94569 538.000
37.96564 557.000
37.98559 520.000
38.00553 546.000
38.02548 587.000
38.04543 594.000
38.06538 566.000
38.08532 626.000
38.10527 598.000
38.12522 591.000
38.14516 617.000
38.16511 624.000
38.18506 619.000
38.20500 690.000
38.22495 658.000
38.24490 679.000
38.26484 678.000
38.28479 671.000
38.30474 758.000
38.32469 818.000
38.34463 791.000
38.36458 822.000
38.38453 852.000
38.40447 907.000
38.42442 960.000
38.44437 1031.000
38.46431 1138.000
38.48426 1178.000
38.50421 1282.000
38.52416 1454.000
38.54410 1629.000
38.56405 1825.000
38.58400 2102.000
38.60394 2424.000
38.62389 2807.000
38.64384 3349.000
38.66378 3826.000
38.68373 4130.000
38.70368 4186.000
38.72362 3890.000
38.74357 3714.000
38.76352 3479.000
38.78347 3144.000
38.80341 2862.000
38.82336 2387.000
38.84331 2101.000
38.86325 1883.000
38.88320 1653.000
38.90315 1528.000
38.92309 1456.000
38.94304 1415.000
38.96299 1417.000
38.98294 1467.000
39.00288 1431.000
39.02283 1620.000
39.04278 1593.000
39.06272 1653.000
39.08267 1657.000
39.10262 1485.000
39.12256 1391.000
39.14251 1238.000
39.16246 1225.000
39.18241 1171.000
39.20235 1035.000
39.22230 960.000
39.24225 850.000
39.26219 844.000
39.28214 823.000
39.30209 803.000
39.32203 855.000
39.34198 770.000
39.36193 738.000
39.38187 726.000
39.40182 689.000
39.42177 646.000
39.44172 656.000
39.46166 667.000
39.48161 603.000
39.50156 649.000
39.52150 540.000
39.54145 601.000
39.56140 563.000
39.58134 599.000
39.60129 565.000
39.62124 556.000
39.64119 481.000
39.66113 508.000
39.68108 504.000
39.70103 480.000
39.72097 488.000
39.74092 532.000
39.76087 535.000
39.78081 509.000
39.80076 553.000
39.82071 513.000
39.84065 498.000
39.86060 516.000
39.88055 531.000
39.90050 497.000
39.92044 515.000
39.94039 508.000
39.96034 527.000
39.98028 476.000
40.00023 492.000
40.02018 516.000
40.04012 524.000
40.06007 505.000
40.08002 472.000
40.09997 517.000
40.11991 509.000
40.13986 483.000
40.15981 518.000
40.17975 472.000
40.19970 481.000
40.21965 487.000
40.23959 457.000
40.25954 508.000
40.27949 500.000
40.29943 475.000
40.31938 486.000
40.33933 471.000
40.35928 533.000
40.37922 479.000
40.39917 467.000
40.41912 483.000
40.43906 479.000
40.45901 474.000
40.47896 496.000
40.49890 492.000
40.51885 500.000
40.53880 456.000
40.55875 461.000
40.57869 497.000
40.59864 494.000
40.61859 425.000
40.63853 451.000
40.65848 449.000
40.67843 463.000
40.69837 474.000
40.71832 482.000
40.73827 483.000
40.75822 462.000
40.77816 509.000
40.79811 485.000
40.81806 506.000
40.83800 490.000
40.85795 485.000
40.87790 519.000
40.89784 443.000
40.91779 529.000
40.93774 475.000
40.95768 492.000
40.97763 447.000
40.99758 492.000
41.01753 531.000
41.03747 515.000
41.05742 504.000
41.07737 519.000
41.09731 508.000
41.11726 504.000
41.13721 515.000
41.15715 493.000
41.17710 534.000
41.19705 545.000
41.21700 510.000
41.23694 506.000
41.25689 482.000
41.27684 539.000
41.29678 505.000
41.31673 538.000
41.33668 585.000
41.35662 570.000
41.37657 571.000
41.39652 587.000
41.41646 590.000
41.43641 657.000
41.45636 642.000
41.47631 687.000
41.49625 755.000
41.51620 730.000
41.53615 860.000
41.55609 839.000
41.57604 952.000
41.59599 1071.000
41.61593 1110.000
41.63588 1277.000
41.65583 1256.000
41.67578 1366.000
41.69572 1414.000
41.71567 1439.000
41.73562 1391.000
41.75556 1325.000
41.77551 1274.000
41.79546 1182.000
41.81540 1129.000
41.83535 991.000
41.85530 881.000
41.87524 807.000
41.89519 750.000
41.91514 677.000
41.93509 613.000
41.95503 583.000
41.97498 586.000
41.99493 532.000
42.01487 518.000
42.03482 542.000
42.05477 538.000
42.07471 519.000
42.09466 494.000
42.11461 521.000
42.13456 462.000
42.15450 530.000
42.17445 449.000
42.19440 521.000
42.21434 475.000
42.23429 515.000
42.25424 470.000
42.27418 475.000
42.29413 503.000
42.31408 492.000
42.33403 527.000
42.35397 516.000
42.37392 515.000
42.39387 532.000
42.41381 508.000
42.43376 530.000
42.45371 502.000
42.47365 526.000
42.49360 467.000
42.51355 512.000
42.53349 492.000
42.55344 473.000
42.57339 507.000
42.59334 502.000
42.61328 535.000
42.63323 508.000
42.65318 490.000
42.67312 493.000
42.69307 475.000
42.71302 558.000
42.73296 518.000
42.75291 544.000
42.77286 490.000
42.79281 543.000
42.81275 560.000
42.83270 602.000
42.85265 567.000
42.87259 539.000
42.89254 579.000
42.91249 624.000
42.93243 585.000
42.95238 627.000
42.97233 653.000
42.99227 675.000
43.01222 647.000
43.03217 719.000
43.05212 686.000
43.07206 679.000
43.09201 726.000
43.11196 683.000
43.13190 715.000
43.15185 780.000
43.17180 757.000
43.19174 721.000
43.21169 731.000
43.23164 745.000
43.25159 749.000
43.27153 716.000
43.29148 740.000
43.31143 673.000
43.33137 722.000
43.35132 650.000
43.37127 626.000
43.39121 664.000
43.41116 661.000
43.43111 638.000
43.45105 583.000
43.47100 640.000
43.49095 619.000
43.51090 600.000
43.53084 595.000
43.55079 587.000
43.57074 542.000
43.59068 514.000
43.61063 499.000
43.63058 516.000
43.65052 520.000
43.67047 526.000
43.69042 502.000
43.71037 482.000
43.73031 496.000
43.75026 483.000
43.77021 479.000
43.79015 504.000
43.81010 470.000
43.83005 505.000
43.84999 489.000
43.86994 489.000
43.88989 479.000
43.90984 500.000
43.92978 457.000
43.94973 482.000
43.96968 467.000
43.98962 485.000
44.00957 447.000
44.02952 447.000
44.04946 446.000
44.06941 482.000
44.08936 469.000
44.10930 441.000
44.12925 476.000
44.14920 486.000
44.16915 462.000
44.18909 450.000
44.20904 480.000
44.22899 428.000
44.24893 482.000
44.26888 461.000
44.28883 445.000
44.30877 456.000
44.32872 482.000
44.34867 462.000
44.36862 442.000
44.38856 469.000
44.40851 475.000
44.42846 458.000
44.44840 472.000
44.46835 458.000
44.48830 470.000
44.50824 438.000
44.52819 438.000
44.54814 455.000
44.56808 515.000
44.58803 469.000
44.60798 487.000
44.62793 468.000
44.64787 515.000
44.66782 480.000
44.68777 491.000
44.70771 489.000
44.72766 498.000
44.74761 477.000
44.76755 476.000
44.78750 504.000
44.80745 472.000
44.82740 470.000
44.84734 459.000
44.86729 496.000
44.88724 494.000
44.90718 466.000
44.92713 450.000
44.94708 454.000
44.96702 506.000
44.98697 509.000
45.00692 479.000
45.02686 506.000
45.04681 522.000
45.06676 504.000
45.08671 461.000
45.10665 492.000
45.12660 510.000
45.14655 541.000
45.16649 476.000
45.18644 516.000
45.20639 446.000
45.22633 463.000
45.24628 524.000
45.26623 522.000
45.28618 510.000
45.30612 500.000
45.32607 486.000
45.34602 469.000
45.36596 459.000
45.38591 494.000
45.40586 434.000
45.42580 494.000
45.44575 479.000
45.46570 496.000
45.48565 460.000
45.50559 513.000
45.52554 492.000
45.54549 488.000
45.56543 513.000
45.58538 498.000
45.60533 534.000
45.62527 512.000
45.64522 511.000
45.66517 522.000
45.68511 460.000
45.70506 497.000
45.72501 524.000
45.74496 482.000
45.76490 467.000
45.78485 507.000
45.80480 503.000
45.82474 476.000
45.84469 492.000
45.86464 469.000
45.88458 474.000
45.90453 479.000
45.92448 474.000
45.94443 452.000
45.96437 480.000
45.98432 466.000
46.00427 457.000
46.02421 488.000
46.04416 476.000
46.06411 487.000
46.08405 496.000
46.10400 500.000
46.12395 497.000
46.14389 524.000
46.16384 465.000
46.18379 518.000
46.20374 522.000
46.22368 525.000
46.24363 543.000
46.26358 562.000
46.28352 590.000
46.30347 539.000
46.32342 521.000
46.34336 513.000
46.36331 518.000
46.38326 566.000
46.40321 519.000
46.42315 485.000
46.44310 556.000
46.46305 512.000
46.48299 519.000
46.50294 496.000
46.52289 496.000
46.54283 475.000
46.56278 469.000
46.58273 493.000
46.60267 522.000
46.62262 447.000
46.64257 484.000
46.66252 468.000
46.68246 492.000
46.70241 504.000
46.72236 496.000
46.74230 468.000
46.76225 512.000
46.78220 491.000
46.80214 483.000
46.82209 481.000
46.84204 490.000
46.86199 481.000
46.88193 432.000
46.90188 482.000
46.92183 495.000
46.94177 489.000
46.96172 458.000
46.98167 497.000
47.00161 466.000
47.02156 487.000
47.04151 501.000
47.06146 474.000
47.08140 465.000
47.10135 483.000
47.12130 483.000
47.14124 477.000
47.16119 444.000
47.18114 449.000
47.20108 447.000
47.22103 493.000
47.24098 458.000
47.26092 495.000
47.28087 462.000
47.30082 461.000
47.32077 466.000
47.34071 453.000
47.36066 474.000
47.38061 495.000
47.40055 516.000
47.42050 455.000
47.44045 477.000
47.46039 512.000
47.48034 482.000
47.50029 494.000
47.52024 457.000
47.54018 450.000
47.56013 466.000
47.58008 495.000
47.60002 501.000
47.61997 487.000
47.63992 455.000
47.65986 503.000
47.67981 492.000
47.69976 500.000
47.71970 501.000
47.73965 545.000
47.75960 459.000
47.77955 476.000
47.79949 513.000
47.81944 493.000
47.83939 467.000
47.85933 481.000
47.87928 485.000
47.89923 503.000
47.91917 518.000
47.93912 528.000
47.95907 542.000
47.97902 508.000
47.99896 559.000
48.01891 570.000
48.03886 548.000
48.05880 591.000
48.07875 599.000
48.09870 589.000
48.11864 581.000
48.13859 596.000
48.15854 550.000
48.17848 523.000
48.19843 592.000
48.21838 526.000
48.23833 516.000
48.25827 542.000
48.27822 548.000
48.29817 577.000
48.31811 524.000
48.33806 546.000
48.35801 538.000
48.37795 531.000
48.39790 548.000
48.41785 546.000
48.43780 571.000
48.45774 567.000
48.47769 567.000
48.49764 579.000
48.51758 590.000
48.53753 586.000
48.55748 629.000
48.57742 644.000
48.59737 683.000
48.61732 687.000
48.63726 753.000
48.65721 761.000
48.67716 824.000
48.69711 912.000
48.71705 938.000
48.73700 960.000
48.75695 1051.000
48.77689 1107.000
48.79684 1216.000
48.81679 1254.000
48.83673 1284.000
48.85668 1327.000
48.87663 1339.000
48.89658 1404.000
48.91652 1442.000
48.93647 1359.000
48.95642 1273.000
48.97636 1167.000
48.99631 1169.000
49.01626 1098.000
49.03620 958.000
49.05615 945.000
49.07610 813.000
49.09605 812.000
49.11599 794.000
49.13594 689.000
49.15589 627.000
49.17583 659.000
49.19578 606.000
49.21573 613.000
49.23567 571.000
49.25562 596.000
49.27557 554.000
49.29551 601.000
49.31546 579.000
49.33541 580.000
49.35536 567.000
49.37530 542.000
49.39525 515.000
49.41520 550.000
49.43514 535.000
49.45509 579.000
49.47504 534.000
49.49498 586.000
49.51493 539.000
49.53488 564.000
49.55483 523.000
49.57477 510.000
49.59472 550.000
49.61467 552.000
49.63461 540.000
49.65456 545.000
49.67451 536.000
49.69445 535.000
49.71440 530.000
49.73435 530.000
49.75429 511.000
49.77424 497.000
49.79419 530.000
49.81414 525.000
49.83408 498.000
49.85403 464.000
49.87398 509.000
49.89392 503.000
49.91387 506.000
49.93382 516.000
49.95376 455.000
49.97371 464.000
49.99366 468.000
50.01361 474.000
50.03355 410.000
50.05350 471.000
50.07345 484.000
50.09339 475.000
50.11334 504.000
50.13329 516.000
50.15323 473.000
50.17318 538.000
50.19313 463.000
50.21307 470.000
50.23302 498.000
50.25297 501.000
50.27292 451.000
50.29286 471.000
50.31281 478.000
50.33276 500.000
50.35270 482.000
50.37265 502.000
50.39260 455.000
50.41254 556.000
50.43249 461.000
50.45244 479.000
50.47239 487.000
50.49233 447.000
50.51228 428.000
50.53223 465.000
50.55217 502.000
50.57212 516.000
50.59207 456.000
50.61201 469.000
50.63196 457.000
50.65191 464.000
50.67186 474.000
50.69180 521.000
50.71175 477.000
50.73170 483.000
50.75164 506.000
50.77159 474.000
50.79154 470.000
50.81148 482.000
50.83143 489.000
50.85138 469.000
50.87132 464.000
50.89127 464.000
50.91122 456.000
50.93117 488.000
50.95111 457.000
50.97106 456.000
50.99101 463.000
51.01095 467.000
51.03090 465.000
51.05085 464.000
51.07079 495.000
51.09074 484.000
51.11069 500.000
51.13064 425.000
51.15058 467.000
51.17053 536.000
51.19048 482.000
51.21042 488.000
51.23037 492.000
51.25032 503.000
51.27026 498.000
51.29021 550.000
51.31016 515.000
51.33010 546.000
51.35005 527.000
51.37000 541.000
51.38995 493.000
51.40989 470.000
51.42984 518.000
51.44979 461.000
51.46973 478.000
51.48968 512.000
51.50963 500.000
51.52957 500.000
51.54952 495.000
51.56947 509.000
51.58942 471.000
51.60936 512.000
51.62931 489.000
51.64926 490.000
51.66920 476.000
51.68915 454.000
51.70910 485.000
51.72904 493.000
51.74899 483.000
51.76894 423.000
51.78888 507.000
51.80883 517.000
51.82878 523.000
51.84873 486.000
51.86867 536.000
51.88862 505.000
51.90857 485.000
51.92851 542.000
51.94846 543.000
51.96841 548.000
51.98835 535.000
52.00830 515.000
52.02825 587.000
52.04820 534.000
52.06814 555.000
52.08809 548.000
52.10804 610.000
52.12798 563.000
52.14793 589.000
52.16788 571.000
52.18782 601.000
52.20777 576.000
52.22772 549.000
52.24767 554.000
52.26761 568.000
52.28756 548.000
52.30751 566.000
52.32745 546.000
52.34740 547.000
52.36735 529.000
52.38729 547.000
52.40724 520.000
52.42719 507.000
52.44713 523.000
52.46708 466.000
52.48703 492.000
52.50698 472.000
52.52692 476.000
52.54687 481.000
52.56682 477.000
52.58676 490.000
52.60671 487.000
52.62666 527.000
52.64660 488.000
52.66655 468.000
52.68650 498.000
52.70645 464.000
52.72639 504.000
52.74634 461.000
52.76629 509.000
52.78623 452.000
52.80618 495.000
52.82613 501.000
52.84607 491.000
52.86602 511.000
52.88597 478.000
52.90591 521.000
52.92586 529.000
52.94581 507.000
52.96576 516.000
52.98570 521.000
53.00565 565.000
53.02560 581.000
53.04554 577.000
53.06549 560.000
53.08544 589.000
53.10538 580.000
53.12533 585.000
53.14528 582.000
53.16523 591.000
53.18517 685.000
53.20512 715.000
53.22507 691.000
53.24501 685.000
53.26496 699.000
53.28491 760.000
53.30485 781.000
53.32480 832.000
53.34475 794.000
53.36469 807.000
53.38464 771.000
53.40459 798.000
53.42454 752.000
53.44448 726.000
53.46443 739.000
53.48438 728.000
53.50432 700.000
53.52427 675.000
53.54422 623.000
53.56416 654.000
53.58411 530.000
53.60406 593.000
53.62401 573.000
53.64395 574.000
53.66390 543.000
53.68385 488.000
53.70379 552.000
53.72374 515.000
53.74369 531.000
53.76363 545.000
53.78358 543.000
53.80353 514.000
53.82348 545.000
53.84342 501.000
53.86337 476.000
53.88332 493.000
53.90326 472.000
53.92321 483.000
53.94316 480.000
53.96310 516.000
53.98305 499.000
54.00300 497.000
54.02294 479.000
54.04289 498.000
54.06284 498.000
54.08279 464.000
54.10273 465.000
54.12268 508.000
54.14263 479.000
54.16257 496.000
54.18252 514.000
54.20247 445.000
54.22241 451.000
54.24236 494.000
54.26231 481.000
54.28226 501.000
54.30220 452.000
54.32215 493.000
54.34210 488.000
54.36204 492.000
54.38199 471.000
54.40194 457.000
54.42188 503.000
54.44183 515.000
54.46178 464.000
54.48172 487.000
54.50167 482.000
54.52162 474.000
54.54157 459.000
54.56151 489.000
54.58146 462.000
54.60141 418.000
54.62135 490.000
54.64130 510.000
54.66125 464.000
54.68119 481.000
54.70114 460.000
54.72109 466.000
54.74104 475.000
54.76098 474.000
54.78093 526.000
54.80088 465.000
54.82082 452.000
54.84077 464.000
54.86072 475.000
54.88066 459.000
54.90061 470.000
54.92056 488.000
54.94050 479.000
54.96045 472.000
54.98040 489.000
55.00035 475.000
55.02029 464.000
55.04024 447.000
55.06019 444.000
55.08013 493.000
55.10008 462.000
55.12003 479.000
55.13997 437.000
55.15992 483.000
55.17987 445.000
55.19982 452.000
55.21976 504.000
55.23971 436.000
55.25966 468.000
55.27960 456.000
55.29955 481.000
55.31950 476.000
55.33944 502.000
55.35939 475.000
55.37934 496.000
55.39929 494.000
55.41923 494.000
55.43918 487.000
55.45913 442.000
55.47907 530.000
55.49902 459.000
55.51897 497.000
55.53891 477.000
55.55886 461.000
55.57881 439.000
55.59875 462.000
55.61870 441.000
55.63865 491.000
55.65860 491.000
55.67854 509.000
55.69849 441.000
55.71844 463.000
55.73838 483.000
55.75833 471.000
55.77828 498.000
55.79822 473.000
55.81817 500.000
55.83812 476.000
55.85807 462.000
55.87801 489.000
55.89796 486.000
55.91791 501.000
55.93785 435.000
55.95780 498.000
55.97775 478.000
55.99769 417.000
56.01764 455.000
56.03759 443.000
56.05753 485.000
56.07748 418.000
56.09743 477.000
56.11738 455.000
56.13732 455.000
56.15727 454.000
56.17722 452.000
56.19716 441.000
56.21711 456.000
56.23706 462.000
56.25700 448.000
56.27695 458.000
56.29690 473.000
56.31685 447.000
56.33679 464.000
56.35674 486.000
56.37669 492.000
56.39663 480.000
56.41658 512.000
56.43653 477.000
56.45647 486.000
56.47642 483.000
56.49637 463.000
56.51631 503.000
56.53626 461.000
56.55621 480.000
56.57616 482.000
56.59610 493.000
56.61605 521.000
56.63600 470.000
56.65594 512.000
56.67589 501.000
56.69584 477.000
56.71578 489.000
56.73573 479.000
56.75568 501.000
56.77563 499.000
56.79557 501.000
56.81552 518.000
56.83547 506.000
56.85541 508.000
56.87536 471.000
56.89531 487.000
56.91525 509.000
56.93520 529.000
56.95515 466.000
56.97510 480.000
56.99504 508.000
57.01499 488.000
57.03494 464.000
57.05488 454.000
57.07483 468.000
57.09478 499.000
57.11472 486.000
57.13467 492.000
57.15462 449.000
57.17456 484.000
57.19451 477.000
57.21446 473.000
57.23441 482.000
57.25435 492.000
57.27430 512.000
57.29425 524.000
57.31419 502.000
57.33414 501.000
57.35409 490.000
57.37403 487.000
57.39398 512.000
57.41393 477.000
57.43388 515.000
57.45382 532.000
57.47377 533.000
57.49372 545.000
57.51366 550.000
57.53361 528.000
57.55356 514.000
57.57350 525.000
57.59345 502.000
57.61340 552.000
57.63334 549.000
57.65329 560.000
57.67324 537.000
57.69319 577.000
57.71313 575.000
57.73308 564.000
57.75303 521.000
57.77297 525.000
57.79292 557.000
57.81287 560.000
57.83281 609.000
57.85276 573.000
57.87271 580.000
57.89266 627.000
57.91260 693.000
57.93255 672.000
57.95250 709.000
57.97244 654.000
57.99239 673.000
58.01234 673.000
58.03228 721.000
58.05223 700.000
58.07218 691.000
58.09212 766.000
58.11207 744.000
58.13202 763.000
58.15197 784.000
58.17191 789.000
58.19186 870.000
58.21181 834.000
58.23175 862.000
58.25170 922.000
58.27165 940.000
58.29159 955.000
58.31154 870.000
58.33149 829.000
58.35144 877.000
58.37138 813.000
58.39133 768.000
58.41128 773.000
58.43122 753.000
58.45117 684.000
58.47112 683.000
58.49106 645.000
58.51101 620.000
58.53096 620.000
58.55090 555.000
58.57085 578.000
58.59080 595.000
58.61075 565.000
58.63069 503.000
58.65064 491.000
58.67059 475.000
58.69053 504.000
58.71048 521.000
58.73043 492.000
58.75037 461.000
58.77032 555.000
58.79027 506.000
58.81022 473.000
58.83016 513.000
58.85011 478.000
58.87006 505.000
58.89000 494.000
58.90995 466.000
58.92990 481.000
58.94984 469.000
58.96979 479.000
58.98974 528.000
59.00969 502.000
59.02963 488.000
59.04958 504.000
59.06953 470.000
59.08947 477.000
59.10942 484.000
59.12937 488.000
59.14931 509.000
59.16926 429.000
59.18921 489.000
59.20915 461.000
59.22910 434.000
59.24905 491.000
59.26900 433.000
59.28894 452.000
59.30889 489.000
59.32884 481.000
59.34878 442.000
59.36873 461.000
59.38868 474.000
59.40862 461.000
59.42857 515.000
59.44852 459.000
59.46847 476.000
59.48841 495.000
59.50836 435.000
59.52831 454.000
59.54825 439.000
59.56820 494.000
59.58815 522.000
59.60809 455.000
59.62804 471.000
59.64799 475.000
59.66793 451.000
59.68788 499.000
59.70783 496.000
59.72778 476.000
59.74772 483.000
59.76767 478.000
59.78762 464.000
59.80756 458.000
59.82751 499.000
59.84746 528.000
59.86740 457.000
59.88735 475.000
59.90730 493.000
59.92725 471.000
59.94719 455.000
59.96714 504.000
59.98709 499.000
60.00703 459.000
60.02698 474.000
60.04693 464.000
60.06687 506.000
60.08682 502.000
60.10677 480.000
60.12671 517.000
60.14666 474.000
60.16661 502.000
60.18656 501.000
60.20650 508.000
60.22645 481.000
60.24640 474.000
60.26634 504.000
60.28629 522.000
60.30624 472.000
60.32618 486.000
60.34613 491.000
60.36608 483.000
60.38603 479.000
60.40597 517.000
60.42592 483.000
60.44587 474.000
60.46581 519.000
60.48576 496.000
60.50571 471.000
60.52565 495.000
60.54560 480.000
60.56555 470.000
60.58550 482.000
60.60544 492.000
60.62539 502.000
60.64534 500.000
60.66528 487.000
60.68523 453.000
60.70518 453.000
60.72512 499.000
60.74507 467.000
60.76502 553.000
60.78496 539.000
60.80491 488.000
60.82486 482.000
60.84481 439.000
60.86475 503.000
60.88470 524.000
60.90465 494.000
60.92459 514.000
60.94454 556.000
60.96449 535.000
60.98443 502.000
61.00438 467.000
61.02433 492.000
61.04428 523.000
61.06422 515.000
61.08417 510.000
61.10412 536.000
61.12406 531.000
61.14401 543.000
61.16396 563.000
61.18390 547.000
61.20385 558.000
61.22380 617.000
61.24374 550.000
61.26369 557.000
61.28364 593.000
61.30359 601.000
61.32353 613.000
61.34348 616.000
61.36343 652.000
61.38337 625.000
61.40332 711.000
61.42327 781.000
61.44321 760.000
61.46316 839.000
61.48311 908.000
61.50306 951.000
61.52300 991.000
61.54295 1069.000
61.56290 1115.000
61.58284 1182.000
61.60279 1053.000
61.62274 999.000
61.64268 992.000
61.66263 989.000
61.68258 919.000
61.70252 916.000
61.72247 949.000
61.74242 879.000
61.76237 892.000
61.78231 838.000
61.80226 794.000
61.82221 751.000
61.84215 698.000
61.86210 703.000
61.88205 670.000
61.90199 629.000
61.92194 660.000
61.94189 651.000
61.96184 622.000
61.98178 572.000
62.00173 646.000
62.02168 612.000
62.04162 659.000
62.06157 634.000
62.08152 630.000
62.10146 610.000
62.12141 652.000
62.14136 581.000
62.16131 588.000
62.18125 640.000
62.20120 646.000
62.22115 638.000
62.24109 619.000
62.26104 595.000
62.28099 607.000
62.30093 576.000
62.32088 595.000
62.34083 624.000
62.36077 631.000
62.38072 607.000
62.40067 552.000
62.42062 634.000
62.44056 587.000
62.46051 655.000
62.48046 670.000
62.50040 649.000
62.52035 665.000
62.54030 629.000
62.56024 678.000
62.58019 703.000
62.60014 696.000
62.62009 679.000
62.64003 704.000
62.65998 701.000
62.67993 669.000
62.69987 681.000
62.71982 673.000
62.73977 683.000
62.75971 666.000
62.77966 665.000
62.79961 659.000
62.81955 644.000
62.83950 657.000
62.85945 657.000
62.87940 659.000
62.89934 632.000
62.91929 654.000
62.93924 596.000
62.95918 565.000
62.97913 615.000
62.99908 594.000
63.01902 620.000
63.03897 625.000
63.05892 630.000
63.07887 555.000
63.09881 552.000
63.11876 581.000
63.13871 564.000
63.15865 533.000
63.17860 543.000
63.19855 581.000
63.21849 526.000
63.23844 528.000
63.25839 512.000
63.27833 551.000
63.29828 497.000
63.31823 525.000
63.33818 569.000
63.35812 477.000
63.37807 516.000
63.39802 520.000
63.41796 517.000
63.43791 500.000
63.45786 487.000
63.47780 545.000
63.49775 501.000
63.51770 524.000
63.53765 531.000
63.55759 507.000
63.57754 491.000
63.59749 506.000
63.61743 508.000
63.63738 512.000
63.65733 487.000
63.67727 510.000
63.69722 491.000
63.71717 505.000
63.73712 497.000
63.75706 462.000
63.77701 558.000
63.79696 501.000
63.81690 534.000
63.83685 484.000
63.85680 506.000
63.87674 519.000
63.89669 535.000
63.91664 520.000
63.93658 494.000
63.95653 525.000
63.97648 544.000
63.99643 525.000
64.01637 503.000
64.03632 507.000
64.05627 547.000
64.07621 539.000
64.09616 551.000
64.11611 582.000
64.13605 544.000
64.15600 588.000
64.17595 565.000
64.19590 526.000
64.21584 559.000
64.23579 554.000
64.25574 599.000
64.27568 572.000
64.29563 589.000
64.31558 553.000
64.33552 541.000
64.35547 550.000
64.37542 565.000
64.39536 552.000
64.41531 523.000
64.43526 540.000
64.45521 534.000
64.47515 503.000
64.49510 515.000
64.51505 544.000
64.53499 502.000
64.55494 473.000
64.57489 510.000
64.59483 500.000
64.61478 476.000
64.63473 489.000
64.65468 506.000
64.67462 498.000
64.69457 605.000
64.71452 509.000
64.73446 532.000
64.75441 505.000
64.77436 503.000
64.79430 474.000
64.81425 479.000
64.83420 506.000
64.85414 530.000
64.87409 472.000
64.89404 486.000
64.91399 508.000
64.93393 504.000
64.95388 566.000
64.97383 512.000
64.99377 499.000
65.01372 513.000
65.03367 523.000
65.05361 515.000
65.07356 520.000
65.09351 507.000
65.11346 563.000
65.13340 555.000
65.15335 567.000
65.17330 554.000
65.19324 514.000
65.21319 587.000
65.23314 612.000
65.25308 537.000
65.27303 618.000
65.29298 542.000
65.31293 628.000
65.33287 584.000
65.35282 655.000
65.37277 595.000
65.39271 640.000
65.41266 667.000
65.43261 661.000
65.45255 635.000
65.47250 675.000
65.49245 734.000
65.51239 750.000
65.53234 737.000
65.55229 771.000
65.57224 833.000
65.59218 878.000
65.61213 881.000
65.63208 956.000
65.65202 927.000
65.67197 912.000
65.69192 980.000
65.71186 902.000
65.73181 859.000
65.75176 872.000
65.77171 871.000
65.79165 896.000
65.81160 839.000
65.83155 924.000
65.85149 796.000
65.87144 832.000
65.89139 782.000
65.91133 780.000
65.93128 754.000
65.95123 693.000
65.97117 689.000
65.99112 700.000
66.01107 652.000
66.03102 686.000
66.05096 647.000
66.07091 681.000
66.09086 689.000
66.11080 656.000
66.13075 661.000
66.15070 650.000
66.17064 665.000
66.19059 667.000
66.21054 699.000
66.23049 718.000
66.25043 761.000
66.27038 763.000
66.29033 829.000
66.31027 877.000
66.33022 984.000
66.35017 1019.000
66.37011 1020.000
66.39006 1000.000
66.41001 988.000
66.42995 978.000
66.44990 928.000
66.46985 937.000
66.48980 852.000
66.50974 866.000
66.52969 841.000
66.54964 857.000
66.56958 897.000
66.58953 838.000
66.60948 779.000
66.62942 741.000
66.64937 740.000
66.66932 658.000
66.68927 632.000
66.70921 622.000
66.72916 569.000
66.74911 599.000
66.76905 577.000
66.78900 512.000
66.80895 571.000
66.82889 570.000
66.84884 548.000
66.86879 553.000
66.88874 557.000
66.90868 512.000
66.92863 515.000
66.94858 556.000
66.96852 519.000
66.98847 567.000
67.00842 534.000
67.02836 547.000
67.04831 523.000
67.06826 557.000
67.08820 564.000
67.10815 551.000
67.12810 547.000
67.14805 512.000
67.16799 551.000
67.18794 514.000
67.20789 514.000
67.22783 512.000
67.24778 518.000
67.26773 534.000
67.28767 562.000
67.30762 515.000
67.32757 523.000
67.34752 524.000
67.36746 540.000
67.38741 484.000
67.40736 508.000
67.42730 552.000
67.44725 489.000
67.46720 523.000
67.48714 560.000
67.50709 554.000
67.52704 564.000
67.54698 588.000
67.56693 563.000
67.58688 550.000
67.60683 575.000
67.62677 542.000
67.64672 594.000
67.66667 636.000
67.68661 591.000
67.70656 606.000
67.72651 664.000
67.74645 717.000
67.76640 707.000
67.78635 745.000
67.80630 774.000
67.82624 814.000
67.84619 744.000
67.86614 834.000
67.88608 822.000
67.90603 787.000
67.92598 887.000
67.94592 854.000
67.96587 956.000
67.98582 999.000
68.00576 1009.000
68.02571 1058.000
68.04566 954.000
68.06561 1045.000
68.08555 899.000
68.10550 853.000
68.12545 863.000
68.14539 863.000
68.16534 857.000
68.18529 800.000
68.20523 807.000
68.22518 835.000
68.24513 763.000
68.26508 793.000
68.28502 705.000
68.30497 662.000
68.32492 637.000
68.34486 619.000
68.36481 572.000
68.38476 585.000
68.40470 598.000
68.42465 558.000
68.44460 584.000
68.46455 611.000
68.48449 585.000
68.50444 540.000
68.52439 591.000
68.54433 575.000
68.56428 527.000
68.58423 547.000
68.60417 503.000
68.62412 568.000
68.64407 556.000
68.66401 534.000
68.68396 532.000
68.70391 546.000
68.72386 517.000
68.74380 508.000
68.76375 537.000
68.78370 535.000
68.80364 487.000
68.82359 536.000
68.84354 491.000
68.86348 501.000
68.88343 502.000
68.90338 485.000
68.92333 510.000
68.94327 491.000
68.96322 572.000
68.98317 502.000
69.00311 505.000
69.02306 466.000
69.04301 483.000
69.06295 494.000
69.08290 499.000
69.10285 480.000
69.12279 466.000
69.14274 522.000
69.16269 469.000
69.18264 465.000
69.20258 468.000
69.22253 484.000
69.24248 458.000
69.26242 462.000
69.28237 483.000
69.30232 461.000
69.32226 493.000
69.34221 463.000
69.36216 486.000
69.38211 518.000
69.40205 492.000
69.42200 467.000
69.44195 504.000
69.46189 511.000
69.48184 475.000
69.50179 481.000
69.52173 475.000
69.54168 485.000
69.56163 467.000
69.58157 485.000
69.60152 503.000
69.62147 475.000
69.64142 488.000
69.66136 456.000
69.68131 512.000
69.70126 496.000
69.72120 462.000
69.74115 497.000
69.76110 453.000
69.78104 481.000
69.80099 504.000
69.82094 508.000
69.84089 490.000
69.86083 459.000
69.88078 475.000
69.90073 490.000
69.92067 475.000
69.94062 493.000
69.96057 472.000
69.98051 490.000
70.00046 469.000
70.02041 483.000
70.04035 456.000
70.06030 497.000
70.08025 511.000
70.10020 446.000
70.12014 471.000
70.14009 450.000
70.16004 444.000
70.17998 468.000
70.19993 494.000
70.21988 432.000
70.23982 478.000
70.25977 441.000
70.27972 440.000
70.29967 421.000
70.31961 498.000
70.33956 459.000
70.35951 518.000
70.37945 530.000
70.39940 474.000
70.41935 468.000
70.43929 474.000
70.45924 492.000
70.47919 490.000
70.49914 464.000
70.51908 434.000
70.53903 434.000
70.55898 492.000
70.57892 456.000
70.59887 470.000
70.61882 466.000
70.63876 474.000
70.65871 474.000
70.67866 445.000
70.69860 507.000
70.71855 466.000
70.73850 513.000
70.75845 442.000
70.77839 490.000
70.79834 465.000
70.81829 448.000
70.83823 483.000
70.85818 497.000
70.87813 484.000
70.89807 519.000
70.91802 493.000
70.93797 477.000
70.95792 444.000
70.97786 458.000
70.99781 487.000
71.01776 465.000
71.03770 464.000
71.05765 487.000
71.07760 493.000
71.09754 476.000
71.11749 479.000
71.13744 504.000
71.15738 446.000
71.17733 489.000
71.19728 481.000
71.21723 477.000
71.23717 494.000
71.25712 463.000
71.27707 489.000
71.29701 472.000
71.31696 488.000
71.33691 440.000
71.35685 483.000
71.37680 494.000
71.39675 455.000
71.41670 450.000
71.43664 483.000
71.45659 455.000
71.47654 511.000
71.49648 523.000
71.51643 508.000
71.53638 477.000
71.55632 465.000
71.57627 477.000
71.59622 480.000
71.61616 467.000
71.63611 508.000
71.65606 465.000
71.67601 488.000
71.69595 472.000
71.71590 505.000
71.73585 525.000
71.75579 494.000
71.77574 488.000
71.79569 512.000
71.81563 542.000
71.83558 519.000
71.85553 491.000
71.87548 477.000
71.89542 514.000
71.91537 512.000
71.93532 491.000
71.95526 451.000
71.97521 480.000
71.99516 497.000
72.01510 505.000
72.03505 466.000
72.05500 494.000
72.07495 532.000
72.09489 521.000
72.11484 518.000
72.13479 514.000
72.15473 505.000
72.17468 522.000
72.19463 556.000
72.21457 535.000
72.23452 583.000
72.25447 560.000
72.27441 544.000
72.29436 562.000
72.31431 660.000
72.33426 623.000
72.35420 617.000
72.37415 643.000
72.39410 673.000
72.41404 627.000
72.43399 679.000
72.45394 635.000
72.47388 633.000
72.49383 647.000
72.51378 623.000
72.53373 607.000
72.55367 612.000
72.57362 640.000
72.59357 657.000
72.61351 605.000
72.63346 628.000
72.65341 632.000
72.67335 565.000
72.69330 604.000
72.71325 588.000
72.73319 577.000
72.75314 591.000
72.77309 560.000
72.79304 543.000
72.81298 552.000
72.83293 552.000
72.85288 570.000
72.87282 564.000
72.89277 535.000
72.91272 539.000
72.93266 544.000
72.95261 535.000
72.97256 551.000
72.99251 535.000
73.01245 543.000
73.03240 535.000
73.05235 518.000
73.07229 497.000
73.09224 545.000
73.11219 482.000
73.13213 516.000
73.15208 454.000
73.17203 513.000
73.19197 498.000
73.21192 514.000
73.23187 454.000
73.25182 504.000
73.27176 502.000
73.29171 487.000
73.31166 529.000
73.33160 493.000
73.35155 502.000
73.37150 520.000
73.39144 501.000
73.41139 518.000
73.43134 526.000
73.45129 483.000
73.47123 462.000
73.49118 502.000
73.51113 489.000
73.53107 503.000
73.55102 499.000
73.57097 475.000
73.59091 482.000
73.61086 491.000
73.63081 509.000
73.65076 492.000
73.67070 522.000
73.69065 484.000
73.71060 466.000
73.73054 514.000
73.75049 526.000
73.77044 531.000
73.79038 462.000
73.81033 495.000
73.83028 505.000
73.85022 497.000
73.87017 519.000
73.89012 498.000
73.91007 491.000
73.93001 541.000
73.94996 488.000
73.96991 496.000
73.98985 489.000
74.00980 483.000
74.02975 527.000
74.04969 462.000
74.06964 503.000
74.08959 501.000
74.10954 508.000
74.12948 474.000
74.14943 459.000
74.16938 531.000
74.18932 521.000
74.20927 517.000
74.22922 508.000
74.24916 502.000
74.26911 533.000
74.28906 506.000
74.30900 499.000
74.32895 506.000
74.34890 462.000
74.36885 536.000
74.38879 522.000
74.40874 497.000
74.42869 512.000
74.44863 486.000
74.46858 533.000
74.48853 529.000
74.50847 527.000
74.52842 475.000
74.54837 491.000
74.56832 543.000
74.58826 512.000
74.60821 556.000
74.62816 514.000
74.64810 531.000
74.66805 527.000
74.68800 484.000
74.70794 559.000
74.72789 533.000
74.74784 566.000
74.76778 573.000
74.78773 522.000
74.80768 572.000
74.82763 557.000
74.84757 643.000
74.86752 624.000
74.88747 636.000
74.90741 690.000
74.92736 680.000
74.94731 685.000
74.96725 707.000
74.98720 726.000
75.00715 729.000
75.02710 664.000
75.04704 641.000
75.06699 627.000
75.08694 684.000
75.10688 704.000
75.12683 671.000
75.14678 717.000
75.16672 749.000
75.18667 790.000
75.20662 770.000
75.22657 847.000
75.24651 735.000
75.26646 743.000
75.28641 715.000
75.30635 614.000
75.32630 681.000
75.34625 652.000
75.36619 607.000
75.38614 601.000
75.40609 605.000
75.42603 628.000
75.44598 677.000
75.46593 611.000
75.48588 549.000
75.50582 602.000
75.52577 582.000
75.54572 628.000
75.56566 550.000
75.58561 593.000
75.60556 490.000
75.62550 519.000
75.64545 492.000
75.66540 512.000
75.68535 519.000
75.70529 512.000
75.72524 492.000
75.74519 510.000
75.76513 477.000
75.78508 516.000
75.80503 480.000
75.82497 488.000
75.84492 507.000
75.86487 521.000
75.88481 504.000
75.90476 522.000
75.92471 507.000
75.94466 525.000
75.96460 480.000
75.98455 512.000
76.00450 500.000
76.02444 472.000
76.04439 503.000
76.06434 474.000
76.08428 529.000
76.10423 467.000
76.12418 499.000
76.14413 514.000
76.16407 464.000
76.18402 491.000
76.20397 476.000
76.22391 467.000
76.24386 482.000
76.26381 513.000
76.28375 474.000
76.30370 470.000
76.32365 482.000
76.34359 448.000
76.36354 440.000
76.38349 447.000
76.40344 481.000
76.42338 503.000
76.44333 467.000
76.46328 488.000
76.48322 530.000
76.50317 476.000
76.52312 456.000
76.54306 508.000
76.56301 490.000
76.58296 472.000
76.60291 512.000
76.62285 462.000
76.64280 493.000
76.66275 487.000
76.68269 529.000
76.70264 469.000
76.72259 509.000
76.74253 456.000
76.76248 434.000
76.78243 454.000
76.80238 445.000
76.82232 477.000
76.84227 456.000
76.86222 461.000
76.88216 442.000
76.90211 496.000
76.92206 444.000
76.94200 475.000
76.96195 478.000
76.98190 460.000
77.00184 449.000
77.02179 460.000
77.04174 464.000
77.06169 499.000
77.08163 464.000
77.10158 503.000
77.12153 448.000
77.14147 482.000
77.16142 438.000
77.18137 483.000
77.20131 473.000
77.22126 433.000
77.24121 473.000
77.26116 433.000
77.28110 474.000
77.30105 461.000
77.32100 501.000
77.34094 471.000
77.36089 470.000
77.38084 457.000
77.40078 445.000
77.42073 455.000
77.44068 498.000
77.46062 455.000
77.48057 507.000
77.50052 425.000
77.52047 523.000
77.54041 451.000
77.56036 460.000
77.58031 483.000
77.60025 442.000
77.62020 453.000
77.64015 455.000
77.66009 490.000
77.68004 501.000
77.69999 469.000
77.71994 480.000
77.73988 503.000
77.75983 485.000
77.77978 520.000
77.79972 480.000
77.81967 483.000
77.83962 492.000
77.85956 505.000
77.87951 484.000
77.89946 496.000
77.91940 520.000
77.93935 484.000
77.95930 510.000
77.97925 504.000
77.99919 502.000
78.01914 489.000
78.03909 526.000
78.05903 487.000
78.07898 497.000
78.09893 489.000
78.11887 493.000
78.13882 508.000
78.15877 534.000
78.17872 496.000
78.19866 542.000
78.21861 500.000
78.23856 504.000
78.25850 525.000
78.27845 529.000
78.29840 534.000
78.31834 537.000
78.33829 480.000
78.35824 514.000
78.37819 487.000
78.39813 473.000
78.41808 549.000
78.43803 501.000
78.45797 489.000
78.47792 481.000
78.49787 509.000
78.51781 513.000
78.53776 516.000
78.55771 508.000
78.57765 540.000
78.59760 519.000
78.61755 517.000
78.63750 431.000
78.65744 482.000
78.67739 495.000
78.69734 525.000
78.71728 514.000
78.73723 513.000
78.75718 476.000
78.77712 452.000
78.79707 500.000
78.81702 512.000
78.83697 524.000
78.85691 521.000
78.87686 487.000
78.89681 467.000
78.91675 477.000
78.93670 490.000
78.95665 502.000
78.97659 492.000
78.99654 512.000
79.01649 515.000
79.03643 450.000
79.05638 526.000
79.07633 480.000
79.09628 519.000
79.11622 484.000
79.13617 488.000
79.15612 465.000
79.17606 470.000
79.19601 459.000
79.21596 497.000
79.23590 475.000
79.25585 480.000
79.27580 487.000
79.29575 513.000
79.31569 514.000
79.33564 461.000
79.35559 489.000
79.37553 516.000
79.39548 491.000
79.41543 467.000
79.43537 506.000
79.45532 475.000
79.47527 481.000
79.49521 475.000
79.51516 527.000
79.53511 506.000
79.55506 524.000
79.57500 474.000
79.59495 466.000
79.61490 468.000
79.63484 474.000
79.65479 472.000
79.67474 494.000
79.69468 478.000
79.71463 491.000
79.73458 485.000
79.75453 500.000
79.77447 467.000
79.79442 483.000
79.81437 451.000
79.83431 506.000
79.85426 454.000
79.87421 477.000
79.89415 509.000
79.91410 493.000
79.93405 465.000
79.95399 475.000
79.97394 433.000
79.99389 463.000
80.01384 512.000
80.03378 512.000
80.05373 447.000
80.07368 480.000
80.09362 478.000
80.11357 474.000
80.13352 498.000
80.15346 533.000
80.17341 535.000
80.19336 512.000
80.21331 539.000
80.23325 540.000
80.25320 503.000
80.27315 521.000
80.29309 496.000
80.31304 529.000
80.33299 564.000
80.35293 552.000
80.37288 520.000
80.39283 536.000
80.41278 466.000
80.43272 505.000
80.45267 507.000
80.47262 523.000
80.49256 507.000
80.51251 504.000
80.53246 494.000
80.55240 485.000
80.57235 499.000
80.59230 545.000
80.61224 496.000
80.63219 514.000
80.65214 485.000
80.67209 520.000
80.69203 467.000
80.71198 491.000
80.73193 518.000
80.75187 493.000
80.77182 442.000
80.79177 475.000
80.81171 497.000
80.83166 486.000
80.85161 493.000
80.87156 466.000
80.89150 472.000
80.91145 467.000
80.93140 456.000
80.95134 470.000
80.97129 497.000
80.99124 481.000
81.01118 500.000
81.03113 433.000
81.05108 523.000
81.07102 503.000
81.09097 468.000
81.11092 459.000
81.13087 458.000
81.15081 474.000
81.17076 490.000
81.19071 458.000
81.21065 478.000
81.23060 448.000
81.25055 500.000
81.27049 483.000
81.29044 493.000
81.31039 483.000
81.33034 464.000
81.35028 444.000
81.37023 467.000
81.39018 489.000
81.41012 459.000
81.43007 460.000
81.45002 454.000
81.46996 475.000
81.48991 461.000
81.50986 482.000
81.52980 492.000
81.54975 452.000
81.56970 471.000
81.58965 460.000
81.60959 457.000
81.62954 498.000
81.64949 460.000
81.66943 490.000
81.68938 465.000
81.70933 468.000
81.72927 458.000
81.74922 451.000
81.76917 487.000
81.78912 473.000
81.80906 470.000
81.82901 435.000
81.84896 471.000
81.86890 450.000
81.88885 530.000
81.90880 450.000
81.92874 501.000
81.94869 497.000
81.96864 485.000
81.98859 460.000
82.00853 447.000
82.02848 477.000
82.04843 473.000
82.06837 447.000
82.08832 483.000
82.10827 481.000
82.12821 484.000
82.14816 473.000
82.16811 480.000
82.18805 519.000
82.20800 508.000
82.22795 514.000
82.24790 508.000
82.26784 507.000
82.28779 476.000
82.30774 520.000
82.32768 497.000
82.34763 524.000
82.36758 514.000
82.38752 482.000
82.40747 537.000
82.42742 529.000
82.44737 558.000
82.46731 539.000
82.48726 598.000
82.50721 543.000
82.52715 582.000
82.54710 588.000
82.56705 636.000
82.58699 628.000
82.60694 559.000
82.62689 628.000
82.64683 621.000
82.66678 594.000
82.68673 604.000
82.70668 555.000
82.72662 579.000
82.74657 580.000
82.76652 606.000
82.78646 644.000
82.80641 629.000
82.82636 626.000
82.84630 618.000
82.86625 637.000
82.88620 668.000
82.90615 615.000
82.92609 626.000
82.94604 631.000
82.96599 548.000
82.98593 617.000
83.00588 555.000
83.02583 569.000
83.04577 510.000
83.06572 596.000
83.08567 558.000
83.10561 560.000
83.12556 535.000
83.14551 535.000
83.16546 594.000
83.18540 556.000
83.20535 572.000
83.22530 532.000
83.24524 498.000
83.26519 556.000
83.28514 547.000
83.30508 524.000
83.32503 539.000
83.34498 495.000
83.36493 521.000
83.38487 528.000
83.40482 483.000
83.42477 504.000
83.44471 564.000
83.46466 490.000
83.48461 487.000
83.50455 524.000
83.52450 536.000
83.54445 519.000
83.56440 515.000
83.58434 507.000
83.60429 537.000
83.62424 532.000
83.64418 523.000
83.66413 532.000
83.68408 534.000
83.70402 537.000
83.72397 544.000
83.74392 591.000
83.76386 585.000
83.78381 590.000
83.80376 607.000
83.82371 603.000
83.84365 606.000
83.86360 578.000
83.88355 544.000
83.90349 538.000
83.92344 554.000
83.94339 541.000
83.96333 559.000
83.98328 514.000
84.00323 528.000
84.02318 519.000
84.04312 575.000
84.06307 576.000
84.08302 476.000
84.10296 543.000
84.12291 509.000
84.14286 510.000
84.16280 509.000
84.18275 481.000
84.20270 555.000
84.22264 518.000
84.24259 522.000
84.26254 523.000
84.28249 492.000
84.30243 510.000
84.32238 498.000
84.34233 462.000
84.36227 503.000
84.38222 491.000
84.40217 527.000
84.42211 466.000
84.44206 455.000
84.46201 459.000
84.48196 490.000
84.50190 499.000
84.52185 471.000
84.54180 502.000
84.56174 458.000
84.58169 452.000
84.60164 529.000
84.62158 510.000
84.64153 486.000
84.66148 505.000
84.68142 517.000
84.70137 501.000
84.72132 481.000
84.74127 535.000
84.76121 501.000
84.78116 481.000
84.80111 483.000
84.82105 477.000
84.84100 504.000
84.86095 540.000
84.88089 470.000
84.90084 461.000
84.92079 483.000
84.94074 512.000
84.96068 461.000
84.98063 471.000
85.00058 465.000
85.02052 461.000
85.04047 494.000
85.06042 516.000
85.08036 483.000
85.10031 497.000
85.12026 445.000
85.14021 480.000
85.16015 473.000
85.18010 492.000
85.20005 431.000
85.21999 466.000
85.23994 462.000
85.25989 463.000
85.27983 497.000
85.29978 465.000
85.31973 475.000
85.33967 460.000
85.35962 466.000
85.37957 527.000
85.39952 447.000
85.41946 507.000
85.43941 509.000
85.45936 453.000
85.47930 460.000
85.49925 484.000
85.51920 447.000
85.53914 483.000
85.55909 468.000
85.57904 442.000
85.59899 423.000
85.61893 442.000
85.63888 462.000
85.65883 460.000
85.67877 521.000
85.69872 480.000
85.71867 480.000
85.73861 447.000
85.75856 448.000
85.77851 450.000
85.79845 471.000
85.81840 459.000
85.83835 463.000
85.85830 482.000
85.87824 456.000
85.89819 448.000
85.91814 484.000
85.93808 471.000
85.95803 459.000
85.97798 493.000
85.99792 493.000
86.01787 412.000
86.03782 453.000
86.05777 475.000
86.07771 518.000
86.09766 409.000
86.11761 512.000
86.13755 465.000
86.15750 452.000
86.17745 459.000
86.19739 449.000
86.21734 457.000
86.23729 480.000
86.25723 470.000
86.27718 474.000
86.29713 451.000
86.31708 430.000
86.33702 485.000
86.35697 486.000
86.37692 458.000
86.39686 475.000
86.41681 467.000
86.43676 479.000
86.45670 526.000
86.47665 495.000
86.49660 489.000
86.51655 525.000
86.53649 493.000
86.55644 453.000
86.57639 504.000
86.59633 469.000
86.61628 536.000
86.63623 519.000
86.65617 490.000
86.67612 527.000
86.69607 528.000
86.71602 509.000
86.73596 548.000
86.75591 507.000
86.77586 494.000
86.79580 528.000
86.81575 525.000
86.83570 494.000
86.85564 474.000
86.87559 534.000
86.89554 517.000
86.91548 542.000
86.93543 520.000
86.95538 519.000
86.97533 526.000
86.99527 524.000
87.01522 506.000
87.03517 527.000
87.05511 544.000
87.07506 505.000
87.09501 529.000
87.11495 532.000
87.13490 531.000
87.15485 513.000
87.17480 546.000
87.19474 511.000
87.21469 507.000
87.23464 480.000
87.25458 492.000
87.27453 477.000
87.29448 491.000
87.31442 531.000
87.33437 525.000
87.35432 485.000
87.37426 541.000
87.39421 503.000
87.41416 495.000
87.43411 526.000
87.45405 477.000
87.47400 510.000
87.49395 510.000
87.51389 502.000
87.53384 519.000
87.55379 524.000
87.57373 471.000
87.59368 487.000
87.61363 491.000
87.63358 516.000
87.65352 469.000
87.67347 502.000
87.69342 453.000
87.71336 487.000
87.73331 473.000
87.75326 492.000
87.77320 454.000
87.79315 479.000
87.81310 498.000
87.83304 480.000
87.85299 477.000
87.87294 460.000
87.89289 461.000
87.91283 502.000
87.93278 438.000
87.95273 505.000
87.97267 485.000
87.99262 427.000
88.01257 464.000
88.03251 458.000
88.05246 498.000
88.07241 489.000
88.09236 487.000
88.11230 426.000
88.13225 471.000
88.15220 487.000
88.17214 503.000
88.19209 436.000
88.21204 482.000
88.23198 465.000
88.25193 453.000
88.27188 511.000
88.29183 486.000
88.31177 462.000
88.33172 458.000
88.35167 474.000
88.37161 491.000
88.39156 502.000
88.41151 476.000
88.43145 483.000
88.45140 485.000
88.47135 488.000
88.49129 467.000
88.51124 488.000
88.53119 484.000
88.55114 495.000
88.57108 467.000
88.59103 461.000
88.61098 468.000
88.63092 472.000
88.65087 487.000
88.67082 423.000
88.69076 467.000
88.71071 496.000
88.73066 478.000
88.75061 504.000
88.77055 476.000
88.79050 480.000
88.81045 479.000
88.83039 471.000
88.85034 446.000
88.87029 434.000
88.89023 503.000
88.91018 465.000
88.93013 509.000
88.95007 470.000
88.97002 497.000
88.98997 523.000
89.00992 501.000
89.02986 513.000
89.04981 481.000
89.06976 469.000
89.08970 477.000
89.10965 484.000
89.12960 477.000
89.14954 513.000
89.16949 473.000
89.18944 498.000
89.20939 476.000
89.22933 479.000
89.24928 498.000
89.26923 520.000
89.28917 489.000
89.30912 496.000
89.32907 503.000
89.34901 514.000
89.36896 508.000
89.38891 507.000
89.40885 576.000
89.42880 549.000
89.44875 533.000
89.46870 557.000
89.48864 560.000
89.50859 576.000
89.52854 562.000
89.54848 559.000
89.56843 555.000
89.58838 574.000
89.60832 548.000
89.62827 491.000
89.64822 549.000
89.66817 568.000
89.68811 558.000
89.70806 556.000
89.72801 546.000
89.74795 557.000
89.76790 549.000
89.78785 520.000
89.80779 563.000
89.82774 551.000
89.84769 514.000
89.86764 542.000
89.88758 511.000
89.90753 572.000
89.92748 535.000
89.94742 510.000
89.96737 494.000
89.98732 507.000
90.00726 503.000
