10.00000 175.000
10.01995 168.000
10.03989 131.000
10.05984 142.000
10.07979 149.000
10.09973 167.000
10.11968 136.000
10.13963 146.000
10.15958 165.000
10.17952 137.000
10.19947 172.000
10.21942 147.000
10.23936 150.000
10.25931 160.000
10.27926 146.000
10.29920 142.000
10.31915 135.000
10.33910 146.000
10.35905 157.000
10.37899 160.000
10.39894 149.000
10.41889 159.000
10.43883 149.000
10.45878 148.000
10.47873 185.000
10.49867 163.000
10.51862 144.000
10.53857 173.000
10.55851 155.000
10.57846 146.000
10.59841 142.000
10.61836 166.000
10.63830 154.000
10.65825 163.000
10.67820 144.000
10.69814 153.000
10.71809 153.000
10.73804 139.000
10.75798 138.000
10.77793 171.000
10.79788 140.000
10.81783 134.000
10.83777 124.000
10.85772 162.000
10.87767 151.000
10.89761 160.000
10.91756 140.000
10.93751 138.000
10.95745 156.000
10.97740 140.000
10.99735 149.000
11.01730 128.000
11.03724 140.000
11.05719 156.000
11.07714 152.000
11.09708 152.000
11.11703 126.000
11.13698 154.000
11.15692 143.000
11.17687 172.000
11.19682 157.000
11.21676 138.000
11.23671 145.000
11.25666 162.000
11.27661 141.000
11.29655 134.000
11.31650 129.000
11.33645 138.000
11.35639 119.000
11.37634 137.000
11.39629 156.000
11.41623 168.000
11.43618 160.000
11.45613 154.000
11.47608 172.000
11.49602 149.000
11.51597 162.000
11.53592 147.000
11.55586 129.000
11.57581 140.000
11.59576 149.000
11.61570 146.000
11.63565 146.000
11.65560 139.000
11.67554 164.000
11.69549 167.000
11.71544 141.000
11.73539 141.000
11.75533 146.000
11.77528 139.000
11.79523 141.000
11.81517 168.000
11.83512 164.000
11.85507 147.000
11.87501 136.000
11.89496 159.000
11.91491 153.000
11.93486 171.000
11.95480 149.000
11.97475 156.000
11.99470 144.000
12.01464 135.000
12.03459 142.000
12.05454 145.000
12.07448 155.000
12.09443 148.000
12.11438 151.000
12.13432 147.000
12.15427 151.000
12.17422 144.000
12.19417 151.000
12.21411 123.000
12.23406 150.000
12.25401 161.000
12.27395 140.000
12.29390 174.000
12.31385 136.000
12.33379 155.000
12.35374 172.000
12.37369 148.000
12.39364 145.000
12.41358 185.000
12.43353 148.000
12.45348 125.000
12.47342 123.000
12.49337 149.000
12.51332 159.000
12.53326 128.000
12.55321 154.000
12.57316 142.000
12.59311 151.000
12.61305 140.000
12.63300 149.000
12.65295 135.000
12.67289 149.000
12.69284 151.000
12.71279 145.000
12.73273 138.000
12.75268 150.000
12.77263 149.000
12.79257 146.000
12.81252 148.000
12.83247 149.000
12.85242 176.000
12.87236 140.000
12.89231 159.000
12.91226 177.000
12.93220 154.000
12.95215 142.000
12.97210 135.000
12.99204 140.000
13.01199 124.000
13.03194 174.000
13.05189 142.000
13.07183 154.000
13.09178 134.000
13.11173 134.000
13.13167 128.000
13.15162 133.000
13.17157 137.000
13.19151 161.000
13.21146 144.000
13.23141 158.000
13.25135 146.000
13.27130 150.000
13.29125 138.000
13.31120 154.000
13.33114 168.000
13.35109 134.000
13.37104 149.000
13.39098 140.000
13.41093 148.000
13.43088 149.000
13.45082 144.000
13.47077 157.000
13.49072 167.000
13.51067 133.000
13.53061 164.000
13.55056 126.000
13.57051 138.000
13.59045 155.000
13.61040 149.000
13.63035 137.000
13.65029 132.000
13.67024 141.000
13.69019 132.000
13.71013 129.000
13.73008 165.000
13.75003 158.000
13.76998 123.000
13.78992 140.000
13.80987 151.000
13.82982 125.000
13.84976 134.000
13.86971 156.000
13.88966 136.000
13.90960 150.000
13.92955 146.000
13.94950 133.000
13.96945 139.000
13.98939 133.000
14.00934 149.000
14.02929 160.000
14.04923 141.000
14.06918 161.000
14.08913 148.000
14.10907 164.000
14.12902 138.000
14.14897 138.000
14.16892 154.000
14.18886 144.000
14.20881 159.000
14.22876 150.000
14.24870 129.000
14.26865 130.000
14.28860 164.000
14.30854 164.000
14.32849 156.000
14.34844 155.000
14.36838 160.000
14.38833 162.000
14.40828 147.000
14.42823 145.000
14.44817 151.000
14.46812 147.000
14.48807 163.000
14.50801 164.000
14.52796 167.000
14.54791 136.000
14.56785 158.000
14.58780 161.000
14.60775 186.000
14.62770 163.000
14.64764 157.000
14.66759 163.000
14.68754 171.000
14.70748 149.000
14.72743 170.000
14.74738 137.000
14.76732 140.000
14.78727 158.000
14.80722 149.000
14.82716 148.000
14.84711 154.000
14.86706 154.000
14.88701 142.000
14.90695 132.000
14.92690 145.000
14.94685 152.000
14.96679 168.000
14.98674 162.000
15.00669 145.000
15.02663 158.000
15.04658 157.000
15.06653 148.000
15.08648 161.000
15.10642 128.000
15.12637 146.000
15.14632 149.000
15.16626 148.000
15.18621 157.000
15.20616 162.000
15.22610 175.000
15.24605 146.000
15.26600 151.000
15.28594 162.000
15.30589 163.000
15.32584 181.000
15.34579 147.000
15.36573 150.000
15.38568 147.000
15.40563 147.000
15.42557 156.000
15.44552 195.000
15.46547 150.000
15.48541 165.000
15.50536 160.000
15.52531 163.000
15.54526 171.000
15.56520 165.000
15.58515 159.000
15.60510 158.000
15.62504 160.000
15.64499 174.000
15.66494 188.000
15.68488 182.000
15.70483 193.000
15.72478 199.000
15.74472 199.000
15.76467 198.000
15.78462 215.000
15.80457 240.000
15.82451 268.000
15.84446 355.000
15.86441 445.000
15.88435 511.000
15.90430 529.000
15.92425 449.000
15.94419 343.000
15.96414 311.000
15.98409 230.000
16.00404 213.000
16.02398 250.000
16.04393 247.000
16.06388 267.000
16.08382 224.000
16.10377 281.000
16.12372 334.000
16.14366 380.000
16.16361 401.000
16.18356 470.000
16.20351 506.000
16.22345 497.000
16.24340 544.000
16.26335 603.000
16.28329 692.000
16.30324 772.000
16.32319 864.000
16.34313 1098.000
16.36308 1378.000
16.38303 1551.000
16.40297 1598.000
16.42292 1508.000
16.44287 1256.000
16.46282 1037.000
16.48276 810.000
16.50271 594.000
16.52266 462.000
16.54260 405.000
16.56255 336.000
16.58250 306.000
16.60244 290.000
16.62239 272.000
16.64234 224.000
16.66229 283.000
16.68223 221.000
16.70218 218.000
16.72213 233.000
16.74207 211.000
16.76202 197.000
16.78197 225.000
16.80191 201.000
16.82186 234.000
16.84181 191.000
16.86175 228.000
16.88170 241.000
16.90165 222.000
16.92160 220.000
16.94154 190.000
16.96149 203.000
16.98144 172.000
17.00138 181.000
17.02133 205.000
17.04128 219.000
17.06122 190.000
17.08117 206.000
17.10112 200.000
17.12107 212.000
17.14101 228.000
17.16096 206.000
17.18091 205.000
17.20085 237.000
17.22080 251.000
17.24075 254.000
17.26069 279.000
17.28064 283.000
17.30059 256.000
17.32053 246.000
17.34048 213.000
17.36043 200.000
17.38038 189.000
17.40032 176.000
17.42027 181.000
17.44022 152.000
17.46016 167.000
17.48011 149.000
17.50006 194.000
17.52000 167.000
17.53995 141.000
17.55990 185.000
17.57985 145.000
17.59979 164.000
17.61974 143.000
17.63969 162.000
17.65963 162.000
17.67958 162.000
17.69953 140.000
17.71947 181.000
17.73942 147.000
17.75937 171.000
17.77932 144.000
17.79926 155.000
17.81921 157.000
17.83916 164.000
17.85910 146.000
17.87905 146.000
17.89900 157.000
17.91894 144.000
17.93889 160.000
17.95884 157.000
17.97878 179.000
17.99873 163.000
18.01868 137.000
18.03863 159.000
18.05857 139.000
18.07852 148.000
18.09847 153.000
18.11841 141.000
18.13836 134.000
18.15831 153.000
18.17825 155.000
18.19820 159.000
18.21815 148.000
18.23810 147.000
18.25804 167.000
18.27799 149.000
18.29794 187.000
18.31788 168.000
18.33783 160.000
18.35778 209.000
18.37772 242.000
18.39767 274.000
18.41762 314.000
18.43756 258.000
18.45751 220.000
18.47746 238.000
18.49741 202.000
18.51735 182.000
18.53730 145.000
18.55725 128.000
18.57719 156.000
18.59714 182.000
18.61709 158.000
18.63703 144.000
18.65698 149.000
18.67693 140.000
18.69688 139.000
18.71682 172.000
18.73677 138.000
18.75672 137.000
18.77666 140.000
18.79661 161.000
18.81656 155.000
18.83650 160.000
18.85645 140.000
18.87640 115.000
18.89634 159.000
18.91629 154.000
18.93624 160.000
18.95619 137.000
18.97613 128.000
18.99608 127.000
19.01603 156.000
19.03597 151.000
19.05592 162.000
19.07587 136.000
19.09581 130.000
19.11576 142.000
19.13571 161.000
19.15566 128.000
19.17560 133.000
19.19555 136.000
19.21550 177.000
19.23544 143.000
19.25539 138.000
19.27534 150.000
19.29528 119.000
19.31523 133.000
19.33518 147.000
19.35513 153.000
19.37507 154.000
19.39502 142.000
19.41497 155.000
19.43491 132.000
19.45486 149.000
19.47481 146.000
19.49475 144.000
19.51470 157.000
19.53465 117.000
19.55459 134.000
19.57454 150.000
19.59449 142.000
19.61444 114.000
19.63438 150.000
19.65433 158.000
19.67428 167.000
19.69422 143.000
19.71417 145.000
19.73412 129.000
19.75406 132.000
19.77401 138.000
19.79396 141.000
19.81391 138.000
19.83385 128.000
19.85380 142.000
19.87375 140.000
19.89369 143.000
19.91364 145.000
19.93359 137.000
19.95353 139.000
19.97348 145.000
19.99343 136.000
20.01337 142.000
20.03332 152.000
20.05327 126.000
20.07322 137.000
20.09316 159.000
20.11311 159.000
20.13306 147.000
20.15300 150.000
20.17295 132.000
20.19290 142.000
20.21284 153.000
20.23279 153.000
20.25274 142.000
20.27269 143.000
20.29263 151.000
20.31258 140.000
20.33253 127.000
20.35247 149.000
20.37242 147.000
20.39237 170.000
20.41231 150.000
20.43226 135.000
20.45221 149.000
20.47215 155.000
20.49210 151.000
20.51205 164.000
20.53200 158.000
20.55194 150.000
20.57189 175.000
20.59184 134.000
20.61178 174.000
20.63173 170.000
20.65168 156.000
20.67162 182.000
20.69157 179.000
20.71152 189.000
20.73147 222.000
20.75141 263.000
20.77136 261.000
20.79131 315.000
20.81125 309.000
20.83120 362.000
20.85115 355.000
20.87109 365.000
20.89104 334.000
20.91099 332.000
20.93094 317.000
20.95088 293.000
20.97083 281.000
20.99078 228.000
21.01072 199.000
21.03067 197.000
21.05062 209.000
21.07056 191.000
21.09051 196.000
21.11046 161.000
21.13040 173.000
21.15035 148.000
21.17030 136.000
21.19025 138.000
21.21019 152.000
21.23014 156.000
21.25009 131.000
21.27003 154.000
21.28998 131.000
21.30993 127.000
21.32987 157.000
21.34982 148.000
21.36977 153.000
21.38972 143.000
21.40966 152.000
21.42961 149.000
21.44956 173.000
21.46950 146.000
21.48945 152.000
21.50940 158.000
21.52934 124.000
21.54929 134.000
21.56924 141.000
21.58918 151.000
21.60913 132.000
21.62908 144.000
21.64903 141.000
21.66897 137.000
21.68892 138.000
21.70887 156.000
21.72881 167.000
21.74876 141.000
21.76871 148.000
21.78865 141.000
21.80860 149.000
21.82855 128.000
21.84850 136.000
21.86844 132.000
21.88839 141.000
21.90834 151.000
21.92828 113.000
21.94823 149.000
21.96818 143.000
21.98812 137.000
22.00807 140.000
22.02802 146.000
22.04796 135.000
22.06791 140.000
22.08786 162.000
22.10781 162.000
22.12775 161.000
22.14770 138.000
22.16765 125.000
22.18759 131.000
22.20754 139.000
22.22749 148.000
22.24743 157.000
22.26738 141.000
22.28733 145.000
22.30728 136.000
22.32722 150.000
22.34717 156.000
22.36712 142.000
22.38706 150.000
22.40701 149.000
22.42696 148.000
22.44690 137.000
22.46685 157.000
22.48680 136.000
22.50675 134.000
22.52669 144.000
22.54664 166.000
22.56659 134.000
22.58653 163.000
22.60648 153.000
22.62643 141.000
22.64637 150.000
22.66632 138.000
22.68627 139.000
22.70621 132.000
22.72616 138.000
22.74611 137.000
22.76606 145.000
22.78600 133.000
22.80595 148.000
22.82590 138.000
22.84584 145.000
22.86579 137.000
22.88574 132.000
22.90568 147.000
22.92563 151.000
22.94558 152.000
22.96553 132.000
22.98547 126.000
23.00542 148.000
23.02537 125.000
23.04531 145.000
23.06526 134.000
23.08521 140.000
23.10515 120.000
23.12510 154.000
23.14505 153.000
23.16499 142.000
23.18494 131.000
23.20489 171.000
23.22484 143.000
23.24478 133.000
23.26473 144.000
23.28468 118.000
23.30462 136.000
23.32457 142.000
23.34452 143.000
23.36446 145.000
23.38441 139.000
23.40436 149.000
23.42431 161.000
23.44425 130.000
23.46420 150.000
23.48415 143.000
23.50409 135.000
23.52404 146.000
23.54399 151.000
23.56393 142.000
23.58388 148.000
23.60383 142.000
23.62377 147.000
23.64372 134.000
23.66367 137.000
23.68362 156.000
23.70356 140.000
23.72351 149.000
23.74346 128.000
23.76340 129.000
23.78335 134.000
23.80330 161.000
23.82324 130.000
23.84319 146.000
23.86314 135.000
23.88309 144.000
23.90303 150.000
23.92298 119.000
23.94293 133.000
23.96287 138.000
23.98282 125.000
24.00277 159.000
24.02271 144.000
24.04266 161.000
24.06261 127.000
24.08256 149.000
24.10250 135.000
24.12245 129.000
24.14240 134.000
24.16234 151.000
24.18229 141.000
24.20224 143.000
24.22218 148.000
24.24213 140.000
24.26208 142.000
24.28202 149.000
24.30197 156.000
24.32192 135.000
24.34187 125.000
24.36181 140.000
24.38176 163.000
24.40171 156.000
24.42165 148.000
24.44160 155.000
24.46155 150.000
24.48149 157.000
24.50144 134.000
24.52139 135.000
24.54134 157.000
24.56128 146.000
24.58123 146.000
24.60118 155.000
24.62112 141.000
24.64107 135.000
24.66102 135.000
24.68096 134.000
24.70091 158.000
24.72086 142.000
24.74080 156.000
24.76075 143.000
24.78070 136.000
24.80065 133.000
24.82059 152.000
24.84054 155.000
24.86049 150.000
24.88043 148.000
24.90038 153.000
24.92033 142.000
24.94027 153.000
24.96022 146.000
24.98017 149.000
25.00012 172.000
25.02006 192.000
25.04001 147.000
25.05996 154.000
25.07990 138.000
25.09985 157.000
25.11980 135.000
25.13974 162.000
25.15969 160.000
25.17964 163.000
25.19958 162.000
25.21953 174.000
25.23948 152.000
25.25943 129.000
25.27937 140.000
25.29932 164.000
25.31927 158.000
25.33921 157.000
25.35916 148.000
25.37911 149.000
25.39905 155.000
25.41900 147.000
25.43895 143.000
25.45890 142.000
25.47884 151.000
25.49879 156.000
25.51874 162.000
25.53868 154.000
25.55863 157.000
25.57858 146.000
25.59852 161.000
25.61847 147.000
25.63842 151.000
25.65837 154.000
25.67831 151.000
25.69826 183.000
25.71821 150.000
25.73815 157.000
25.75810 153.000
25.77805 145.000
25.79799 133.000
25.81794 153.000
25.83789 147.000
25.85783 153.000
25.87778 154.000
25.89773 149.000
25.91768 155.000
25.93762 142.000
25.95757 130.000
25.97752 182.000
25.99746 160.000
26.01741 166.000
26.03736 160.000
26.05730 139.000
26.07725 157.000
26.09720 144.000
26.11715 176.000
26.13709 147.000
26.15704 144.000
26.17699 151.000
26.19693 153.000
26.21688 152.000
26.23683 143.000
26.25677 137.000
26.27672 138.000
26.29667 142.000
26.31661 174.000
26.33656 159.000
26.35651 149.000
26.37646 152.000
26.39640 155.000
26.41635 173.000
26.43630 136.000
26.45624 145.000
26.47619 145.000
26.49614 149.000
26.51608 151.000
26.53603 150.000
26.55598 124.000
26.57593 147.000
26.59587 150.000
26.61582 158.000
26.63577 168.000
26.65571 153.000
26.67566 165.000
26.69561 144.000
26.71555 132.000
26.73550 152.000
26.75545 146.000
26.77539 166.000
26.79534 148.000
26.81529 149.000
26.83524 146.000
26.85518 149.000
26.87513 148.000
26.89508 171.000
26.91502 132.000
26.93497 157.000
26.95492 147.000
26.97486 157.000
26.99481 139.000
27.01476 148.000
27.03471 158.000
27.05465 150.000
27.07460 155.000
27.09455 150.000
27.11449 151.000
27.13444 158.000
27.15439 152.000
27.17433 167.000
27.19428 145.000
27.21423 152.000
27.23417 158.000
27.25412 156.000
27.27407 160.000
27.29402 142.000
27.31396 141.000
27.33391 172.000
27.35386 145.000
27.37380 157.000
27.39375 158.000
27.41370 176.000
27.43364 176.000
27.45359 157.000
27.47354 151.000
27.49349 151.000
27.51343 148.000
27.53338 136.000
27.55333 125.000
27.57327 163.000
27.59322 133.000
27.61317 149.000
27.63311 163.000
27.65306 133.000
27.67301 150.000
27.69296 133.000
27.71290 147.000
27.73285 138.000
27.75280 156.000
27.77274 161.000
27.79269 144.000
27.81264 131.000
27.83258 141.000
27.85253 129.000
27.87248 159.000
27.89242 157.000
27.91237 152.000
27.93232 129.000
27.95227 159.000
27.97221 145.000
27.99216 142.000
28.01211 127.000
28.03205 167.000
28.05200 137.000
28.07195 149.000
28.09189 140.000
28.11184 145.000
28.13179 144.000
28.15174 138.000
28.17168 147.000
28.19163 154.000
28.21158 160.000
28.23152 151.000
28.25147 142.000
28.27142 151.000
28.29136 167.000
28.31131 139.000
28.33126 148.000
28.35120 168.000
28.37115 145.000
28.39110 158.000
28.41105 158.000
28.43099 159.000
28.45094 146.000
28.47089 133.000
28.49083 151.000
28.51078 143.000
28.53073 165.000
28.55067 169.000
28.57062 164.000
28.59057 158.000
28.61052 143.000
28.63046 155.000
28.65041 150.000
28.67036 144.000
28.69030 141.000
28.71025 141.000
28.73020 150.000
28.75014 148.000
28.77009 129.000
28.79004 149.000
28.80998 148.000
28.82993 155.000
28.84988 131.000
28.86983 147.000
28.88977 146.000
28.90972 146.000
28.92967 149.000
28.94961 169.000
28.96956 133.000
28.98951 134.000
29.00945 151.000
29.02940 166.000
29.04935 126.000
29.06930 131.000
29.08924 160.000
29.10919 156.000
29.12914 133.000
29.14908 162.000
29.16903 186.000
29.18898 172.000
29.20892 189.000
29.22887 157.000
29.24882 176.000
29.26877 208.000
29.28871 184.000
29.30866 199.000
29.32861 202.000
29.34855 206.000
29.36850 225.000
29.38845 228.000
29.40839 221.000
29.42834 230.000
29.44829 217.000
29.46823 223.000
29.48818 198.000
29.50813 185.000
29.52808 203.000
29.54802 161.000
29.56797 154.000
29.58792 157.000
29.60786 159.000
29.62781 166.000
29.64776 170.000
29.66770 184.000
29.68765 185.000
29.70760 154.000
29.72755 148.000
29.74749 155.000
29.76744 185.000
29.78739 180.000
29.80733 177.000
29.82728 158.000
29.84723 136.000
29.86717 156.000
29.88712 143.000
29.90707 157.000
29.92701 168.000
29.94696 159.000
29.96691 182.000
29.98686 160.000
30.00680 177.000
30.02675 157.000
30.04670 195.000
30.06664 194.000
30.08659 181.000
30.10654 204.000
30.12648 204.000
30.14643 202.000
30.16638 197.000
30.18633 252.000
30.20627 253.000
30.22622 266.000
30.24617 324.000
30.26611 424.000
30.28606 518.000
30.30601 485.000
30.32595 440.000
30.34590 401.000
30.36585 359.000
30.38579 307.000
30.40574 282.000
30.42569 245.000
30.44564 214.000
30.46558 199.000
30.48553 192.000
30.50548 151.000
30.52542 149.000
30.54537 164.000
30.56532 142.000
30.58526 155.000
30.60521 164.000
30.62516 153.000
30.64511 159.000
30.66505 152.000
30.68500 158.000
30.70495 161.000
30.72489 161.000
30.74484 151.000
30.76479 172.000
30.78473 154.000
30.80468 142.000
30.82463 153.000
30.84458 166.000
30.86452 151.000
30.88447 152.000
30.90442 147.000
30.92436 150.000
30.94431 162.000
30.96426 152.000
30.98420 154.000
31.00415 165.000
31.02410 119.000
31.04404 166.000
31.06399 133.000
31.08394 182.000
31.10389 178.000
31.12383 155.000
31.14378 149.000
31.16373 162.000
31.18367 166.000
31.20362 172.000
31.22357 160.000
31.24351 149.000
31.26346 152.000
31.28341 132.000
31.30336 137.000
31.32330 155.000
31.34325 160.000
31.36320 157.000
31.38314 167.000
31.40309 142.000
31.42304 152.000
31.44298 142.000
31.46293 161.000
31.48288 143.000
31.50282 154.000
31.52277 139.000
31.54272 160.000
31.56267 166.000
31.58261 142.000
31.60256 155.000
31.62251 150.000
31.64245 174.000
31.66240 145.000
31.68235 159.000
31.70229 129.000
31.72224 155.000
31.74219 147.000
31.76214 134.000
31.78208 150.000
31.80203 135.000
31.82198 157.000
31.84192 158.000
31.86187 163.000
31.88182 157.000
31.90176 160.000
31.92171 160.000
31.94166 162.000
31.96160 164.000
31.98155 177.000
32.00150 160.000
32.02145 163.000
32.04139 178.000
32.06134 161.000
32.08129 175.000
32.10123 194.000
32.12118 158.000
32.14113 185.000
32.16107 171.000
32.18102 190.000
32.20097 176.000
32.22092 175.000
32.24086 168.000
32.26081 142.000
32.28076 152.000
32.30070 166.000
32.32065 159.000
32.34060 158.000
32.36054 169.000
32.38049 165.000
32.40044 143.000
32.42039 189.000
32.44033 161.000
32.46028 142.000
32.48023 189.000
32.50017 178.000
32.52012 162.000
32.54007 168.000
32.56001 160.000
32.57996 183.000
32.59991 162.000
32.61985 148.000
32.63980 178.000
32.65975 144.000
32.67970 166.000
32.69964 186.000
32.71959 186.000
32.73954 189.000
32.75948 184.000
32.77943 184.000
32.79938 200.000
32.81932 178.000
32.83927 222.000
32.85922 147.000
32.87917 183.000
32.89911 190.000
32.91906 174.000
32.93901 204.000
32.95895 226.000
32.97890 213.000
32.99885 205.000
33.01879 196.000
33.03874 192.000
33.05869 239.000
33.07863 240.000
33.09858 266.000
33.11853 304.000
33.13848 320.000
33.15842 292.000
33.17837 319.000
33.19832 310.000
33.21826 336.000
33.23821 282.000
33.25816 274.000
33.27810 254.000
33.29805 221.000
33.31800 234.000
33.33795 205.000
33.35789 225.000
33.37784 189.000
33.39779 211.000
33.41773 164.000
33.43768 166.000
33.45763 179.000
33.47757 171.000
33.49752 176.000
33.51747 163.000
33.53741 178.000
33.55736 160.000
33.57731 159.000
33.59726 159.000
33.61720 130.000
33.63715 149.000
33.65710 147.000
33.67704 157.000
33.69699 189.000
33.71694 168.000
33.73688 161.000
33.75683 172.000
33.77678 173.000
33.79673 164.000
33.81667 185.000
33.83662 175.000
33.85657 151.000
33.87651 194.000
33.89646 170.000
33.91641 153.000
33.93635 163.000
33.95630 202.000
33.97625 181.000
33.99620 167.000
34.01614 205.000
34.03609 175.000
34.05604 208.000
34.07598 202.000
34.09593 182.000
34.11588 225.000
34.13582 200.000
34.15577 209.000
34.17572 240.000
34.19566 287.000
34.21561 272.000
34.23556 268.000
34.25551 295.000
34.27545 345.000
34.29540 312.000
34.31535 380.000
34.33529 363.000
34.35524 374.000
34.37519 429.000
34.39513 421.000
34.41508 353.000
34.43503 365.000
34.45498 334.000
34.47492 362.000
34.49487 299.000
34.51482 330.000
34.53476 336.000
34.55471 338.000
34.57466 267.000
34.59460 281.000
34.61455 286.000
34.63450 261.000
34.65444 252.000
34.67439 262.000
34.69434 276.000
34.71429 253.000
34.73423 239.000
34.75418 233.000
34.77413 233.000
34.79407 243.000
34.81402 273.000
34.83397 234.000
34.85391 263.000
34.87386 277.000
34.89381 255.000
34.91376 293.000
34.93370 303.000
34.95365 359.000
34.97360 321.000
34.99354 332.000
35.01349 354.000
35.03344 399.000
35.05338 378.000
35.07333 378.000
35.09328 427.000
35.11322 376.000
35.13317 386.000
35.15312 417.000
35.17307 432.000
35.19301 397.000
35.21296 447.000
35.23291 461.000
35.25285 391.000
35.27280 406.000
35.29275 392.000
35.31269 346.000
35.33264 364.000
35.35259 339.000
35.37254 340.000
35.39248 325.000
35.41243 342.000
35.43238 351.000
35.45232 328.000
35.47227 358.000
35.49222 383.000
35.51216 404.000
35.53211 386.000
35.55206 467.000
35.57201 500.000
35.59195 562.000
35.61190 663.000
35.63185 847.000
35.65179 1072.000
35.67174 1284.000
35.69169 1263.000
35.71163 1075.000
35.73158 979.000
35.75153 1021.000
35.77147 904.000
35.79142 779.000
35.81137 610.000
35.83132 500.000
35.85126 415.000
35.87121 398.000
35.89116 319.000
35.91110 298.000
35.93105 261.000
35.95100 276.000
35.97094 263.000
35.99089 256.000
36.01084 247.000
36.03079 200.000
36.05073 275.000
36.07068 260.000
36.09063 272.000
36.11057 251.000
36.13052 231.000
36.15047 252.000
36.17041 246.000
36.19036 230.000
36.21031 262.000
36.23025 257.000
36.25020 259.000
36.27015 263.000
36.29010 320.000
36.31004 358.000
36.32999 352.000
36.34994 446.000
36.36988 482.000
36.38983 599.000
36.40978 702.000
36.42972 652.000
36.44967 722.000
36.46962 670.000
36.48957 701.000
36.50951 672.000
36.52946 658.000
36.54941 620.000
36.56935 574.000
36.58930 538.000
36.60925 451.000
36.62919 451.000
36.64914 404.000
36.66909 383.000
36.68903 400.000
36.70898 380.000
36.72893 348.000
36.74888 341.000
36.76882 379.000
36.78877 314.000
36.80872 384.000
36.82866 367.000
36.84861 411.000
36.86856 436.000
36.88850 460.000
36.90845 604.000
36.92840 677.000
36.94835 796.000
36.96829 877.000
36.98824 927.000
37.00819 970.000
37.02813 977.000
37.04808 966.000
37.06803 935.000
37.08797 989.000
37.10792 906.000
37.12787 873.000
37.14781 776.000
37.16776 695.000
37.18771 600.000
37.20766 573.000
37.22760 497.000
37.24755 441.000
37.26750 433.000
37.28744 369.000
37.30739 401.000
37.32734 355.000
37.34728 328.000
37.36723 306.000
37.38718 285.000
37.40713 249.000
37.42707 305.000
37.44702 236.000
37.46697 245.000
37.48691 224.000
37.50686 215.000
37.52681 218.000
37.54675 219.000
37.56670 186.000
37.58665 221.000
37.60660 188.000
37.62654 196.000
37.64649 183.000
37.66644 197.000
37.68638 175.000
37.70633 179.000
37.72628 220.000
37.74622 193.000
37.76617 159.000
37.78612 195.000
37.80606 196.000
37.82601 171.000
37.84596 171.000
37.86591 209.000
37.88585 193.000
37.90580 180.000
37.92575 175.000
37.94569 182.000
37.96564 192.000
37.98559 178.000
38.00553 179.000
38.02548 182.000
38.04543 169.000
38.06538 193.000
38.08532 183.000
38.10527 180.000
38.12522 179.000
38.14516 180.000
38.16511 159.000
38.18506 175.000
38.20500 176.000
38.22495 186.000
38.24490 181.000
38.26484 180.000
38.28479 179.000
38.30474 173.000
38.32469 156.000
38.34463 171.000
38.36458 195.000
38.38453 196.000
38.40447 183.000
38.42442 155.000
38.44437 167.000
38.46431 157.000
38.48426 186.000
38.50421 159.000
38.52416 199.000
38.54410 175.000
38.56405 177.000
38.58400 176.000
38.60394 175.000
38.62389 208.000
38.64384 188.000
38.66378 165.000
38.68373 198.000
38.70368 186.000
38.72362 198.000
38.74357 178.000
38.76352 222.000
38.78347 165.000
38.80341 207.000
38.82336 172.000
38.84331 199.000
38.86325 187.000
38.88320 220.000
38.90315 180.000
38.92309 205.000
38.94304 198.000
38.96299 180.000
38.98294 185.000
39.00288 207.000
39.02283 193.000
39.04278 164.000
39.06272 173.000
39.08267 198.000
39.10262 208.000
39.12256 184.000
39.14251 193.000
39.16246 193.000
39.18241 229.000
39.20235 228.000
39.22230 232.000
39.24225 232.000
39.26219 238.000
39.28214 226.000
39.30209 225.000
39.32203 240.000
39.34198 212.000
39.36193 189.000
39.38187 188.000
39.40182 174.000
39.42177 195.000
39.44172 176.000
39.46166 207.000
39.48161 168.000
39.50156 189.000
39.52150 170.000
39.54145 149.000
39.56140 167.000
39.58134 155.000
39.60129 160.000
39.62124 174.000
39.64119 158.000
39.66113 175.000
39.68108 177.000
39.70103 172.000
39.72097 166.000
39.74092 146.000
39.76087 174.000
39.78081 167.000
39.80076 179.000
39.82071 160.000
39.84065 197.000
39.86060 163.000
39.88055 162.000
39.90050 169.000
39.92044 159.000
39.94039 172.000
39.96034 177.000
39.98028 168.000
40.00023 172.000
40.02018 166.000
40.04012 166.000
40.06007 180.000
40.08002 176.000
40.09997 161.000
40.11991 153.000
40.13986 158.000
40.15981 164.000
40.17975 176.000
40.19970 193.000
40.21965 166.000
40.23959 160.000
40.25954 193.000
40.27949 161.000
40.29943 158.000
40.31938 166.000
40.33933 171.000
40.35928 186.000
40.37922 169.000
40.39917 180.000
40.41912 169.000
40.43906 170.000
40.45901 173.000
40.47896 191.000
40.49890 157.000
40.51885 173.000
40.53880 155.000
40.55875 192.000
40.57869 192.000
40.59864 176.000
40.61859 195.000
40.63853 169.000
40.65848 187.000
40.67843 194.000
40.69837 183.000
40.71832 159.000
40.73827 185.000
40.75822 182.000
40.77816 183.000
40.79811 203.000
40.81806 192.000
40.83800 210.000
40.85795 196.000
40.87790 197.000
40.89784 209.000
40.91779 195.000
40.93774 226.000
40.95768 210.000
40.97763 215.000
40.99758 209.000
41.01753 228.000
41.03747 233.000
41.05742 216.000
41.07737 245.000
41.09731 278.000
41.11726 260.000
41.13721 294.000
41.15715 257.000
41.17710 299.000
41.19705 319.000
41.21700 368.000
41.23694 344.000
41.25689 390.000
41.27684 418.000
41.29678 532.000
41.31673 642.000
41.33668 780.000
41.35662 886.000
41.37657 986.000
41.39652 1173.000
41.41646 1279.000
41.43641 1488.000
41.45636 1435.000
41.47631 1474.000
41.49625 1484.000
41.51620 1362.000
41.53615 1279.000
41.55609 1137.000
41.57604 1121.000
41.59599 1016.000
41.61593 937.000
41.63588 912.000
41.65583 789.000
41.67578 790.000
41.69572 748.000
41.71567 706.000
41.73562 697.000
41.75556 750.000
41.77551 751.000
41.79546 814.000
41.81540 848.000
41.83535 898.000
41.85530 863.000
41.87524 901.000
41.89519 848.000
41.91514 850.000
41.93509 739.000
41.95503 725.000
41.97498 652.000
41.99493 611.000
42.01487 567.000
42.03482 461.000
42.05477 453.000
42.07471 363.000
42.09466 344.000
42.11461 333.000
42.13456 317.000
42.15450 288.000
42.17445 281.000
42.19440 265.000
42.21434 248.000
42.23429 253.000
42.25424 239.000
42.27418 232.000
42.29413 278.000
42.31408 227.000
42.33403 228.000
42.35397 213.000
42.37392 231.000
42.39387 250.000
42.41381 219.000
42.43376 252.000
42.45371 225.000
42.47365 239.000
42.49360 226.000
42.51355 231.000
42.53349 255.000
42.55344 234.000
42.57339 266.000
42.59334 287.000
42.61328 246.000
42.63323 271.000
42.65318 296.000
42.67312 283.000
42.69307 310.000
42.71302 318.000
42.73296 375.000
42.75291 389.000
42.77286 419.000
42.79281 420.000
42.81275 457.000
42.83270 505.000
42.85265 578.000
42.87259 568.000
42.89254 666.000
42.91249 739.000
42.93243 755.000
42.95238 854.000
42.97233 878.000
42.99227 895.000
43.01222 857.000
43.03217 948.000
43.05212 1004.000
43.07206 1000.000
43.09201 1088.000
43.11196 968.000
43.13190 953.000
43.15185 921.000
43.17180 870.000
43.19174 867.000
43.21169 850.000
43.23164 786.000
43.25159 731.000
43.27153 672.000
43.29148 660.000
43.31143 649.000
43.33137 599.000
43.35132 576.000
43.37127 617.000
43.39121 526.000
43.41116 473.000
43.43111 448.000
43.45105 386.000
43.47100 389.000
43.49095 368.000
43.51090 360.000
43.53084 303.000
43.55079 272.000
43.57074 262.000
43.59068 250.000
43.61063 208.000
43.63058 250.000
43.65052 195.000
43.67047 223.000
43.69042 212.000
43.71037 199.000
43.73031 196.000
43.75026 196.000
43.77021 203.000
43.79015 193.000
43.81010 186.000
43.83005 151.000
43.84999 205.000
43.86994 189.000
43.88989 177.000
43.90984 150.000
43.92978 160.000
43.94973 191.000
43.96968 177.000
43.98962 181.000
44.00957 189.000
44.02952 184.000
44.04946 183.000
44.06941 188.000
44.08936 167.000
44.10930 150.000
44.12925 167.000
44.14920 144.000
44.16915 158.000
44.18909 178.000
44.20904 185.000
44.22899 180.000
44.24893 159.000
44.26888 164.000
44.28883 194.000
44.30877 167.000
44.32872 152.000
44.34867 174.000
44.36862 172.000
44.38856 181.000
44.40851 184.000
44.42846 146.000
44.44840 167.000
44.46835 185.000
44.48830 161.000
44.50824 186.000
44.52819 160.000
44.54814 160.000
44.56808 172.000
44.58803 150.000
44.60798 170.000
44.62793 159.000
44.64787 175.000
44.66782 154.000
44.68777 184.000
44.70771 195.000
44.72766 178.000
44.74761 184.000
44.76755 193.000
44.78750 155.000
44.80745 204.000
44.82740 173.000
44.84734 161.000
44.86729 194.000
44.88724 190.000
44.90718 178.000
44.92713 180.000
44.94708 191.000
44.96702 185.000
44.98697 198.000
45.00692 203.000
45.02686 202.000
45.04681 187.000
45.06676 177.000
45.08671 157.000
45.10665 150.000
45.12660 178.000
45.14655 191.000
45.16649 151.000
45.18644 159.000
45.20639 154.000
45.22633 169.000
45.24628 161.000
45.26623 163.000
45.28618 153.000
45.30612 151.000
45.32607 147.000
45.34602 154.000
45.36596 165.000
45.38591 144.000
45.40586 160.000
45.42580 178.000
45.44575 165.000
45.46570 178.000
45.48565 162.000
45.50559 151.000
45.52554 176.000
45.54549 175.000
45.56543 173.000
45.58538 175.000
45.60533 188.000
45.62527 163.000
45.64522 168.000
45.66517 167.000
45.68511 188.000
45.70506 182.000
45.72501 177.000
45.74496 159.000
45.76490 160.000
45.78485 137.000
45.80480 164.000
45.82474 177.000
45.84469 169.000
45.86464 145.000
45.88458 157.000
45.90453 147.000
45.92448 147.000
45.94443 143.000
45.96437 137.000
45.98432 174.000
46.00427 148.000
46.02421 162.000
46.04416 156.000
46.06411 155.000
46.08405 146.000
46.10400 177.000
46.12395 180.000
46.14389 159.000
46.16384 166.000
46.18379 161.000
46.20374 165.000
46.22368 152.000
46.24363 147.000
46.26358 154.000
46.28352 182.000
46.30347 164.000
46.32342 151.000
46.34336 200.000
46.36331 179.000
46.38326 180.000
46.40321 139.000
46.42315 153.000
46.44310 165.000
46.46305 175.000
46.48299 155.000
46.50294 175.000
46.52289 152.000
46.54283 159.000
46.56278 173.000
46.58273 148.000
46.60267 157.000
46.62262 155.000
46.64257 166.000
46.66252 148.000
46.68246 153.000
46.70241 151.000
46.72236 155.000
46.74230 129.000
46.76225 167.000
46.78220 132.000
46.80214 157.000
46.82209 157.000
46.84204 143.000
46.86199 151.000
46.88193 131.000
46.90188 148.000
46.92183 167.000
46.94177 141.000
46.96172 167.000
46.98167 174.000
47.00161 178.000
47.02156 160.000
47.04151 154.000
47.06146 174.000
47.08140 138.000
47.10135 149.000
47.12130 153.000
47.14124 164.000
47.16119 155.000
47.18114 137.000
47.20108 155.000
47.22103 139.000
47.24098 162.000
47.26092 157.000
47.28087 155.000
47.30082 143.000
47.32077 164.000
47.34071 160.000
47.36066 160.000
47.38061 152.000
47.40055 169.000
47.42050 142.000
47.44045 155.000
47.46039 128.000
47.48034 180.000
47.50029 149.000
47.52024 144.000
47.54018 147.000
47.56013 163.000
47.58008 160.000
47.60002 149.000
47.61997 173.000
47.63992 169.000
47.65986 158.000
47.67981 164.000
47.69976 161.000
47.71970 171.000
47.73965 180.000
47.75960 172.000
47.77955 170.000
47.79949 167.000
47.81944 168.000
47.83939 173.000
47.85933 160.000
47.87928 161.000
47.89923 153.000
47.91917 179.000
47.93912 151.000
47.95907 145.000
47.97902 183.000
47.99896 186.000
48.01891 159.000
48.03886 157.000
48.05880 171.000
48.07875 167.000
48.09870 173.000
48.11864 146.000
48.13859 169.000
48.15854 155.000
48.17848 166.000
48.19843 164.000
48.21838 147.000
48.23833 183.000
48.25827 157.000
48.27822 166.000
48.29817 163.000
48.31811 150.000
48.33806 144.000
48.35801 147.000
48.37795 166.000
48.39790 160.000
48.41785 157.000
48.43780 143.000
48.45774 188.000
48.47769 155.000
48.49764 163.000
48.51758 152.000
48.53753 180.000
48.55748 176.000
48.57742 159.000
48.59737 185.000
48.61732 191.000
48.63726 171.000
48.65721 208.000
48.67716 223.000
48.69711 234.000
48.71705 205.000
48.73700 184.000
48.75695 214.000
48.77689 207.000
48.79684 224.000
48.81679 193.000
48.83673 194.000
48.85668 177.000
48.87663 188.000
48.89658 169.000
48.91652 181.000
48.93647 171.000
48.95642 158.000
48.97636 159.000
48.99631 170.000
49.01626 171.000
49.03620 160.000
49.05615 160.000
49.07610 172.000
49.09605 180.000
49.11599 151.000
49.13594 167.000
49.15589 184.000
49.17583 170.000
49.19578 157.000
49.21573 187.000
49.23567 159.000
49.25562 167.000
49.27557 170.000
49.29551 171.000
49.31546 164.000
49.33541 177.000
49.35536 190.000
49.37530 167.000
49.39525 181.000
49.41520 209.000
49.43514 170.000
49.45509 161.000
49.47504 173.000
49.49498 169.000
49.51493 167.000
49.53488 185.000
49.55483 158.000
49.57477 157.000
49.59472 164.000
49.61467 182.000
49.63461 162.000
49.65456 141.000
49.67451 182.000
49.69445 136.000
49.71440 164.000
49.73435 173.000
49.75429 157.000
49.77424 151.000
49.79419 154.000
49.81414 164.000
49.83408 156.000
49.85403 138.000
49.87398 150.000
49.89392 147.000
49.91387 164.000
49.93382 156.000
49.95376 158.000
49.97371 150.000
49.99366 149.000
50.01361 140.000
50.03355 142.000
50.05350 166.000
50.07345 162.000
50.09339 158.000
50.11334 149.000
50.13329 144.000
50.15323 171.000
50.17318 138.000
50.19313 162.000
50.21307 133.000
50.23302 152.000
50.25297 142.000
50.27292 151.000
50.29286 153.000
50.31281 155.000
50.33276 144.000
50.35270 160.000
50.37265 154.000
50.39260 165.000
50.41254 161.000
50.43249 140.000
50.45244 157.000
50.47239 147.000
50.49233 149.000
50.51228 125.000
50.53223 148.000
50.55217 154.000
50.57212 143.000
50.59207 136.000
50.61201 161.000
50.63196 162.000
50.65191 167.000
50.67186 155.000
50.69180 136.000
50.71175 157.000
50.73170 141.000
50.75164 139.000
50.77159 130.000
50.79154 148.000
50.81148 138.000
50.83143 147.000
50.85138 154.000
50.87132 149.000
50.89127 160.000
50.91122 148.000
50.93117 137.000
50.95111 164.000
50.97106 168.000
50.99101 141.000
51.01095 148.000
51.03090 139.000
51.05085 134.000
51.07079 151.000
51.09074 171.000
51.11069 147.000
51.13064 142.000
51.15058 145.000
51.17053 180.000
51.19048 137.000
51.21042 153.000
51.23037 143.000
51.25032 148.000
51.27026 150.000
51.29021 151.000
51.31016 161.000
51.33010 150.000
51.35005 152.000
51.37000 158.000
51.38995 162.000
51.40989 149.000
51.42984 152.000
51.44979 148.000
51.46973 150.000
51.48968 164.000
51.50963 133.000
51.52957 134.000
51.54952 172.000
51.56947 148.000
51.58942 170.000
51.60936 158.000
51.62931 133.000
51.64926 151.000
51.66920 147.000
51.68915 137.000
51.70910 147.000
51.72904 146.000
51.74899 148.000
51.76894 139.000
51.78888 148.000
51.80883 148.000
51.82878 159.000
51.84873 152.000
51.86867 137.000
51.88862 149.000
51.90857 123.000
51.92851 148.000
51.94846 168.000
51.96841 166.000
51.98835 150.000
52.00830 156.000
52.02825 141.000
52.04820 164.000
52.06814 147.000
52.08809 154.000
52.10804 145.000
52.12798 158.000
52.14793 136.000
52.16788 192.000
52.18782 194.000
52.20777 150.000
52.22772 165.000
52.24767 150.000
52.26761 175.000
52.28756 165.000
52.30751 177.000
52.32745 136.000
52.34740 158.000
52.36735 175.000
52.38729 172.000
52.40724 176.000
52.42719 142.000
52.44713 172.000
52.46708 155.000
52.48703 149.000
52.50698 131.000
52.52692 147.000
52.54687 153.000
52.56682 146.000
52.58676 151.000
52.60671 147.000
52.62666 137.000
52.64660 127.000
52.66655 148.000
52.68650 140.000
52.70645 153.000
52.72639 180.000
52.74634 147.000
52.76629 160.000
52.78623 163.000
52.80618 165.000
52.82613 172.000
52.84607 161.000
52.86602 182.000
52.88597 181.000
52.90591 186.000
52.92586 164.000
52.94581 172.000
52.96576 187.000
52.98570 186.000
53.00565 196.000
53.02560 236.000
53.04554 251.000
53.06549 268.000
53.08544 325.000
53.10538 286.000
53.12533 305.000
53.14528 276.000
53.16523 309.000
53.18517 254.000
53.20512 289.000
53.22507 274.000
53.24501 259.000
53.26496 225.000
53.28491 209.000
53.30485 230.000
53.32480 215.000
53.34475 208.000
53.36469 172.000
53.38464 209.000
53.40459 174.000
53.42454 186.000
53.44448 170.000
53.46443 173.000
53.48438 159.000
53.50432 159.000
53.52427 157.000
53.54422 165.000
53.56416 167.000
53.58411 173.000
53.60406 156.000
53.62401 155.000
53.64395 146.000
53.66390 170.000
53.68385 166.000
53.70379 173.000
53.72374 203.000
53.74369 179.000
53.76363 198.000
53.78358 217.000
53.80353 215.000
53.82348 224.000
53.84342 211.000
53.86337 205.000
53.88332 209.000
53.90326 189.000
53.92321 202.000
53.94316 194.000
53.96310 178.000
53.98305 182.000
54.00300 209.000
54.02294 175.000
54.04289 170.000
54.06284 182.000
54.08279 153.000
54.10273 160.000
54.12268 165.000
54.14263 153.000
54.16257 174.000
54.18252 170.000
54.20247 166.000
54.22241 157.000
54.24236 166.000
54.26231 145.000
54.28226 142.000
54.30220 172.000
54.32215 166.000
54.34210 157.000
54.36204 139.000
54.38199 155.000
54.40194 159.000
54.42188 156.000
54.44183 154.000
54.46178 174.000
54.48172 166.000
54.50167 141.000
54.52162 158.000
54.54157 160.000
54.56151 175.000
54.58146 137.000
54.60141 168.000
54.62135 137.000
54.64130 188.000
54.66125 180.000
54.68119 134.000
54.70114 143.000
54.72109 193.000
54.74104 129.000
54.76098 146.000
54.78093 152.000
54.80088 147.000
54.82082 151.000
54.84077 158.000
54.86072 163.000
54.88066 142.000
54.90061 143.000
54.92056 159.000
54.94050 161.000
54.96045 146.000
54.98040 172.000
55.00035 151.000
55.02029 139.000
55.04024 134.000
55.06019 156.000
55.08013 121.000
55.10008 131.000
55.12003 147.000
55.13997 120.000
55.15992 154.000
55.17987 144.000
55.19982 161.000
55.21976 171.000
55.23971 138.000
55.25966 171.000
55.27960 157.000
55.29955 141.000
55.31950 131.000
55.33944 139.000
55.35939 161.000
55.37934 163.000
55.39929 146.000
55.41923 148.000
55.43918 162.000
55.45913 155.000
55.47907 151.000
55.49902 144.000
55.51897 164.000
55.53891 156.000
55.55886 141.000
55.57881 150.000
55.59875 150.000
55.61870 161.000
55.63865 152.000
55.65860 154.000
55.67854 159.000
55.69849 145.000
55.71844 145.000
55.73838 138.000
55.75833 156.000
55.77828 144.000
55.79822 152.000
55.81817 139.000
55.83812 164.000
55.85807 159.000
55.87801 129.000
55.89796 156.000
55.91791 147.000
55.93785 144.000
55.95780 145.000
55.97775 150.000
55.99769 142.000
56.01764 134.000
56.03759 150.000
56.05753 162.000
56.07748 157.000
56.09743 144.000
56.11738 135.000
56.13732 151.000
56.15727 161.000
56.17722 144.000
56.19716 164.000
56.21711 163.000
56.23706 144.000
56.25700 140.000
56.27695 158.000
56.29690 147.000
56.31685 154.000
56.33679 148.000
56.35674 171.000
56.37669 147.000
56.39663 132.000
56.41658 139.000
56.43653 154.000
56.45647 161.000
56.47642 144.000
56.49637 152.000
56.51631 172.000
56.53626 162.000
56.55621 144.000
56.57616 161.000
56.59610 163.000
56.61605 151.000
56.63600 159.000
56.65594 171.000
56.67589 145.000
56.69584 166.000
56.71578 159.000
56.73573 153.000
56.75568 143.000
56.77563 142.000
56.79557 154.000
56.81552 169.000
56.83547 174.000
56.85541 154.000
56.87536 163.000
56.89531 152.000
56.91525 155.000
56.93520 158.000
56.95515 160.000
56.97510 158.000
56.99504 192.000
57.01499 174.000
57.03494 155.000
57.05488 177.000
57.07483 170.000
57.09478 182.000
57.11472 199.000
57.13467 197.000
57.15462 179.000
57.17456 179.000
57.19451 199.000
57.21446 207.000
57.23441 214.000
57.25435 246.000
57.27430 248.000
57.29425 245.000
57.31419 306.000
57.33414 345.000
57.35409 330.000
57.37403 380.000
57.39398 356.000
57.41393 334.000
57.43388 325.000
57.45382 302.000
57.47377 335.000
57.49372 327.000
57.51366 368.000
57.53361 302.000
57.55356 296.000
57.57350 277.000
57.59345 305.000
57.61340 298.000
57.63334 228.000
57.65329 271.000
57.67324 284.000
57.69319 318.000
57.71313 293.000
57.73308 336.000
57.75303 365.000
57.77297 391.000
57.79292 386.000
57.81287 433.000
57.83281 445.000
57.85276 454.000
57.87271 416.000
57.89266 426.000
57.91260 401.000
57.93255 375.000
57.95250 367.000
57.97244 363.000
57.99239 349.000
58.01234 341.000
58.03228 330.000
58.05223 322.000
58.07218 245.000
58.09212 236.000
58.11207 222.000
58.13202 225.000
58.15197 221.000
58.17191 184.000
58.19186 203.000
58.21181 198.000
58.23175 172.000
58.25170 182.000
58.27165 197.000
58.29159 201.000
58.31154 177.000
58.33149 189.000
58.35144 181.000
58.37138 172.000
58.39133 172.000
58.41128 176.000
58.43122 162.000
58.45117 165.000
58.47112 175.000
58.49106 193.000
58.51101 191.000
58.53096 169.000
58.55090 188.000
58.57085 178.000
58.59080 188.000
58.61075 176.000
58.63069 151.000
58.65064 159.000
58.67059 180.000
58.69053 177.000
58.71048 171.000
58.73043 164.000
58.75037 149.000
58.77032 163.000
58.79027 179.000
58.81022 140.000
58.83016 170.000
58.85011 150.000
58.87006 155.000
58.89000 154.000
58.90995 172.000
58.92990 143.000
58.94984 165.000
58.96979 157.000
58.98974 172.000
59.00969 170.000
59.02963 162.000
59.04958 154.000
59.06953 170.000
59.08947 156.000
59.10942 159.000
59.12937 170.000
59.14931 162.000
59.16926 145.000
59.18921 181.000
59.20915 175.000
59.22910 161.000
59.24905 162.000
59.26900 160.000
59.28894 142.000
59.30889 170.000
59.32884 195.000
59.34878 166.000
59.36873 193.000
59.38868 175.000
59.40862 173.000
59.42857 180.000
59.44852 159.000
59.46847 172.000
59.48841 168.000
59.50836 196.000
59.52831 180.000
59.54825 182.000
59.56820 203.000
59.58815 188.000
59.60809 201.000
59.62804 212.000
59.64799 222.000
59.66793 210.000
59.68788 222.000
59.70783 242.000
59.72778 258.000
59.74772 240.000
59.76767 239.000
59.78762 216.000
59.80756 248.000
59.82751 245.000
59.84746 233.000
59.86740 222.000
59.88735 225.000
59.90730 230.000
59.92725 198.000
59.94719 216.000
59.96714 209.000
59.98709 193.000
60.00703 195.000
60.02698 193.000
60.04693 206.000
60.06687 178.000
60.08682 175.000
60.10677 176.000
60.12671 202.000
60.14666 166.000
60.16661 200.000
60.18656 153.000
60.20650 133.000
60.22645 157.000
60.24640 180.000
60.26634 168.000
60.28629 179.000
60.30624 176.000
60.32618 170.000
60.34613 158.000
60.36608 178.000
60.38603 170.000
60.40597 164.000
60.42592 156.000
60.44587 182.000
60.46581 160.000
60.48576 191.000
60.50571 169.000
60.52565 160.000
60.54560 170.000
60.56555 168.000
60.58550 163.000
60.60544 148.000
60.62539 145.000
60.64534 163.000
60.66528 170.000
60.68523 181.000
60.70518 191.000
60.72512 154.000
60.74507 175.000
60.76502 143.000
60.78496 170.000
60.80491 148.000
60.82486 183.000
60.84481 152.000
60.86475 153.000
60.88470 190.000
60.90465 168.000
60.92459 182.000
60.94454 155.000
60.96449 190.000
60.98443 156.000
61.00438 164.000
61.02433 170.000
61.04428 160.000
61.06422 157.000
61.08417 165.000
61.10412 195.000
61.12406 158.000
61.14401 180.000
61.16396 175.000
61.18390 186.000
61.20385 185.000
61.22380 194.000
61.24374 188.000
61.26369 192.000
61.28364 202.000
61.30359 190.000
61.32353 178.000
61.34348 232.000
61.36343 208.000
61.38337 208.000
61.40332 199.000
61.42327 182.000
61.44321 223.000
61.46316 231.000
61.48311 226.000
61.50306 259.000
61.52300 256.000
61.54295 261.000
61.56290 286.000
61.58284 314.000
61.60279 338.000
61.62274 378.000
61.64268 337.000
61.66263 398.000
61.68258 392.000
61.70252 395.000
61.72247 433.000
61.74242 362.000
61.76237 401.000
61.78231 341.000
61.80226 383.000
61.82221 402.000
61.84215 359.000
61.86210 351.000
61.88205 324.000
61.90199 358.000
61.92194 370.000
61.94189 337.000
61.96184 380.000
61.98178 347.000
62.00173 345.000
62.02168 379.000
62.04162 393.000
62.06157 384.000
62.08152 364.000
62.10146 408.000
62.12141 422.000
62.14136 379.000
62.16131 400.000
62.18125 422.000
62.20120 422.000
62.22115 425.000
62.24109 470.000
62.26104 465.000
62.28099 514.000
62.30093 483.000
62.32088 483.000
62.34083 598.000
62.36077 544.000
62.38072 568.000
62.40067 554.000
62.42062 559.000
62.44056 591.000
62.46051 585.000
62.48046 613.000
62.50040 538.000
62.52035 640.000
62.54030 571.000
62.56024 545.000
62.58019 572.000
62.60014 548.000
62.62009 537.000
62.64003 518.000
62.65998 547.000
62.67993 479.000
62.69987 457.000
62.71982 489.000
62.73977 424.000
62.75971 459.000
62.77966 431.000
62.79961 450.000
62.81955 432.000
62.83950 394.000
62.85945 409.000
62.87940 408.000
62.89934 374.000
62.91929 406.000
62.93924 417.000
62.95918 511.000
62.97913 519.000
62.99908 558.000
63.01902 550.000
63.03897 477.000
63.05892 402.000
63.07887 425.000
63.09881 427.000
63.11876 362.000
63.13871 364.000
63.15865 390.000
63.17860 395.000
63.19855 325.000
63.21849 305.000
63.23844 319.000
63.25839 268.000
63.27833 275.000
63.29828 253.000
63.31823 238.000
63.33818 240.000
63.35812 196.000
63.37807 198.000
63.39802 196.000
63.41796 192.000
63.43791 193.000
63.45786 202.000
63.47780 196.000
63.49775 190.000
63.51770 176.000
63.53765 160.000
63.55759 189.000
63.57754 168.000
63.59749 183.000
63.61743 170.000
63.63738 190.000
63.65733 182.000
63.67727 162.000
63.69722 177.000
63.71717 162.000
63.73712 177.000
63.75706 162.000
63.77701 182.000
63.79696 181.000
63.81690 185.000
63.83685 153.000
63.85680 194.000
63.87674 193.000
63.89669 197.000
63.91664 179.000
63.93658 167.000
63.95653 178.000
63.97648 168.000
63.99643 189.000
64.01637 175.000
64.03632 189.000
64.05627 163.000
64.07621 184.000
64.09616 186.000
64.11611 192.000
64.13605 202.000
64.15600 185.000
64.17595 163.000
64.19590 182.000
64.21584 185.000
64.23579 162.000
64.25574 218.000
64.27568 172.000
64.29563 197.000
64.31558 163.000
64.33552 167.000
64.35547 184.000
64.37542 165.000
64.39536 178.000
64.41531 154.000
64.43526 150.000
64.45521 187.000
64.47515 188.000
64.49510 194.000
64.51505 181.000
64.53499 174.000
64.55494 178.000
64.57489 200.000
64.59483 219.000
64.61478 180.000
64.63473 212.000
64.65468 185.000
64.67462 188.000
64.69457 187.000
64.71452 206.000
64.73446 213.000
64.75441 197.000
64.77436 199.000
64.79430 227.000
64.81425 210.000
64.83420 224.000
64.85414 218.000
64.87409 222.000
64.89404 236.000
64.91399 219.000
64.93393 186.000
64.95388 215.000
64.97383 211.000
64.99377 195.000
65.01372 205.000
65.03367 214.000
65.05361 177.000
65.07356 183.000
65.09351 196.000
65.11346 173.000
65.13340 183.000
65.15335 201.000
65.17330 176.000
65.19324 185.000
65.21319 186.000
65.23314 170.000
65.25308 173.000
65.27303 180.000
65.29298 184.000
65.31293 198.000
65.33287 150.000
65.35282 162.000
65.37277 177.000
65.39271 169.000
65.41266 179.000
65.43261 169.000
65.45255 196.000
65.47250 158.000
65.49245 174.000
65.51239 214.000
65.53234 155.000
65.55229 180.000
65.57224 164.000
65.59218 166.000
65.61213 161.000
65.63208 163.000
65.65202 197.000
65.67197 176.000
65.69192 185.000
65.71186 175.000
65.73181 167.000
65.75176 176.000
65.77171 184.000
65.79165 186.000
65.81160 193.000
65.83155 170.000
65.85149 155.000
65.87144 184.000
65.89139 155.000
65.91133 175.000
65.93128 183.000
65.95123 186.000
65.97117 172.000
65.99112 160.000
66.01107 165.000
66.03102 185.000
66.05096 159.000
66.07091 180.000
66.09086 168.000
66.11080 162.000
66.13075 162.000
66.15070 182.000
66.17064 171.000
66.19059 146.000
66.21054 179.000
66.23049 173.000
66.25043 170.000
66.27038 152.000
66.29033 188.000
66.31027 159.000
66.33022 159.000
66.35017 164.000
66.37011 170.000
66.39006 178.000
66.41001 165.000
66.42995 186.000
66.44990 154.000
66.46985 166.000
66.48980 156.000
66.50974 188.000
66.52969 191.000
66.54964 169.000
66.56958 173.000
66.58953 177.000
66.60948 185.000
66.62942 145.000
66.64937 157.000
66.66932 153.000
66.68927 143.000
66.70921 137.000
66.72916 153.000
66.74911 165.000
66.76905 164.000
66.78900 138.000
66.80895 162.000
66.82889 143.000
66.84884 169.000
66.86879 153.000
66.88874 171.000
66.90868 148.000
66.92863 144.000
66.94858 129.000
66.96852 151.000
66.98847 151.000
67.00842 148.000
67.02836 156.000
67.04831 179.000
67.06826 161.000
67.08820 150.000
67.10815 160.000
67.12810 147.000
67.14805 147.000
67.16799 144.000
67.18794 166.000
67.20789 160.000
67.22783 140.000
67.24778 171.000
67.26773 156.000
67.28767 149.000
67.30762 151.000
67.32757 163.000
67.34752 162.000
67.36746 150.000
67.38741 159.000
67.40736 156.000
67.42730 152.000
67.44725 155.000
67.46720 141.000
67.48714 147.000
67.50709 135.000
67.52704 146.000
67.54698 175.000
67.56693 148.000
67.58688 168.000
67.60683 149.000
67.62677 119.000
67.64672 150.000
67.66667 156.000
67.68661 155.000
67.70656 146.000
67.72651 152.000
67.74645 168.000
67.76640 167.000
67.78635 162.000
67.80630 162.000
67.82624 146.000
67.84619 161.000
67.86614 146.000
67.88608 171.000
67.90603 164.000
67.92598 163.000
67.94592 177.000
67.96587 195.000
67.98582 150.000
68.00576 180.000
68.02571 155.000
68.04566 183.000
68.06561 177.000
68.08555 190.000
68.10550 195.000
68.12545 189.000
68.14539 192.000
68.16534 206.000
68.18529 188.000
68.20523 175.000
68.22518 213.000
68.24513 208.000
68.26508 191.000
68.28502 209.000
68.30497 204.000
68.32492 219.000
68.34486 202.000
68.36481 217.000
68.38476 196.000
68.40470 188.000
68.42465 199.000
68.44460 186.000
68.46455 211.000
68.48449 187.000
68.50444 170.000
68.52439 167.000
68.54433 208.000
68.56428 170.000
68.58423 177.000
68.60417 180.000
68.62412 184.000
68.64407 161.000
68.66401 163.000
68.68396 160.000
68.70391 171.000
68.72386 152.000
68.74380 151.000
68.76375 151.000
68.78370 167.000
68.80364 138.000
68.82359 163.000
68.84354 183.000
68.86348 152.000
68.88343 143.000
68.90338 165.000
68.92333 172.000
68.94327 175.000
68.96322 159.000
68.98317 144.000
69.00311 154.000
69.02306 163.000
69.04301 139.000
69.06295 164.000
69.08290 168.000
69.10285 172.000
69.12279 148.000
69.14274 177.000
69.16269 132.000
69.18264 173.000
69.20258 182.000
69.22253 162.000
69.24248 155.000
69.26242 155.000
69.28237 144.000
69.30232 147.000
69.32226 136.000
69.34221 168.000
69.36216 170.000
69.38211 136.000
69.40205 159.000
69.42200 165.000
69.44195 153.000
69.46189 154.000
69.48184 161.000
69.50179 155.000
69.52173 175.000
69.54168 172.000
69.56163 159.000
69.58157 158.000
69.60152 180.000
69.62147 151.000
69.64142 168.000
69.66136 152.000
69.68131 156.000
69.70126 150.000
69.72120 162.000
69.74115 169.000
69.76110 169.000
69.78104 172.000
69.80099 148.000
69.82094 149.000
69.84089 181.000
69.86083 176.000
69.88078 158.000
69.90073 174.000
69.92067 129.000
69.94062 167.000
69.96057 166.000
69.98051 154.000
70.00046 162.000
70.02041 153.000
70.04035 128.000
70.06030 153.000
70.08025 127.000
70.10020 137.000
70.12014 173.000
70.14009 147.000
70.16004 144.000
70.17998 167.000
70.19993 179.000
70.21988 143.000
70.23982 149.000
70.25977 196.000
70.27972 154.000
70.29967 125.000
70.31961 167.000
70.33956 166.000
70.35951 139.000
70.37945 160.000
70.39940 142.000
70.41935 150.000
70.43929 157.000
70.45924 159.000
70.47919 147.000
70.49914 142.000
70.51908 136.000
70.53903 146.000
70.55898 169.000
70.57892 138.000
70.59887 145.000
70.61882 119.000
70.63876 130.000
70.65871 176.000
70.67866 146.000
70.69860 161.000
70.71855 152.000
70.73850 145.000
70.75845 148.000
70.77839 144.000
70.79834 133.000
70.81829 157.000
70.83823 150.000
70.85818 155.000
70.87813 129.000
70.89807 142.000
70.91802 166.000
70.93797 154.000
70.95792 161.000
70.97786 144.000
70.99781 133.000
71.01776 144.000
71.03770 161.000
71.05765 164.000
71.07760 138.000
71.09754 172.000
71.11749 157.000
71.13744 169.000
71.15738 171.000
71.17733 154.000
71.19728 159.000
71.21723 175.000
71.23717 186.000
71.25712 173.000
71.27707 172.000
71.29701 167.000
71.31696 185.000
71.33691 183.000
71.35685 168.000
71.37680 160.000
71.39675 190.000
71.41670 156.000
71.43664 158.000
71.45659 186.000
71.47654 160.000
71.49648 177.000
71.51643 194.000
71.53638 174.000
71.55632 159.000
71.57627 167.000
71.59622 195.000
71.61616 160.000
71.63611 172.000
71.65606 161.000
71.67601 192.000
71.69595 169.000
71.71590 149.000
71.73585 166.000
71.75579 186.000
71.77574 163.000
71.79569 156.000
71.81563 176.000
71.83558 165.000
71.85553 177.000
71.87548 168.000
71.89542 172.000
71.91537 145.000
71.93532 152.000
71.95526 182.000
71.97521 152.000
71.99516 134.000
72.01510 167.000
72.03505 194.000
72.05500 166.000
72.07495 190.000
72.09489 154.000
72.11484 185.000
72.13479 180.000
72.15473 174.000
72.17468 195.000
72.19463 207.000
72.21457 159.000
72.23452 197.000
72.25447 177.000
72.27441 234.000
72.29436 214.000
72.31431 197.000
72.33426 167.000
72.35420 201.000
72.37415 216.000
72.39410 217.000
72.41404 205.000
72.43399 233.000
72.45394 206.000
72.47388 210.000
72.49383 216.000
72.51378 230.000
72.53373 210.000
72.55367 195.000
72.57362 217.000
72.59357 203.000
72.61351 173.000
72.63346 198.000
72.65341 181.000
72.67335 191.000
72.69330 184.000
72.71325 223.000
72.73319 193.000
72.75314 195.000
72.77309 215.000
72.79304 195.000
72.81298 185.000
72.83293 187.000
72.85288 201.000
72.87282 209.000
72.89277 181.000
72.91272 208.000
72.93266 210.000
72.95261 223.000
72.97256 181.000
72.99251 199.000
73.01245 224.000
73.03240 186.000
73.05235 189.000
73.07229 204.000
73.09224 209.000
73.11219 196.000
73.13213 207.000
73.15208 200.000
73.17203 194.000
73.19197 162.000
73.21192 183.000
73.23187 202.000
73.25182 202.000
73.27176 179.000
73.29171 195.000
73.31166 178.000
73.33160 205.000
73.35155 179.000
73.37150 202.000
73.39144 170.000
73.41139 186.000
73.43134 198.000
73.45129 175.000
73.47123 182.000
73.49118 184.000
73.51113 196.000
73.53107 158.000
73.55102 175.000
73.57097 167.000
73.59091 216.000
73.61086 205.000
73.63081 197.000
73.65076 178.000
73.67070 167.000
73.69065 187.000
73.71060 179.000
73.73054 221.000
73.75049 206.000
73.77044 206.000
73.79038 211.000
73.81033 198.000
73.83028 208.000
73.85022 207.000
73.87017 196.000
73.89012 209.000
73.91007 211.000
73.93001 228.000
73.94996 212.000
73.96991 206.000
73.98985 241.000
74.00980 203.000
74.02975 216.000
74.04969 228.000
74.06964 205.000
74.08959 206.000
74.10954 213.000
74.12948 203.000
74.14943 216.000
74.16938 202.000
74.18932 206.000
74.20927 186.000
74.22922 213.000
74.24916 213.000
74.26911 234.000
74.28906 219.000
74.30900 207.000
74.32895 201.000
74.34890 201.000
74.36885 206.000
74.38879 231.000
74.40874 211.000
74.42869 240.000
74.44863 217.000
74.46858 218.000
74.48853 222.000
74.50847 242.000
74.52842 270.000
74.54837 226.000
74.56832 233.000
74.58826 240.000
74.60821 231.000
74.62816 236.000
74.64810 238.000
74.66805 255.000
74.68800 252.000
74.70794 243.000
74.72789 253.000
74.74784 243.000
74.76778 286.000
74.78773 251.000
74.80768 267.000
74.82763 277.000
74.84757 282.000
74.86752 263.000
74.88747 271.000
74.90741 237.000
74.92736 267.000
74.94731 283.000
74.96725 265.000
74.98720 239.000
75.00715 257.000
75.02710 261.000
75.04704 265.000
75.06699 232.000
75.08694 246.000
75.10688 249.000
75.12683 247.000
75.14678 251.000
75.16672 264.000
75.18667 218.000
75.20662 245.000
75.22657 239.000
75.24651 228.000
75.26646 220.000
75.28641 235.000
75.30635 243.000
75.32630 211.000
75.34625 213.000
75.36619 216.000
75.38614 182.000
75.40609 196.000
75.42603 203.000
75.44598 162.000
75.46593 199.000
75.48588 207.000
75.50582 189.000
75.52577 206.000
75.54572 178.000
75.56566 178.000
75.58561 176.000
75.60556 161.000
75.62550 187.000
75.64545 170.000
75.66540 192.000
75.68535 159.000
75.70529 189.000
75.72524 191.000
75.74519 158.000
75.76513 158.000
75.78508 165.000
75.80503 174.000
75.82497 175.000
75.84492 170.000
75.86487 142.000
75.88481 181.000
75.90476 159.000
75.92471 183.000
75.94466 164.000
75.96460 170.000
75.98455 163.000
76.00450 154.000
76.02444 140.000
76.04439 145.000
76.06434 148.000
76.08428 178.000
76.10423 163.000
76.12418 154.000
76.14413 180.000
76.16407 156.000
76.18402 160.000
76.20397 142.000
76.22391 144.000
76.24386 161.000
76.26381 137.000
76.28375 156.000
76.30370 164.000
76.32365 149.000
76.34359 146.000
76.36354 148.000
76.38349 125.000
76.40344 162.000
76.42338 148.000
76.44333 159.000
76.46328 159.000
76.48322 143.000
76.50317 156.000
76.52312 158.000
76.54306 169.000
76.56301 147.000
76.58296 154.000
76.60291 156.000
76.62285 161.000
76.64280 174.000
76.66275 148.000
76.68269 149.000
76.70264 151.000
76.72259 151.000
76.74253 163.000
76.76248 195.000
76.78243 152.000
76.80238 139.000
76.82232 158.000
76.84227 165.000
76.86222 144.000
76.88216 152.000
76.90211 170.000
76.92206 164.000
76.94200 175.000
76.96195 179.000
76.98190 202.000
77.00184 162.000
77.02179 177.000
77.04174 159.000
77.06169 159.000
77.08163 154.000
77.10158 190.000
77.12153 177.000
77.14147 165.000
77.16142 162.000
77.18137 186.000
77.20131 198.000
77.22126 187.000
77.24121 193.000
77.26116 215.000
77.28110 213.000
77.30105 202.000
77.32100 206.000
77.34094 230.000
77.36089 218.000
77.38084 242.000
77.40078 251.000
77.42073 234.000
77.44068 216.000
77.46062 227.000
77.48057 230.000
77.50052 210.000
77.52047 212.000
77.54041 216.000
77.56036 221.000
77.58031 221.000
77.60025 231.000
77.62020 238.000
77.64015 243.000
77.66009 201.000
77.68004 233.000
77.69999 211.000
77.71994 205.000
77.73988 199.000
77.75983 201.000
77.77978 203.000
77.79972 194.000
77.81967 181.000
77.83962 168.000
77.85956 203.000
77.87951 176.000
77.89946 195.000
77.91940 196.000
77.93935 200.000
77.95930 198.000
77.97925 176.000
77.99919 164.000
78.01914 164.000
78.03909 167.000
78.05903 171.000
78.07898 189.000
78.09893 183.000
78.11887 154.000
78.13882 162.000
78.15877 157.000
78.17872 150.000
78.19866 193.000
78.21861 151.000
78.23856 184.000
78.25850 186.000
78.27845 170.000
78.29840 167.000
78.31834 181.000
78.33829 174.000
78.35824 194.000
78.37819 167.000
78.39813 159.000
78.41808 190.000
78.43803 169.000
78.45797 177.000
78.47792 186.000
78.49787 178.000
78.51781 181.000
78.53776 199.000
78.55771 196.000
78.57765 209.000
78.59760 188.000
78.61755 206.000
78.63750 208.000
78.65744 195.000
78.67739 214.000
78.69734 224.000
78.71728 231.000
78.73723 200.000
78.75718 215.000
78.77712 215.000
78.79707 226.000
78.81702 205.000
78.83697 251.000
78.85691 221.000
78.87686 216.000
78.89681 241.000
78.91675 236.000
78.93670 236.000
78.95665 227.000
78.97659 192.000
78.99654 218.000
79.01649 247.000
79.03643 231.000
79.05638 190.000
79.07633 249.000
79.09628 194.000
79.11622 187.000
79.13617 200.000
79.15612 221.000
79.17606 217.000
79.19601 202.000
79.21596 220.000
79.23590 217.000
79.25585 195.000
79.27580 199.000
79.29575 177.000
79.31569 188.000
79.33564 179.000
79.35559 191.000
79.37553 195.000
79.39548 173.000
79.41543 173.000
79.43537 170.000
79.45532 134.000
79.47527 172.000
79.49521 173.000
79.51516 169.000
79.53511 167.000
79.55506 149.000
79.57500 167.000
79.59495 189.000
79.61490 173.000
79.63484 192.000
79.65479 165.000
79.67474 151.000
79.69468 148.000
79.71463 162.000
79.73458 172.000
79.75453 153.000
79.77447 140.000
79.79442 170.000
79.81437 176.000
79.83431 146.000
79.85426 145.000
79.87421 156.000
79.89415 175.000
79.91410 156.000
79.93405 154.000
79.95399 155.000
79.97394 162.000
79.99389 158.000
80.01384 168.000
80.03378 168.000
80.05373 145.000
80.07368 173.000
80.09362 170.000
80.11357 171.000
80.13352 151.000
80.15346 157.000
80.17341 165.000
80.19336 179.000
80.21331 183.000
80.23325 141.000
80.25320 148.000
80.27315 148.000
80.29309 146.000
80.31304 160.000
80.33299 146.000
80.35293 157.000
80.37288 139.000
80.39283 152.000
80.41278 168.000
80.43272 167.000
80.45267 140.000
80.47262 156.000
80.49256 148.000
80.51251 144.000
80.53246 160.000
80.55240 123.000
80.57235 156.000
80.59230 151.000
80.61224 142.000
80.63219 144.000
80.65214 150.000
80.67209 139.000
80.69203 165.000
80.71198 165.000
80.73193 115.000
80.75187 176.000
80.77182 140.000
80.79177 129.000
80.81171 134.000
80.83166 140.000
80.85161 143.000
80.87156 127.000
80.89150 167.000
80.91145 152.000
80.93140 144.000
80.95134 152.000
80.97129 144.000
80.99124 156.000
81.01118 159.000
81.03113 151.000
81.05108 167.000
81.07102 134.000
81.09097 149.000
81.11092 142.000
81.13087 159.000
81.15081 155.000
81.17076 169.000
81.19071 135.000
81.21065 163.000
81.23060 144.000
81.25055 153.000
81.27049 141.000
81.29044 144.000
81.31039 156.000
81.33034 149.000
81.35028 141.000
81.37023 155.000
81.39018 133.000
81.41012 165.000
81.43007 148.000
81.45002 138.000
81.46996 155.000
81.48991 144.000
81.50986 127.000
81.52980 169.000
81.54975 136.000
81.56970 142.000
81.58965 135.000
81.60959 151.000
81.62954 132.000
81.64949 156.000
81.66943 137.000
81.68938 146.000
81.70933 141.000
81.72927 141.000
81.74922 140.000
81.76917 152.000
81.78912 158.000
81.80906 138.000
81.82901 153.000
81.84896 149.000
81.86890 152.000
81.88885 153.000
81.90880 140.000
81.92874 129.000
81.94869 153.000
81.96864 177.000
81.98859 144.000
82.00853 148.000
82.02848 145.000
82.04843 139.000
82.06837 148.000
82.08832 134.000
82.10827 144.000
82.12821 156.000
82.14816 150.000
82.16811 135.000
82.18805 153.000
82.20800 129.000
82.22795 149.000
82.24790 155.000
82.26784 132.000
82.28779 149.000
82.30774 163.000
82.32768 161.000
82.34763 150.000
82.36758 170.000
82.38752 162.000
82.40747 173.000
82.42742 136.000
82.44737 159.000
82.46731 154.000
82.48726 151.000
82.50721 150.000
82.52715 160.000
82.54710 155.000
82.56705 149.000
82.58699 166.000
82.60694 178.000
82.62689 152.000
82.64683 148.000
82.66678 172.000
82.68673 155.000
82.70668 160.000
82.72662 126.000
82.74657 140.000
82.76652 145.000
82.78646 158.000
82.80641 157.000
82.82636 157.000
82.84630 159.000
82.86625 158.000
82.88620 124.000
82.90615 145.000
82.92609 145.000
82.94604 128.000
82.96599 151.000
82.98593 152.000
83.00588 160.000
83.02583 141.000
83.04577 152.000
83.06572 141.000
83.08567 145.000
83.10561 139.000
83.12556 147.000
83.14551 127.000
83.16546 161.000
83.18540 153.000
83.20535 127.000
83.22530 146.000
83.24524 137.000
83.26519 162.000
83.28514 134.000
83.30508 159.000
83.32503 148.000
83.34498 143.000
83.36493 151.000
83.38487 131.000
83.40482 139.000
83.42477 134.000
83.44471 136.000
83.46466 132.000
83.48461 142.000
83.50455 141.000
83.52450 146.000
83.54445 118.000
83.56440 135.000
83.58434 133.000
83.60429 141.000
83.62424 155.000
83.64418 146.000
83.66413 135.000
83.68408 162.000
83.70402 137.000
83.72397 163.000
83.74392 145.000
83.76386 127.000
83.78381 170.000
83.80376 155.000
83.82371 147.000
83.84365 140.000
83.86360 133.000
83.88355 129.000
83.90349 153.000
83.92344 123.000
83.94339 144.000
83.96333 147.000
83.98328 135.000
84.00323 153.000
84.02318 148.000
84.04312 169.000
84.06307 129.000
84.08302 127.000
84.10296 149.000
84.12291 143.000
84.14286 144.000
84.16280 156.000
84.18275 145.000
84.20270 138.000
84.22264 131.000
84.24259 138.000
84.26254 150.000
84.28249 141.000
84.30243 164.000
84.32238 162.000
84.34233 180.000
84.36227 152.000
84.38222 177.000
84.40217 133.000
84.42211 150.000
84.44206 156.000
84.46201 170.000
84.48196 138.000
84.50190 139.000
84.52185 141.000
84.54180 154.000
84.56174 158.000
84.58169 175.000
84.60164 151.000
84.62158 151.000
84.64153 159.000
84.66148 139.000
84.68142 149.000
84.70137 134.000
84.72132 161.000
84.74127 150.000
84.76121 152.000
84.78116 145.000
84.80111 148.000
84.82105 150.000
84.84100 151.000
84.86095 133.000
84.88089 155.000
84.90084 131.000
84.92079 145.000
84.94074 121.000
84.96068 160.000
84.98063 160.000
85.00058 131.000
85.02052 165.000
85.04047 155.000
85.06042 168.000
85.08036 166.000
85.10031 140.000
85.12026 156.000
85.14021 131.000
85.16015 146.000
85.18010 136.000
85.20005 153.000
85.21999 119.000
85.23994 136.000
85.25989 159.000
85.27983 163.000
85.29978 149.000
85.31973 135.000
85.33967 141.000
85.35962 153.000
85.37957 140.000
85.39952 156.000
85.41946 153.000
85.43941 144.000
85.45936 140.000
85.47930 153.000
85.49925 155.000
85.51920 120.000
85.53914 120.000
85.55909 145.000
85.57904 157.000
85.59899 139.000
85.61893 133.000
85.63888 149.000
85.65883 142.000
85.67877 129.000
85.69872 152.000
85.71867 153.000
85.73861 136.000
85.75856 137.000
85.77851 133.000
85.79845 160.000
85.81840 150.000
85.83835 121.000
85.85830 159.000
85.87824 158.000
85.89819 148.000
85.91814 164.000
85.93808 146.000
85.95803 161.000
85.97798 158.000
85.99792 119.000
86.01787 150.000
86.03782 161.000
86.05777 126.000
86.07771 167.000
86.09766 139.000
86.11761 178.000
86.13755 151.000
86.15750 171.000
86.17745 137.000
86.19739 156.000
86.21734 132.000
86.23729 139.000
86.25723 157.000
86.27718 149.000
86.29713 170.000
86.31708 165.000
86.33702 174.000
86.35697 146.000
86.37692 172.000
86.39686 133.000
86.41681 170.000
86.43676 157.000
86.45670 179.000
86.47665 150.000
86.49660 159.000
86.51655 154.000
86.53649 158.000
86.55644 162.000
86.57639 166.000
86.59633 143.000
86.61628 156.000
86.63623 168.000
86.65617 171.000
86.67612 150.000
86.69607 167.000
86.71602 155.000
86.73596 148.000
86.75591 163.000
86.77586 150.000
86.79580 139.000
86.81575 151.000
86.83570 160.000
86.85564 145.000
86.87559 166.000
86.89554 144.000
86.91548 156.000
86.93543 138.000
86.95538 154.000
86.97533 173.000
86.99527 147.000
87.01522 152.000
87.03517 162.000
87.05511 144.000
87.07506 161.000
87.09501 181.000
87.11495 156.000
87.13490 137.000
87.15485 160.000
87.17480 141.000
87.19474 139.000
87.21469 177.000
87.23464 163.000
87.25458 163.000
87.27453 160.000
87.29448 162.000
87.31442 155.000
87.33437 166.000
87.35432 186.000
87.37426 180.000
87.39421 178.000
87.41416 144.000
87.43411 160.000
87.45405 173.000
87.47400 179.000
87.49395 166.000
87.51389 136.000
87.53384 160.000
87.55379 138.000
87.57373 157.000
87.59368 156.000
87.61363 162.000
87.63358 145.000
87.65352 139.000
87.67347 158.000
87.69342 164.000
87.71336 161.000
87.73331 150.000
87.75326 175.000
87.77320 158.000
87.79315 147.000
87.81310 138.000
87.83304 138.000
87.85299 154.000
87.87294 125.000
87.89289 166.000
87.91283 145.000
87.93278 162.000
87.95273 153.000
87.97267 135.000
87.99262 159.000
88.01257 130.000
88.03251 154.000
88.05246 143.000
88.07241 122.000
88.09236 154.000
88.11230 163.000
88.13225 153.000
88.15220 148.000
88.17214 138.000
88.19209 145.000
88.21204 159.000
88.23198 142.000
88.25193 148.000
88.27188 129.000
88.29183 139.000
88.31177 131.000
88.33172 127.000
88.35167 137.000
88.37161 138.000
88.39156 167.000
88.41151 132.000
88.43145 155.000
88.45140 142.000
88.47135 134.000
88.49129 137.000
88.51124 145.000
88.53119 153.000
88.55114 163.000
88.57108 151.000
88.59103 119.000
88.61098 138.000
88.63092 170.000
88.65087 135.000
88.67082 156.000
88.69076 137.000
88.71071 158.000
88.73066 160.000
88.75061 140.000
88.77055 123.000
88.79050 134.000
88.81045 119.000
88.83039 140.000
88.85034 148.000
88.87029 134.000
88.89023 125.000
88.91018 164.000
88.93013 144.000
88.95007 147.000
88.97002 150.000
88.98997 144.000
89.00992 167.000
89.02986 146.000
89.04981 134.000
89.06976 147.000
89.08970 156.000
89.10965 129.000
89.12960 144.000
89.14954 126.000
89.16949 145.000
89.18944 132.000
89.20939 135.000
89.22933 139.000
89.24928 155.000
89.26923 145.000
89.28917 170.000
89.30912 150.000
89.32907 136.000
89.34901 130.000
89.36896 146.000
89.38891 136.000
89.40885 149.000
89.42880 138.000
89.44875 132.000
89.46870 149.000
89.48864 149.000
89.50859 157.000
89.52854 163.000
89.54848 128.000
89.56843 153.000
89.58838 158.000
89.60832 153.000
89.62827 161.000
89.64822 134.000
89.66817 149.000
89.68811 149.000
89.70806 148.000
89.72801 133.000
89.74795 155.000
89.76790 150.000
89.78785 141.000
89.80779 130.000
89.82774 154.000
89.84769 152.000
89.86764 185.000
89.88758 159.000
89.90753 178.000
89.92748 171.000
89.94742 160.000
89.96737 163.000
89.98732 173.000
90.00726 171.000
