10.00000 263.000
10.01995 251.000
10.03989 287.000
10.05984 246.000
10.07979 260.000
10.09973 244.000
10.11968 235.000
10.13963 272.000
10.15958 244.000
10.17952 245.000
10.19947 266.000
10.21942 251.000
10.23936 252.000
10.25931 218.000
10.27926 274.000
10.29920 258.000
10.31915 249.000
10.33910 259.000
10.35905 264.000
10.37899 242.000
10.39894 250.000
10.41889 249.000
10.43883 258.000
10.45878 257.000
10.47873 276.000
10.49867 268.000
10.51862 280.000
10.53857 239.000
10.55851 266.000
10.57846 283.000
10.59841 253.000
10.61836 271.000
10.63830 259.000
10.65825 260.000
10.67820 251.000
10.69814 263.000
10.71809 264.000
10.73804 258.000
10.75798 268.000
10.77793 252.000
10.79788 298.000
10.81783 280.000
10.83777 258.000
10.85772 268.000
10.87767 285.000
10.89761 252.000
10.91756 261.000
10.93751 276.000
10.95745 291.000
10.97740 258.000
10.99735 249.000
11.01730 280.000
11.03724 266.000
11.05719 266.000
11.07714 274.000
11.09708 244.000
11.11703 270.000
11.13698 263.000
11.15692 223.000
11.17687 278.000
11.19682 257.000
11.21676 269.000
11.23671 294.000
11.25666 257.000
11.27661 269.000
11.29655 267.000
11.31650 243.000
11.33645 251.000
11.35639 263.000
11.37634 272.000
11.39629 277.000
11.41623 276.000
11.43618 236.000
11.45613 303.000
11.47608 264.000
11.49602 253.000
11.51597 264.000
11.53592 267.000
11.55586 298.000
11.57581 279.000
11.59576 279.000
11.61570 272.000
11.63565 259.000
11.65560 291.000
11.67554 258.000
11.69549 279.000
11.71544 260.000
11.73539 264.000
11.75533 242.000
11.77528 254.000
11.79523 271.000
11.81517 287.000
11.83512 303.000
11.85507 272.000
11.87501 281.000
11.89496 250.000
11.91491 278.000
11.93486 292.000
11.95480 308.000
11.97475 299.000
11.99470 255.000
12.01464 277.000
12.03459 268.000
12.05454 280.000
12.07448 253.000
12.09443 279.000
12.11438 281.000
12.13432 261.000
12.15427 255.000
12.17422 286.000
12.19417 304.000
12.21411 264.000
12.23406 271.000
12.25401 289.000
12.27395 291.000
12.29390 320.000
12.31385 309.000
12.33379 262.000
12.35374 289.000
12.37369 262.000
12.39364 264.000
12.41358 308.000
12.43353 288.000
12.45348 294.000
12.47342 276.000
12.49337 290.000
12.51332 273.000
12.53326 289.000
12.55321 305.000
12.57316 287.000
12.59311 310.000
12.61305 333.000
12.63300 290.000
12.65295 290.000
12.67289 285.000
12.69284 282.000
12.71279 277.000
12.73273 292.000
12.75268 279.000
12.77263 270.000
12.79257 294.000
12.81252 276.000
12.83247 259.000
12.85242 302.000
12.87236 305.000
12.89231 268.000
12.91226 285.000
12.93220 287.000
12.95215 299.000
12.97210 260.000
12.99204 312.000
13.01199 311.000
13.03194 299.000
13.05189 270.000
13.07183 291.000
13.09178 306.000
13.11173 291.000
13.13167 288.000
13.15162 288.000
13.17157 298.000
13.19151 288.000
13.21146 289.000
13.23141 259.000
13.25135 299.000
13.27130 292.000
13.29125 301.000
13.31120 299.000
13.33114 283.000
13.35109 304.000
13.37104 276.000
13.39098 296.000
13.41093 270.000
13.43088 273.000
13.45082 246.000
13.47077 303.000
13.49072 288.000
13.51067 292.000
13.53061 300.000
13.55056 283.000
13.57051 303.000
13.59045 309.000
13.61040 303.000
13.63035 305.000
13.65029 274.000
13.67024 287.000
13.69019 286.000
13.71013 277.000
13.73008 306.000
13.75003 294.000
13.76998 269.000
13.78992 286.000
13.80987 319.000
13.82982 300.000
13.84976 272.000
13.86971 282.000
13.88966 309.000
13.90960 279.000
13.92955 288.000
13.94950 297.000
13.96945 267.000
13.98939 297.000
14.00934 304.000
14.02929 287.000
14.04923 321.000
14.06918 289.000
14.08913 290.000
14.10907 266.000
14.12902 294.000
14.14897 300.000
14.16892 293.000
14.18886 300.000
14.20881 306.000
14.22876 305.000
14.24870 268.000
14.26865 303.000
14.28860 299.000
14.30854 276.000
14.32849 278.000
14.34844 269.000
14.36838 264.000
14.38833 269.000
14.40828 287.000
14.42823 284.000
14.44817 317.000
14.46812 323.000
14.48807 287.000
14.50801 316.000
14.52796 288.000
14.54791 295.000
14.56785 305.000
14.58780 309.000
14.60775 285.000
14.62770 286.000
14.64764 273.000
14.66759 300.000
14.68754 282.000
14.70748 309.000
14.72743 289.000
14.74738 267.000
14.76732 324.000
14.78727 321.000
14.80722 286.000
14.82716 321.000
14.84711 316.000
14.86706 340.000
14.88701 282.000
14.90695 298.000
14.92690 304.000
14.94685 291.000
14.96679 308.000
14.98674 290.000
15.00669 309.000
15.02663 285.000
15.04658 316.000
15.06653 297.000
15.08648 321.000
15.10642 335.000
15.12637 329.000
15.14632 314.000
15.16626 273.000
15.18621 356.000
15.20616 313.000
15.22610 295.000
15.24605 306.000
15.26600 319.000
15.28594 300.000
15.30589 322.000
15.32584 314.000
15.34579 317.000
15.36573 340.000
15.38568 330.000
15.40563 291.000
15.42557 371.000
15.44552 346.000
15.46547 346.000
15.48541 371.000
15.50536 366.000
15.52531 378.000
15.54526 401.000
15.56520 477.000
15.58515 477.000
15.60510 537.000
15.62504 587.000
15.64499 727.000
15.66494 823.000
15.68488 1007.000
15.70483 1170.000
15.72478 1312.000
15.74472 1474.000
15.76467 1492.000
15.78462 1522.000
15.80457 1488.000
15.82451 1394.000
15.84446 1239.000
15.86441 1019.000
15.88435 897.000
15.90430 754.000
15.92425 581.000
15.94419 469.000
15.96414 411.000
15.98409 397.000
16.00404 376.000
16.02398 343.000
16.04393 364.000
16.06388 359.000
16.08382 338.000
16.10377 356.000
16.12372 321.000
16.14366 356.000
16.16361 298.000
16.18356 327.000
16.20351 318.000
16.22345 354.000
16.24340 332.000
16.26335 303.000
16.28329 337.000
16.30324 301.000
16.32319 357.000
16.34313 341.000
16.36308 318.000
16.38303 319.000
16.40297 338.000
16.42292 327.000
16.44287 317.000
16.46282 334.000
16.48276 318.000
16.50271 329.000
16.52266 300.000
16.54260 342.000
16.56255 310.000
16.58250 335.000
16.60244 293.000
16.62239 348.000
16.64234 346.000
16.66229 381.000
16.68223 387.000
16.70218 395.000
16.72213 425.000
16.74207 441.000
16.76202 412.000
16.78197 414.000
16.80191 415.000
16.82186 397.000
16.84181 393.000
16.86175 376.000
16.88170 352.000
16.90165 324.000
16.92160 318.000
16.94154 345.000
16.96149 333.000
16.98144 282.000
17.00138 321.000
17.02133 296.000
17.04128 307.000
17.06122 320.000
17.08117 324.000
17.10112 279.000
17.12107 319.000
17.14101 313.000
17.16096 316.000
17.18091 315.000
17.20085 321.000
17.22080 299.000
17.24075 330.000
17.26069 333.000
17.28064 346.000
17.30059 334.000
17.32053 314.000
17.34048 317.000
17.36043 333.000
17.38038 291.000
17.40032 306.000
17.42027 289.000
17.44022 312.000
17.46016 304.000
17.48011 283.000
17.50006 285.000
17.52000 311.000
17.53995 323.000
17.55990 286.000
17.57985 327.000
17.59979 275.000
17.61974 326.000
17.63969 308.000
17.65963 319.000
17.67958 334.000
17.69953 306.000
17.71947 320.000
17.73942 300.000
17.75937 307.000
17.77932 306.000
17.79926 329.000
17.81921 333.000
17.83916 312.000
17.85910 271.000
17.87905 324.000
17.89900 278.000
17.91894 294.000
17.93889 315.000
17.95884 324.000
17.97878 283.000
17.99873 315.000
18.01868 292.000
18.03863 305.000
18.05857 294.000
18.07852 349.000
18.09847 302.000
18.11841 316.000
18.13836 313.000
18.15831 327.000
18.17825 354.000
18.19820 327.000
18.21815 343.000
18.23810 315.000
18.25804 363.000
18.27799 357.000
18.29794 344.000
18.31788 367.000
18.33783 385.000
18.35778 351.000
18.37772 381.000
18.39767 344.000
18.41762 371.000
18.43756 355.000
18.45751 340.000
18.47746 324.000
18.49741 339.000
18.51735 333.000
18.53730 315.000
18.55725 307.000
18.57719 321.000
18.59714 310.000
18.61709 330.000
18.63703 289.000
18.65698 311.000
18.67693 352.000
18.69688 318.000
18.71682 302.000
18.73677 321.000
18.75672 298.000
18.77666 320.000
18.79661 327.000
18.81656 305.000
18.83650 321.000
18.85645 305.000
18.87640 335.000
18.89634 327.000
18.91629 317.000
18.93624 316.000
18.95619 303.000
18.97613 332.000
18.99608 319.000
19.01603 285.000
19.03597 314.000
19.05592 299.000
19.07587 316.000
19.09581 340.000
19.11576 291.000
19.13571 304.000
19.15566 322.000
19.17560 323.000
19.19555 349.000
19.21550 300.000
19.23544 312.000
19.25539 312.000
19.27534 337.000
19.29528 326.000
19.31523 300.000
19.33518 283.000
19.35513 312.000
19.37507 316.000
19.39502 316.000
19.41497 325.000
19.43491 333.000
19.45486 310.000
19.47481 322.000
19.49475 305.000
19.51470 319.000
19.53465 290.000
19.55459 320.000
19.57454 356.000
19.59449 337.000
19.61444 303.000
19.63438 337.000
19.65433 285.000
19.67428 330.000
19.69422 331.000
19.71417 344.000
19.73412 333.000
19.75406 321.000
19.77401 311.000
19.79396 319.000
19.81391 329.000
19.83385 307.000
19.85380 295.000
19.87375 300.000
19.89369 327.000
19.91364 310.000
19.93359 351.000
19.95353 328.000
19.97348 300.000
19.99343 314.000
20.01337 345.000
20.03332 317.000
20.05327 306.000
20.07322 345.000
20.09316 315.000
20.11311 294.000
20.13306 319.000
20.15300 329.000
20.17295 313.000
20.19290 298.000
20.21284 312.000
20.23279 336.000
20.25274 333.000
20.27269 336.000
20.29263 312.000
20.31258 311.000
20.33253 346.000
20.35247 318.000
20.37242 354.000
20.39237 304.000
20.41231 332.000
20.43226 325.000
20.45221 325.000
20.47215 318.000
20.49210 353.000
20.51205 361.000
20.53200 349.000
20.55194 347.000
20.57189 349.000
20.59184 378.000
20.61178 354.000
20.63173 357.000
20.65168 398.000
20.67162 381.000
20.69157 396.000
20.71152 416.000
20.73147 428.000
20.75141 438.000
20.77136 461.000
20.79131 470.000
20.81125 518.000
20.83120 537.000
20.85115 582.000
20.87109 647.000
20.89104 678.000
20.91099 725.000
20.93094 699.000
20.95088 799.000
20.97083 743.000
20.99078 717.000
21.01072 733.000
21.03067 625.000
21.05062 583.000
21.07056 585.000
21.09051 492.000
21.11046 455.000
21.13040 400.000
21.15035 396.000
21.17030 327.000
21.19025 370.000
21.21019 348.000
21.23014 349.000
21.25009 351.000
21.27003 312.000
21.28998 350.000
21.30993 318.000
21.32987 362.000
21.34982 339.000
21.36977 327.000
21.38972 325.000
21.40966 324.000
21.42961 295.000
21.44956 318.000
21.46950 361.000
21.48945 329.000
21.50940 330.000
21.52934 304.000
21.54929 323.000
21.56924 303.000
21.58918 300.000
21.60913 327.000
21.62908 308.000
21.64903 306.000
21.66897 340.000
21.68892 334.000
21.70887 327.000
21.72881 350.000
21.74876 306.000
21.76871 330.000
21.78865 321.000
21.80860 300.000
21.82855 310.000
21.84850 329.000
21.86844 304.000
21.88839 322.000
21.90834 347.000
21.92828 350.000
21.94823 308.000
21.96818 332.000
21.98812 343.000
22.00807 342.000
22.02802 350.000
22.04796 359.000
22.06791 328.000
22.08786 299.000
22.10781 345.000
22.12775 353.000
22.14770 340.000
22.16765 331.000
22.18759 343.000
22.20754 329.000
22.22749 331.000
22.24743 329.000
22.26738 322.000
22.28733 350.000
22.30728 344.000
22.32722 304.000
22.34717 337.000
22.36712 342.000
22.38706 317.000
22.40701 325.000
22.42696 330.000
22.44690 330.000
22.46685 370.000
22.48680 311.000
22.50675 322.000
22.52669 352.000
22.54664 331.000
22.56659 356.000
22.58653 356.000
22.60648 318.000
22.62643 327.000
22.64637 331.000
22.66632 304.000
22.68627 365.000
22.70621 321.000
22.72616 352.000
22.74611 349.000
22.76606 337.000
22.78600 352.000
22.80595 325.000
22.82590 359.000
22.84584 374.000
22.86579 338.000
22.88574 327.000
22.90568 355.000
22.92563 345.000
22.94558 328.000
22.96553 340.000
22.98547 341.000
23.00542 326.000
23.02537 324.000
23.04531 328.000
23.06526 334.000
23.08521 337.000
23.10515 341.000
23.12510 347.000
23.14505 333.000
23.16499 320.000
23.18494 291.000
23.20489 345.000
23.22484 332.000
23.24478 349.000
23.26473 299.000
23.28468 360.000
23.30462 317.000
23.32457 328.000
23.34452 324.000
23.36446 370.000
23.38441 339.000
23.40436 348.000
23.42431 307.000
23.44425 304.000
23.46420 351.000
23.48415 336.000
23.50409 321.000
23.52404 345.000
23.54399 348.000
23.56393 327.000
23.58388 315.000
23.60383 286.000
23.62377 362.000
23.64372 339.000
23.66367 331.000
23.68362 317.000
23.70356 338.000
23.72351 338.000
23.74346 330.000
23.76340 356.000
23.78335 340.000
23.80330 355.000
23.82324 316.000
23.84319 335.000
23.86314 330.000
23.88309 334.000
23.90303 334.000
23.92298 359.000
23.94293 340.000
23.96287 337.000
23.98282 333.000
24.00277 344.000
24.02271 358.000
24.04266 330.000
24.06261 331.000
24.08256 339.000
24.10250 366.000
24.12245 374.000
24.14240 312.000
24.16234 351.000
24.18229 358.000
24.20224 329.000
24.22218 360.000
24.24213 349.000
24.26208 333.000
24.28202 374.000
24.30197 341.000
24.32192 367.000
24.34187 338.000
24.36181 323.000
24.38176 346.000
24.40171 327.000
24.42165 385.000
24.44160 352.000
24.46155 365.000
24.48149 358.000
24.50144 360.000
24.52139 348.000
24.54134 353.000
24.56128 352.000
24.58123 345.000
24.60118 317.000
24.62112 358.000
24.64107 341.000
24.66102 346.000
24.68096 319.000
24.70091 373.000
24.72086 363.000
24.74080 338.000
24.76075 369.000
24.78070 350.000
24.80065 368.000
24.82059 379.000
24.84054 404.000
24.86049 390.000
24.88043 427.000
24.90038 407.000
24.92033 403.000
24.94027 401.000
24.96022 386.000
24.98017 465.000
25.00012 432.000
25.02006 423.000
25.04001 394.000
25.05996 382.000
25.07990 355.000
25.09985 390.000
25.11980 362.000
25.13974 390.000
25.15969 336.000
25.17964 342.000
25.19958 355.000
25.21953 352.000
25.23948 364.000
25.25943 376.000
25.27937 338.000
25.29932 338.000
25.31927 341.000
25.33921 363.000
25.35916 362.000
25.37911 358.000
25.39905 374.000
25.41900 343.000
25.43895 352.000
25.45890 361.000
25.47884 361.000
25.49879 367.000
25.51874 335.000
25.53868 374.000
25.55863 343.000
25.57858 370.000
25.59852 342.000
25.61847 365.000
25.63842 328.000
25.65837 324.000
25.67831 342.000
25.69826 341.000
25.71821 366.000
25.73815 346.000
25.75810 328.000
25.77805 356.000
25.79799 319.000
25.81794 338.000
25.83789 361.000
25.85783 359.000
25.87778 392.000
25.89773 386.000
25.91768 351.000
25.93762 350.000
25.95757 324.000
25.97752 363.000
25.99746 364.000
26.01741 371.000
26.03736 347.000
26.05730 387.000
26.07725 330.000
26.09720 307.000
26.11715 301.000
26.13709 380.000
26.15704 363.000
26.17699 388.000
26.19693 352.000
26.21688 369.000
26.23683 370.000
26.25677 355.000
26.27672 344.000
26.29667 342.000
26.31661 376.000
26.33656 387.000
26.35651 366.000
26.37646 358.000
26.39640 365.000
26.41635 385.000
26.43630 361.000
26.45624 357.000
26.47619 399.000
26.49614 348.000
26.51608 361.000
26.53603 347.000
26.55598 358.000
26.57593 358.000
26.59587 375.000
26.61582 373.000
26.63577 396.000
26.65571 369.000
26.67566 360.000
26.69561 403.000
26.71555 369.000
26.73550 354.000
26.75545 373.000
26.77539 375.000
26.79534 356.000
26.81529 377.000
26.83524 378.000
26.85518 352.000
26.87513 356.000
26.89508 379.000
26.91502 333.000
26.93497 377.000
26.95492 334.000
26.97486 335.000
26.99481 368.000
27.01476 366.000
27.03471 372.000
27.05465 334.000
27.07460 399.000
27.09455 399.000
27.11449 369.000
27.13444 381.000
27.15439 362.000
27.17433 369.000
27.19428 378.000
27.21423 357.000
27.23417 360.000
27.25412 340.000
27.27407 403.000
27.29402 351.000
27.31396 357.000
27.33391 361.000
27.35386 379.000
27.37380 364.000
27.39375 369.000
27.41370 349.000
27.43364 372.000
27.45359 403.000
27.47354 345.000
27.49349 394.000
27.51343 388.000
27.53338 359.000
27.55333 386.000
27.57327 342.000
27.59322 361.000
27.61317 391.000
27.63311 354.000
27.65306 411.000
27.67301 362.000
27.69296 380.000
27.71290 338.000
27.73285 363.000
27.75280 365.000
27.77274 394.000
27.79269 376.000
27.81264 396.000
27.83258 363.000
27.85253 378.000
27.87248 360.000
27.89242 384.000
27.91237 357.000
27.93232 363.000
27.95227 392.000
27.97221 359.000
27.99216 366.000
28.01211 384.000
28.03205 390.000
28.05200 333.000
28.07195 362.000
28.09189 368.000
28.11184 371.000
28.13179 401.000
28.15174 351.000
28.17168 402.000
28.19163 385.000
28.21158 346.000
28.23152 367.000
28.25147 356.000
28.27142 385.000
28.29136 407.000
28.31131 385.000
28.33126 371.000
28.35120 408.000
28.37115 363.000
28.39110 381.000
28.41105 398.000
28.43099 387.000
28.45094 391.000
28.47089 405.000
28.49083 370.000
28.51078 377.000
28.53073 392.000
28.55067 407.000
28.57062 431.000
28.59057 389.000
28.61052 406.000
28.63046 364.000
28.65041 391.000
28.67036 396.000
28.69030 395.000
28.71025 452.000
28.73020 431.000
28.75014 402.000
28.77009 419.000
28.79004 390.000
28.80998 408.000
28.82993 415.000
28.84988 414.000
28.86983 419.000
28.88977 427.000
28.90972 391.000
28.92967 392.000
28.94961 352.000
28.96956 419.000
28.98951 388.000
29.00945 398.000
29.02940 400.000
29.04935 398.000
29.06930 421.000
29.08924 399.000
29.10919 455.000
29.12914 443.000
29.14908 438.000
29.16903 462.000
29.18898 517.000
29.20892 532.000
29.22887 558.000
29.24882 602.000
29.26877 690.000
29.28871 656.000
29.30866 682.000
29.32861 666.000
29.34855 695.000
29.36850 632.000
29.38845 597.000
29.40839 592.000
29.42834 540.000
29.44829 498.000
29.46823 512.000
29.48818 459.000
29.50813 449.000
29.52808 463.000
29.54802 418.000
29.56797 425.000
29.58792 417.000
29.60786 421.000
29.62781 406.000
29.64776 376.000
29.66770 411.000
29.68765 384.000
29.70760 401.000
29.72755 376.000
29.74749 369.000
29.76744 389.000
29.78739 397.000
29.80733 398.000
29.82728 411.000
29.84723 396.000
29.86717 388.000
29.88712 416.000
29.90707 426.000
29.92701 391.000
29.94696 385.000
29.96691 404.000
29.98686 410.000
30.00680 427.000
30.02675 443.000
30.04670 449.000
30.06664 415.000
30.08659 456.000
30.10654 437.000
30.12648 474.000
30.14643 502.000
30.16638 565.000
30.18633 559.000
30.20627 545.000
30.22622 558.000
30.24617 545.000
30.26611 500.000
30.28606 546.000
30.30601 496.000
30.32595 523.000
30.34590 464.000
30.36585 461.000
30.38579 432.000
30.40574 471.000
30.42569 438.000
30.44564 443.000
30.46558 428.000
30.48553 409.000
30.50548 414.000
30.52542 382.000
30.54537 375.000
30.56532 417.000
30.58526 380.000
30.60521 396.000
30.62516 409.000
30.64511 433.000
30.66505 414.000
30.68500 409.000
30.70495 380.000
30.72489 403.000
30.74484 393.000
30.76479 426.000
30.78473 383.000
30.80468 371.000
30.82463 383.000
30.84458 400.000
30.86452 376.000
30.88447 389.000
30.90442 376.000
30.92436 391.000
30.94431 382.000
30.96426 400.000
30.98420 353.000
31.00415 385.000
31.02410 381.000
31.04404 418.000
31.06399 406.000
31.08394 384.000
31.10389 381.000
31.12383 385.000
31.14378 408.000
31.16373 342.000
31.18367 421.000
31.20362 425.000
31.22357 435.000
31.24351 383.000
31.26346 385.000
31.28341 436.000
31.30336 365.000
31.32330 383.000
31.34325 401.000
31.36320 401.000
31.38314 368.000
31.40309 393.000
31.42304 416.000
31.44298 368.000
31.46293 393.000
31.48288 405.000
31.50282 392.000
31.52277 360.000
31.54272 404.000
31.56267 400.000
31.58261 386.000
31.60256 404.000
31.62251 403.000
31.64245 400.000
31.66240 384.000
31.68235 393.000
31.70229 446.000
31.72224 417.000
31.74219 379.000
31.76214 482.000
31.78208 433.000
31.80203 470.000
31.82198 426.000
31.84192 469.000
31.86187 488.000
31.88182 491.000
31.90176 497.000
31.92171 503.000
31.94166 501.000
31.96160 452.000
31.98155 515.000
32.00150 464.000
32.02145 457.000
32.04139 490.000
32.06134 493.000
32.08129 485.000
32.10123 443.000
32.12118 425.000
32.14113 408.000
32.16107 427.000
32.18102 438.000
32.20097 415.000
32.22092 413.000
32.24086 449.000
32.26081 392.000
32.28076 457.000
32.30070 430.000
32.32065 458.000
32.34060 434.000
32.36054 500.000
32.38049 468.000
32.40044 447.000
32.42039 472.000
32.44033 466.000
32.46028 497.000
32.48023 484.000
32.50017 465.000
32.52012 454.000
32.54007 443.000
32.56001 455.000
32.57996 435.000
32.59991 403.000
32.61985 392.000
32.63980 391.000
32.65975 427.000
32.67970 379.000
32.69964 396.000
32.71959 423.000
32.73954 397.000
32.75948 370.000
32.77943 351.000
32.79938 400.000
32.81932 399.000
32.83927 378.000
32.85922 380.000
32.87917 408.000
32.89911 354.000
32.91906 399.000
32.93901 393.000
32.95895 403.000
32.97890 373.000
32.99885 393.000
33.01879 388.000
33.03874 406.000
33.05869 344.000
33.07863 401.000
33.09858 375.000
33.11853 401.000
33.13848 387.000
33.15842 402.000
33.17837 405.000
33.19832 396.000
33.21826 396.000
33.23821 340.000
33.25816 355.000
33.27810 380.000
33.29805 409.000
33.31800 397.000
33.33795 418.000
33.35789 410.000
33.37784 399.000
33.39779 388.000
33.41773 409.000
33.43768 407.000
33.45763 395.000
33.47757 391.000
33.49752 379.000
33.51747 372.000
33.53741 393.000
33.55736 412.000
33.57731 371.000
33.59726 389.000
33.61720 412.000
33.63715 389.000
33.65710 397.000
33.67704 404.000
33.69699 381.000
33.71694 368.000
33.73688 383.000
33.75683 358.000
33.77678 409.000
33.79673 374.000
33.81667 431.000
33.83662 423.000
33.85657 431.000
33.87651 415.000
33.89646 435.000
33.91641 386.000
33.93635 416.000
33.95630 458.000
33.97625 429.000
33.99620 440.000
34.01614 438.000
34.03609 455.000
34.05604 420.000
34.07598 450.000
34.09593 449.000
34.11588 453.000
34.13582 424.000
34.15577 452.000
34.17572 530.000
34.19566 486.000
34.21561 522.000
34.23556 506.000
34.25551 506.000
34.27545 536.000
34.29540 570.000
34.31535 580.000
34.33529 569.000
34.35524 578.000
34.37519 573.000
34.39513 595.000
34.41508 577.000
34.43503 593.000
34.45498 595.000
34.47492 628.000
34.49487 613.000
34.51482 644.000
34.53476 645.000
34.55471 676.000
34.57466 657.000
34.59460 709.000
34.61455 730.000
34.63450 751.000
34.65444 756.000
34.67439 769.000
34.69434 746.000
34.71429 767.000
34.73423 779.000
34.75418 716.000
34.77413 704.000
34.79407 680.000
34.81402 649.000
34.83397 641.000
34.85391 591.000
34.87386 646.000
34.89381 536.000
34.91376 554.000
34.93370 537.000
34.95365 526.000
34.97360 498.000
34.99354 493.000
35.01349 491.000
35.03344 559.000
35.05338 535.000
35.07333 563.000
35.09328 562.000
35.11322 514.000
35.13317 586.000
35.15312 608.000
35.17307 581.000
35.19301 624.000
35.21296 632.000
35.23291 745.000
35.25285 769.000
35.27280 840.000
35.29275 842.000
35.31269 968.000
35.33264 1089.000
35.35259 1268.000
35.37254 1364.000
35.39248 1581.000
35.41243 1741.000
35.43238 1780.000
35.45232 2025.000
35.47227 1904.000
35.49222 1911.000
35.51216 1992.000
35.53211 1876.000
35.55206 1846.000
35.57201 1828.000
35.59195 1669.000
35.61190 1669.000
35.63185 1529.000
35.65179 1354.000
35.67174 1268.000
35.69169 1172.000
35.71163 1163.000
35.73158 1018.000
35.75153 923.000
35.77147 907.000
35.79142 772.000
35.81137 714.000
35.83132 658.000
35.85126 653.000
35.87121 579.000
35.89116 562.000
35.91110 531.000
35.93105 558.000
35.95100 548.000
35.97094 497.000
35.99089 492.000
36.01084 464.000
36.03079 454.000
36.05073 445.000
36.07068 462.000
36.09063 505.000
36.11057 478.000
36.13052 475.000
36.15047 466.000
36.17041 483.000
36.19036 508.000
36.21031 450.000
36.23025 470.000
36.25020 482.000
36.27015 459.000
36.29010 476.000
36.31004 498.000
36.32999 464.000
36.34994 444.000
36.36988 474.000
36.38983 461.000
36.40978 492.000
36.42972 453.000
36.44967 477.000
36.46962 467.000
36.48957 437.000
36.50951 508.000
36.52946 497.000
36.54941 462.000
36.56935 453.000
36.58930 450.000
36.60925 460.000
36.62919 486.000
36.64914 536.000
36.66909 493.000
36.68903 520.000
36.70898 544.000
36.72893 554.000
36.74888 538.000
36.76882 520.000
36.78877 598.000
36.80872 598.000
36.82866 689.000
36.84861 718.000
36.86856 826.000
36.88850 891.000
36.90845 964.000
36.92840 1174.000
36.94835 1290.000
36.96829 1477.000
36.98824 1670.000
37.00819 1772.000
37.02813 1887.000
37.04808 1914.000
37.06803 1870.000
37.08797 1854.000
37.10792 1722.000
37.12787 1573.000
37.14781 1516.000
37.16776 1274.000
37.18771 1171.000
37.20766 1041.000
37.22760 890.000
37.24755 840.000
37.26750 741.000
37.28744 637.000
37.30739 644.000
37.32734 637.000
37.34728 604.000
37.36723 567.000
37.38718 555.000
37.40713 497.000
37.42707 502.000
37.44702 522.000
37.46697 520.000
37.48691 476.000
37.50686 493.000
37.52681 431.000
37.54675 478.000
37.56670 466.000
37.58665 433.000
37.60660 400.000
37.62654 429.000
37.64649 399.000
37.66644 404.000
37.68638 424.000
37.70633 434.000
37.72628 426.000
37.74622 434.000
37.76617 441.000
37.78612 436.000
37.80606 413.000
37.82601 433.000
37.84596 443.000
37.86591 445.000
37.88585 457.000
37.90580 416.000
37.92575 459.000
37.94569 442.000
37.96564 477.000
37.98559 426.000
38.00553 458.000
38.02548 497.000
38.04543 479.000
38.06538 420.000
38.08532 468.000
38.10527 452.000
38.12522 486.000
38.14516 462.000
38.16511 518.000
38.18506 465.000
38.20500 463.000
38.22495 468.000
38.24490 484.000
38.26484 521.000
38.28479 538.000
38.30474 568.000
38.32469 576.000
38.34463 621.000
38.36458 631.000
38.38453 690.000
38.40447 651.000
38.42442 702.000
38.44437 811.000
38.46431 816.000
38.48426 952.000
38.50421 1036.000
38.52416 1151.000
38.54410 1220.000
38.56405 1360.000
38.58400 1454.000
38.60394 1523.000
38.62389 1558.000
38.64384 1614.000
38.66378 1614.000
38.68373 1631.000
38.70368 1516.000
38.72362 1479.000
38.74357 1369.000
38.76352 1265.000
38.78347 1187.000
38.80341 1090.000
38.82336 1047.000
38.84331 1050.000
38.86325 971.000
38.88320 934.000
38.90315 932.000
38.92309 913.000
38.94304 820.000
38.96299 744.000
38.98294 788.000
39.00288 734.000
39.02283 738.000
39.04278 666.000
39.06272 627.000
39.08267 614.000
39.10262 607.000
39.12256 621.000
39.14251 587.000
39.16246 573.000
39.18241 590.000
39.20235 645.000
39.22230 659.000
39.24225 666.000
39.26219 677.000
39.28214 656.000
39.30209 648.000
39.32203 628.000
39.34198 600.000
39.36193 516.000
39.38187 546.000
39.40182 474.000
39.42177 490.000
39.44172 454.000
39.46166 475.000
39.48161 433.000
39.50156 422.000
39.52150 457.000
39.54145 430.000
39.56140 412.000
39.58134 455.000
39.60129 440.000
39.62124 421.000
39.64119 393.000
39.66113 379.000
39.68108 401.000
39.70103 396.000
39.72097 384.000
39.74092 426.000
39.76087 429.000
39.78081 428.000
39.80076 403.000
39.82071 383.000
39.84065 420.000
39.86060 377.000
39.88055 408.000
39.90050 354.000
39.92044 364.000
39.94039 420.000
39.96034 388.000
39.98028 381.000
40.00023 355.000
40.02018 389.000
40.04012 355.000
40.06007 369.000
40.08002 379.000
40.09997 392.000
40.11991 374.000
40.13986 396.000
40.15981 397.000
40.17975 391.000
40.19970 396.000
40.21965 383.000
40.23959 387.000
40.25954 365.000
40.27949 389.000
40.29943 383.000
40.31938 369.000
40.33933 421.000
40.35928 383.000
40.37922 350.000
40.39917 371.000
40.41912 408.000
40.43906 377.000
40.45901 379.000
40.47896 375.000
40.49890 351.000
40.51885 408.000
40.53880 376.000
40.55875 361.000
40.57869 366.000
40.59864 354.000
40.61859 383.000
40.63853 380.000
40.65848 387.000
40.67843 338.000
40.69837 364.000
40.71832 352.000
40.73827 421.000
40.75822 384.000
40.77816 412.000
40.79811 390.000
40.81806 362.000
40.83800 401.000
40.85795 370.000
40.87790 383.000
40.89784 358.000
40.91779 362.000
40.93774 358.000
40.95768 382.000
40.97763 384.000
40.99758 366.000
41.01753 369.000
41.03747 385.000
41.05742 390.000
41.07737 388.000
41.09731 396.000
41.11726 387.000
41.13721 402.000
41.15715 426.000
41.17710 364.000
41.19705 377.000
41.21700 379.000
41.23694 376.000
41.25689 388.000
41.27684 395.000
41.29678 417.000
41.31673 391.000
41.33668 388.000
41.35662 387.000
41.37657 403.000
41.39652 352.000
41.41646 392.000
41.43641 360.000
41.45636 409.000
41.47631 414.000
41.49625 383.000
41.51620 403.000
41.53615 415.000
41.55609 382.000
41.57604 392.000
41.59599 378.000
41.61593 429.000
41.63588 415.000
41.65583 370.000
41.67578 399.000
41.69572 395.000
41.71567 427.000
41.73562 396.000
41.75556 401.000
41.77551 390.000
41.79546 366.000
41.81540 349.000
41.83535 381.000
41.85530 363.000
41.87524 387.000
41.89519 388.000
41.91514 397.000
41.93509 388.000
41.95503 411.000
41.97498 378.000
41.99493 375.000
42.01487 385.000
42.03482 387.000
42.05477 385.000
42.07471 390.000
42.09466 350.000
42.11461 372.000
42.13456 417.000
42.15450 415.000
42.17445 409.000
42.19440 366.000
42.21434 414.000
42.23429 384.000
42.25424 402.000
42.27418 429.000
42.29413 380.000
42.31408 435.000
42.33403 394.000
42.35397 392.000
42.37392 437.000
42.39387 417.000
42.41381 442.000
42.43376 452.000
42.45371 449.000
42.47365 465.000
42.49360 475.000
42.51355 509.000
42.53349 515.000
42.55344 492.000
42.57339 476.000
42.59334 551.000
42.61328 534.000
42.63323 526.000
42.65318 574.000
42.67312 575.000
42.69307 596.000
42.71302 665.000
42.73296 734.000
42.75291 711.000
42.77286 767.000
42.79281 873.000
42.81275 946.000
42.83270 964.000
42.85265 1072.000
42.87259 1166.000
42.89254 1183.000
42.91249 1281.000
42.93243 1386.000
42.95238 1572.000
42.97233 1651.000
42.99227 1719.000
43.01222 1867.000
43.03217 1941.000
43.05212 1982.000
43.07206 1934.000
43.09201 1967.000
43.11196 1975.000
43.13190 1871.000
43.15185 1913.000
43.17180 1691.000
43.19174 1601.000
43.21169 1483.000
43.23164 1433.000
43.25159 1323.000
43.27153 1198.000
43.29148 1133.000
43.31143 1046.000
43.33137 959.000
43.35132 889.000
43.37127 815.000
43.39121 757.000
43.41116 752.000
43.43111 743.000
43.45105 645.000
43.47100 609.000
43.49095 624.000
43.51090 552.000
43.53084 545.000
43.55079 469.000
43.57074 510.000
43.59068 429.000
43.61063 431.000
43.63058 433.000
43.65052 415.000
43.67047 421.000
43.69042 408.000
43.71037 404.000
43.73031 406.000
43.75026 369.000
43.77021 335.000
43.79015 384.000
43.81010 408.000
43.83005 397.000
43.84999 366.000
43.86994 410.000
43.88989 379.000
43.90984 413.000
43.92978 352.000
43.94973 404.000
43.96968 379.000
43.98962 372.000
44.00957 359.000
44.02952 386.000
44.04946 362.000
44.06941 391.000
44.08936 366.000
44.10930 370.000
44.12925 373.000
44.14920 364.000
44.16915 392.000
44.18909 386.000
44.20904 373.000
44.22899 371.000
44.24893 406.000
44.26888 337.000
44.28883 393.000
44.30877 393.000
44.32872 416.000
44.34867 408.000
44.36862 370.000
44.38856 365.000
44.40851 404.000
44.42846 350.000
44.44840 371.000
44.46835 391.000
44.48830 419.000
44.50824 378.000
44.52819 381.000
44.54814 404.000
44.56808 381.000
44.58803 399.000
44.60798 368.000
44.62793 381.000
44.64787 366.000
44.66782 404.000
44.68777 391.000
44.70771 398.000
44.72766 388.000
44.74761 399.000
44.76755 351.000
44.78750 389.000
44.80745 410.000
44.82740 372.000
44.84734 420.000
44.86729 412.000
44.88724 443.000
44.90718 445.000
44.92713 423.000
44.94708 442.000
44.96702 429.000
44.98697 456.000
45.00692 476.000
45.02686 475.000
45.04681 443.000
45.06676 472.000
45.08671 439.000
45.10665 429.000
45.12660 473.000
45.14655 432.000
45.16649 433.000
45.18644 409.000
45.20639 470.000
45.22633 409.000
45.24628 420.000
45.26623 397.000
45.28618 394.000
45.30612 384.000
45.32607 413.000
45.34602 366.000
45.36596 426.000
45.38591 402.000
45.40586 370.000
45.42580 393.000
45.44575 415.000
45.46570 407.000
45.48565 416.000
45.50559 388.000
45.52554 384.000
45.54549 408.000
45.56543 390.000
45.58538 347.000
45.60533 356.000
45.62527 369.000
45.64522 379.000
45.66517 359.000
45.68511 371.000
45.70506 378.000
45.72501 366.000
45.74496 342.000
45.76490 336.000
45.78485 344.000
45.80480 355.000
45.82474 352.000
45.84469 350.000
45.86464 381.000
45.88458 357.000
45.90453 374.000
45.92448 351.000
45.94443 361.000
45.96437 352.000
45.98432 370.000
46.00427 334.000
46.02421 367.000
46.04416 385.000
46.06411 363.000
46.08405 351.000
46.10400 339.000
46.12395 430.000
46.14389 392.000
46.16384 380.000
46.18379 386.000
46.20374 352.000
46.22368 408.000
46.24363 416.000
46.26358 383.000
46.28352 392.000
46.30347 383.000
46.32342 400.000
46.34336 358.000
46.36331 370.000
46.38326 391.000
46.40321 361.000
46.42315 385.000
46.44310 377.000
46.46305 382.000
46.48299 343.000
46.50294 345.000
46.52289 342.000
46.54283 365.000
46.56278 344.000
46.58273 372.000
46.60267 369.000
46.62262 348.000
46.64257 385.000
46.66252 347.000
46.68246 341.000
46.70241 371.000
46.72236 377.000
46.74230 368.000
46.76225 366.000
46.78220 339.000
46.80214 338.000
46.82209 360.000
46.84204 335.000
46.86199 370.000
46.88193 357.000
46.90188 318.000
46.92183 329.000
46.94177 319.000
46.96172 353.000
46.98167 343.000
47.00161 318.000
47.02156 388.000
47.04151 394.000
47.06146 327.000
47.08140 362.000
47.10135 366.000
47.12130 378.000
47.14124 354.000
47.16119 353.000
47.18114 371.000
47.20108 359.000
47.22103 338.000
47.24098 352.000
47.26092 365.000
47.28087 367.000
47.30082 360.000
47.32077 372.000
47.34071 373.000
47.36066 306.000
47.38061 363.000
47.40055 395.000
47.42050 354.000
47.44045 373.000
47.46039 359.000
47.48034 382.000
47.50029 392.000
47.52024 356.000
47.54018 381.000
47.56013 381.000
47.58008 342.000
47.60002 342.000
47.61997 381.000
47.63992 339.000
47.65986 368.000
47.67981 355.000
47.69976 357.000
47.71970 382.000
47.73965 380.000
47.75960 380.000
47.77955 384.000
47.79949 391.000
47.81944 420.000
47.83939 395.000
47.85933 356.000
47.87928 415.000
47.89923 387.000
47.91917 381.000
47.93912 400.000
47.95907 393.000
47.97902 406.000
47.99896 410.000
48.01891 446.000
48.03886 467.000
48.05880 459.000
48.07875 418.000
48.09870 404.000
48.11864 429.000
48.13859 406.000
48.15854 437.000
48.17848 421.000
48.19843 384.000
48.21838 433.000
48.23833 401.000
48.25827 378.000
48.27822 411.000
48.29817 421.000
48.31811 439.000
48.33806 444.000
48.35801 437.000
48.37795 443.000
48.39790 396.000
48.41785 459.000
48.43780 444.000
48.45774 446.000
48.47769 474.000
48.49764 465.000
48.51758 505.000
48.53753 551.000
48.55748 582.000
48.57742 642.000
48.59737 611.000
48.61732 645.000
48.63726 679.000
48.65721 701.000
48.67716 740.000
48.69711 816.000
48.71705 822.000
48.73700 855.000
48.75695 857.000
48.77689 826.000
48.79684 823.000
48.81679 795.000
48.83673 768.000
48.85668 736.000
48.87663 712.000
48.89658 633.000
48.91652 588.000
48.93647 576.000
48.95642 574.000
48.97636 522.000
48.99631 504.000
49.01626 434.000
49.03620 460.000
49.05615 445.000
49.07610 445.000
49.09605 448.000
49.11599 404.000
49.13594 400.000
49.15589 377.000
49.17583 388.000
49.19578 369.000
49.21573 417.000
49.23567 402.000
49.25562 346.000
49.27557 385.000
49.29551 368.000
49.31546 413.000
49.33541 395.000
49.35536 404.000
49.37530 375.000
49.39525 392.000
49.41520 396.000
49.43514 404.000
49.45509 420.000
49.47504 352.000
49.49498 390.000
49.51493 410.000
49.53488 391.000
49.55483 352.000
49.57477 420.000
49.59472 410.000
49.61467 406.000
49.63461 348.000
49.65456 395.000
49.67451 338.000
49.69445 389.000
49.71440 354.000
49.73435 376.000
49.75429 371.000
49.77424 395.000
49.79419 354.000
49.81414 374.000
49.83408 377.000
49.85403 399.000
49.87398 409.000
49.89392 326.000
49.91387 402.000
49.93382 356.000
49.95376 393.000
49.97371 352.000
49.99366 382.000
50.01361 379.000
50.03355 349.000
50.05350 374.000
50.07345 360.000
50.09339 351.000
50.11334 357.000
50.13329 374.000
50.15323 362.000
50.17318 359.000
50.19313 350.000
50.21307 337.000
50.23302 384.000
50.25297 359.000
50.27292 299.000
50.29286 372.000
50.31281 377.000
50.33276 342.000
50.35270 329.000
50.37265 375.000
50.39260 328.000
50.41254 362.000
50.43249 349.000
50.45244 359.000
50.47239 366.000
50.49233 341.000
50.51228 343.000
50.53223 392.000
50.55217 364.000
50.57212 355.000
50.59207 346.000
50.61201 357.000
50.63196 377.000
50.65191 316.000
50.67186 323.000
50.69180 336.000
50.71175 382.000
50.73170 380.000
50.75164 367.000
50.77159 358.000
50.79154 332.000
50.81148 355.000
50.83143 327.000
50.85138 352.000
50.87132 328.000
50.89127 381.000
50.91122 374.000
50.93117 327.000
50.95111 322.000
50.97106 362.000
50.99101 375.000
51.01095 363.000
51.03090 332.000
51.05085 354.000
51.07079 334.000
51.09074 342.000
51.11069 365.000
51.13064 385.000
51.15058 355.000
51.17053 366.000
51.19048 345.000
51.21042 357.000
51.23037 362.000
51.25032 347.000
51.27026 331.000
51.29021 364.000
51.31016 347.000
51.33010 367.000
51.35005 351.000
51.37000 385.000
51.38995 365.000
51.40989 376.000
51.42984 374.000
51.44979 323.000
51.46973 321.000
51.48968 357.000
51.50963 370.000
51.52957 356.000
51.54952 345.000
51.56947 323.000
51.58942 362.000
51.60936 369.000
51.62931 360.000
51.64926 335.000
51.66920 378.000
51.68915 328.000
51.70910 369.000
51.72904 360.000
51.74899 354.000
51.76894 400.000
51.78888 382.000
51.80883 375.000
51.82878 372.000
51.84873 392.000
51.86867 395.000
51.88862 373.000
51.90857 380.000
51.92851 424.000
51.94846 404.000
51.96841 429.000
51.98835 449.000
52.00830 418.000
52.02825 457.000
52.04820 404.000
52.06814 398.000
52.08809 424.000
52.10804 422.000
52.12798 455.000
52.14793 412.000
52.16788 436.000
52.18782 366.000
52.20777 407.000
52.22772 402.000
52.24767 414.000
52.26761 385.000
52.28756 378.000
52.30751 387.000
52.32745 356.000
52.34740 391.000
52.36735 371.000
52.38729 351.000
52.40724 350.000
52.42719 320.000
52.44713 362.000
52.46708 329.000
52.48703 373.000
52.50698 360.000
52.52692 365.000
52.54687 427.000
52.56682 362.000
52.58676 380.000
52.60671 337.000
52.62666 364.000
52.64660 380.000
52.66655 393.000
52.68650 368.000
52.70645 389.000
52.72639 371.000
52.74634 380.000
52.76629 355.000
52.78623 387.000
52.80618 350.000
52.82613 383.000
52.84607 441.000
52.86602 360.000
52.88597 378.000
52.90591 370.000
52.92586 388.000
52.94581 372.000
52.96576 385.000
52.98570 378.000
53.00565 396.000
53.02560 393.000
53.04554 403.000
53.06549 382.000
53.08544 384.000
53.10538 356.000
53.12533 416.000
53.14528 376.000
53.16523 422.000
53.18517 385.000
53.20512 406.000
53.22507 425.000
53.24501 434.000
53.26496 410.000
53.28491 394.000
53.30485 412.000
53.32480 438.000
53.34475 487.000
53.36469 391.000
53.38464 389.000
53.40459 423.000
53.42454 403.000
53.44448 432.000
53.46443 416.000
53.48438 382.000
53.50432 440.000
53.52427 424.000
53.54422 425.000
53.56416 391.000
53.58411 387.000
53.60406 399.000
53.62401 403.000
53.64395 398.000
53.66390 399.000
53.68385 390.000
53.70379 417.000
53.72374 398.000
53.74369 389.000
53.76363 392.000
53.78358 424.000
53.80353 433.000
53.82348 407.000
53.84342 397.000
53.86337 382.000
53.88332 359.000
53.90326 367.000
53.92321 417.000
53.94316 348.000
53.96310 381.000
53.98305 373.000
54.00300 358.000
54.02294 362.000
54.04289 388.000
54.06284 364.000
54.08279 385.000
54.10273 342.000
54.12268 366.000
54.14263 425.000
54.16257 333.000
54.18252 329.000
54.20247 403.000
54.22241 365.000
54.24236 369.000
54.26231 331.000
54.28226 349.000
54.30220 362.000
54.32215 376.000
54.34210 385.000
54.36204 346.000
54.38199 398.000
54.40194 374.000
54.42188 334.000
54.44183 371.000
54.46178 382.000
54.48172 344.000
54.50167 361.000
54.52162 407.000
54.54157 356.000
54.56151 341.000
54.58146 334.000
54.60141 378.000
54.62135 369.000
54.64130 334.000
54.66125 352.000
54.68119 386.000
54.70114 401.000
54.72109 380.000
54.74104 382.000
54.76098 376.000
54.78093 380.000
54.80088 324.000
54.82082 360.000
54.84077 373.000
54.86072 351.000
54.88066 383.000
54.90061 355.000
54.92056 333.000
54.94050 367.000
54.96045 346.000
54.98040 376.000
55.00035 350.000
55.02029 352.000
55.04024 356.000
55.06019 322.000
55.08013 341.000
55.10008 335.000
55.12003 340.000
55.13997 361.000
55.15992 318.000
55.17987 349.000
55.19982 357.000
55.21976 368.000
55.23971 367.000
55.25966 349.000
55.27960 310.000
55.29955 344.000
55.31950 334.000
55.33944 318.000
55.35939 380.000
55.37934 346.000
55.39929 375.000
55.41923 310.000
55.43918 341.000
55.45913 383.000
55.47907 318.000
55.49902 324.000
55.51897 343.000
55.53891 349.000
55.55886 330.000
55.57881 347.000
55.59875 374.000
55.61870 341.000
55.63865 329.000
55.65860 350.000
55.67854 330.000
55.69849 338.000
55.71844 379.000
55.73838 310.000
55.75833 361.000
55.77828 369.000
55.79822 367.000
55.81817 362.000
55.83812 355.000
55.85807 363.000
55.87801 348.000
55.89796 353.000
55.91791 336.000
55.93785 345.000
55.95780 356.000
55.97775 373.000
55.99769 346.000
56.01764 342.000
56.03759 379.000
56.05753 365.000
56.07748 358.000
56.09743 371.000
56.11738 356.000
56.13732 363.000
56.15727 343.000
56.17722 361.000
56.19716 364.000
56.21711 349.000
56.23706 357.000
56.25700 356.000
56.27695 332.000
56.29690 363.000
56.31685 353.000
56.33679 359.000
56.35674 366.000
56.37669 364.000
56.39663 318.000
56.41658 315.000
56.43653 338.000
56.45647 391.000
56.47642 348.000
56.49637 371.000
56.51631 378.000
56.53626 383.000
56.55621 369.000
56.57616 397.000
56.59610 348.000
56.61605 351.000
56.63600 346.000
56.65594 388.000
56.67589 353.000
56.69584 378.000
56.71578 390.000
56.73573 333.000
56.75568 412.000
56.77563 367.000
56.79557 399.000
56.81552 388.000
56.83547 364.000
56.85541 361.000
56.87536 360.000
56.89531 387.000
56.91525 408.000
56.93520 367.000
56.95515 363.000
56.97510 360.000
56.99504 395.000
57.01499 395.000
57.03494 383.000
57.05488 394.000
57.07483 382.000
57.09478 383.000
57.11472 420.000
57.13467 440.000
57.15462 425.000
57.17456 429.000
57.19451 442.000
57.21446 475.000
57.23441 448.000
57.25435 472.000
57.27430 492.000
57.29425 457.000
57.31419 504.000
57.33414 484.000
57.35409 488.000
57.37403 474.000
57.39398 445.000
57.41393 442.000
57.43388 481.000
57.45382 454.000
57.47377 438.000
57.49372 458.000
57.51366 438.000
57.53361 405.000
57.55356 434.000
57.57350 376.000
57.59345 409.000
57.61340 399.000
57.63334 445.000
57.65329 380.000
57.67324 373.000
57.69319 396.000
57.71313 428.000
57.73308 362.000
57.75303 383.000
57.77297 417.000
57.79292 441.000
57.81287 389.000
57.83281 393.000
57.85276 397.000
57.87271 380.000
57.89266 412.000
57.91260 403.000
57.93255 416.000
57.95250 430.000
57.97244 400.000
57.99239 443.000
58.01234 411.000
58.03228 455.000
58.05223 406.000
58.07218 423.000
58.09212 451.000
58.11207 464.000
58.13202 477.000
58.15197 476.000
58.17191 496.000
58.19186 516.000
58.21181 485.000
58.23175 471.000
58.25170 515.000
58.27165 489.000
58.29159 466.000
58.31154 516.000
58.33149 433.000
58.35144 471.000
58.37138 475.000
58.39133 457.000
58.41128 430.000
58.43122 442.000
58.45117 413.000
58.47112 428.000
58.49106 404.000
58.51101 398.000
58.53096 422.000
58.55090 361.000
58.57085 414.000
58.59080 388.000
58.61075 387.000
58.63069 406.000
58.65064 399.000
58.67059 363.000
58.69053 336.000
58.71048 350.000
58.73043 377.000
58.75037 393.000
58.77032 333.000
58.79027 346.000
58.81022 354.000
58.83016 365.000
58.85011 342.000
58.87006 338.000
58.89000 365.000
58.90995 309.000
58.92990 329.000
58.94984 325.000
58.96979 376.000
58.98974 365.000
59.00969 358.000
59.02963 339.000
59.04958 343.000
59.06953 355.000
59.08947 353.000
59.10942 336.000
59.12937 375.000
59.14931 389.000
59.16926 332.000
59.18921 359.000
59.20915 341.000
59.22910 364.000
59.24905 381.000
59.26900 338.000
59.28894 372.000
59.30889 343.000
59.32884 338.000
59.34878 367.000
59.36873 337.000
59.38868 322.000
59.40862 364.000
59.42857 352.000
59.44852 341.000
59.46847 370.000
59.48841 349.000
59.50836 390.000
59.52831 360.000
59.54825 360.000
59.56820 356.000
59.58815 381.000
59.60809 382.000
59.62804 362.000
59.64799 355.000
59.66793 362.000
59.68788 358.000
59.70783 369.000
59.72778 372.000
59.74772 367.000
59.76767 372.000
59.78762 367.000
59.80756 377.000
59.82751 415.000
59.84746 360.000
59.86740 335.000
59.88735 369.000
59.90730 338.000
59.92725 376.000
59.94719 347.000
59.96714 371.000
59.98709 357.000
60.00703 353.000
60.02698 352.000
60.04693 396.000
60.06687 395.000
60.08682 393.000
60.10677 339.000
60.12671 367.000
60.14666 382.000
60.16661 385.000
60.18656 341.000
60.20650 357.000
60.22645 372.000
60.24640 363.000
60.26634 364.000
60.28629 348.000
60.30624 357.000
60.32618 342.000
60.34613 346.000
60.36608 382.000
60.38603 380.000
60.40597 369.000
60.42592 357.000
60.44587 343.000
60.46581 406.000
60.48576 399.000
60.50571 347.000
60.52565 364.000
60.54560 331.000
60.56555 359.000
60.58550 359.000
60.60544 381.000
60.62539 372.000
60.64534 349.000
60.66528 339.000
60.68523 334.000
60.70518 375.000
60.72512 377.000
60.74507 359.000
60.76502 378.000
60.78496 365.000
60.80491 365.000
60.82486 379.000
60.84481 349.000
60.86475 369.000
60.88470 382.000
60.90465 384.000
60.92459 399.000
60.94454 343.000
60.96449 360.000
60.98443 381.000
61.00438 414.000
61.02433 390.000
61.04428 369.000
61.06422 378.000
61.08417 425.000
61.10412 380.000
61.12406 384.000
61.14401 396.000
61.16396 382.000
61.18390 384.000
61.20385 426.000
61.22380 450.000
61.24374 436.000
61.26369 416.000
61.28364 502.000
61.30359 461.000
61.32353 442.000
61.34348 445.000
61.36343 468.000
61.38337 494.000
61.40332 539.000
61.42327 538.000
61.44321 608.000
61.46316 623.000
61.48311 609.000
61.50306 588.000
61.52300 643.000
61.54295 647.000
61.56290 571.000
61.58284 616.000
61.60279 621.000
61.62274 571.000
61.64268 616.000
61.66263 579.000
61.68258 574.000
61.70252 545.000
61.72247 566.000
61.74242 504.000
61.76237 537.000
61.78231 561.000
61.80226 458.000
61.82221 512.000
61.84215 502.000
61.86210 518.000
61.88205 501.000
61.90199 573.000
61.92194 568.000
61.94189 576.000
61.96184 587.000
61.98178 525.000
62.00173 558.000
62.02168 508.000
62.04162 517.000
62.06157 554.000
62.08152 536.000
62.10146 519.000
62.12141 541.000
62.14136 573.000
62.16131 602.000
62.18125 545.000
62.20120 581.000
62.22115 593.000
62.24109 590.000
62.26104 620.000
62.28099 650.000
62.30093 644.000
62.32088 729.000
62.34083 695.000
62.36077 805.000
62.38072 805.000
62.40067 823.000
62.42062 885.000
62.44056 904.000
62.46051 1015.000
62.48046 1011.000
62.50040 1028.000
62.52035 1070.000
62.54030 1127.000
62.56024 1149.000
62.58019 1095.000
62.60014 1144.000
62.62009 1074.000
62.64003 1068.000
62.65998 1097.000
62.67993 1077.000
62.69987 966.000
62.71982 910.000
62.73977 967.000
62.75971 912.000
62.77966 859.000
62.79961 830.000
62.81955 804.000
62.83950 736.000
62.85945 736.000
62.87940 665.000
62.89934 680.000
62.91929 638.000
62.93924 622.000
62.95918 589.000
62.97913 636.000
62.99908 591.000
63.01902 564.000
63.03897 533.000
63.05892 569.000
63.07887 548.000
63.09881 531.000
63.11876 526.000
63.13871 525.000
63.15865 466.000
63.17860 507.000
63.19855 450.000
63.21849 415.000
63.23844 406.000
63.25839 443.000
63.27833 421.000
63.29828 418.000
63.31823 387.000
63.33818 427.000
63.35812 371.000
63.37807 395.000
63.39802 373.000
63.41796 392.000
63.43791 392.000
63.45786 371.000
63.47780 343.000
63.49775 373.000
63.51770 375.000
63.53765 371.000
63.55759 360.000
63.57754 413.000
63.59749 372.000
63.61743 356.000
63.63738 403.000
63.65733 381.000
63.67727 367.000
63.69722 393.000
63.71717 373.000
63.73712 365.000
63.75706 390.000
63.77701 389.000
63.79696 392.000
63.81690 423.000
63.83685 386.000
63.85680 387.000
63.87674 396.000
63.89669 389.000
63.91664 396.000
63.93658 379.000
63.95653 383.000
63.97648 378.000
63.99643 378.000
64.01637 381.000
64.03632 440.000
64.05627 448.000
64.07621 392.000
64.09616 438.000
64.11611 395.000
64.13605 452.000
64.15600 478.000
64.17595 464.000
64.19590 429.000
64.21584 469.000
64.23579 413.000
64.25574 458.000
64.27568 441.000
64.29563 453.000
64.31558 442.000
64.33552 440.000
64.35547 454.000
64.37542 418.000
64.39536 403.000
64.41531 400.000
64.43526 426.000
64.45521 416.000
64.47515 402.000
64.49510 403.000
64.51505 402.000
64.53499 377.000
64.55494 399.000
64.57489 363.000
64.59483 412.000
64.61478 413.000
64.63473 385.000
64.65468 386.000
64.67462 392.000
64.69457 403.000
64.71452 384.000
64.73446 377.000
64.75441 410.000
64.77436 389.000
64.79430 425.000
64.81425 377.000
64.83420 347.000
64.85414 372.000
64.87409 382.000
64.89404 368.000
64.91399 363.000
64.93393 379.000
64.95388 393.000
64.97383 355.000
64.99377 359.000
65.01372 387.000
65.03367 380.000
65.05361 386.000
65.07356 342.000
65.09351 339.000
65.11346 396.000
65.13340 386.000
65.15335 398.000
65.17330 376.000
65.19324 398.000
65.21319 409.000
65.23314 378.000
65.25308 375.000
65.27303 455.000
65.29298 411.000
65.31293 408.000
65.33287 426.000
65.35282 418.000
65.37277 470.000
65.39271 425.000
65.41266 441.000
65.43261 410.000
65.45255 461.000
65.47250 478.000
65.49245 466.000
65.51239 469.000
65.53234 493.000
65.55229 498.000
65.57224 510.000
65.59218 469.000
65.61213 476.000
65.63208 565.000
65.65202 488.000
65.67197 536.000
65.69192 528.000
65.71186 528.000
65.73181 563.000
65.75176 510.000
65.77171 498.000
65.79165 495.000
65.81160 467.000
65.83155 478.000
65.85149 482.000
65.87144 474.000
65.89139 522.000
65.91133 484.000
65.93128 481.000
65.95123 471.000
65.97117 480.000
65.99112 482.000
66.01107 482.000
66.03102 475.000
66.05096 472.000
66.07091 465.000
66.09086 466.000
66.11080 522.000
66.13075 500.000
66.15070 518.000
66.17064 537.000
66.19059 558.000
66.21054 554.000
66.23049 551.000
66.25043 507.000
66.27038 578.000
66.29033 514.000
66.31027 559.000
66.33022 533.000
66.35017 568.000
66.37011 522.000
66.39006 520.000
66.41001 515.000
66.42995 529.000
66.44990 532.000
66.46985 527.000
66.48980 522.000
66.50974 475.000
66.52969 483.000
66.54964 498.000
66.56958 434.000
66.58953 452.000
66.60948 444.000
66.62942 474.000
66.64937 444.000
66.66932 472.000
66.68927 431.000
66.70921 423.000
66.72916 448.000
66.74911 458.000
66.76905 396.000
66.78900 451.000
66.80895 424.000
66.82889 425.000
66.84884 412.000
66.86879 427.000
66.88874 415.000
66.90868 412.000
66.92863 423.000
66.94858 379.000
66.96852 396.000
66.98847 394.000
67.00842 405.000
67.02836 413.000
67.04831 377.000
67.06826 429.000
67.08820 369.000
67.10815 339.000
67.12810 372.000
67.14805 396.000
67.16799 346.000
67.18794 358.000
67.20789 366.000
67.22783 364.000
67.24778 367.000
67.26773 408.000
67.28767 346.000
67.30762 384.000
67.32757 387.000
67.34752 393.000
67.36746 374.000
67.38741 354.000
67.40736 396.000
67.42730 380.000
67.44725 405.000
67.46720 390.000
67.48714 340.000
67.50709 374.000
67.52704 374.000
67.54698 413.000
67.56693 391.000
67.58688 408.000
67.60683 400.000
67.62677 442.000
67.64672 422.000
67.66667 454.000
67.68661 418.000
67.70656 441.000
67.72651 448.000
67.74645 447.000
67.76640 453.000
67.78635 451.000
67.80630 483.000
67.82624 463.000
67.84619 451.000
67.86614 483.000
67.88608 520.000
67.90603 479.000
67.92598 460.000
67.94592 513.000
67.96587 512.000
67.98582 535.000
68.00576 489.000
68.02571 498.000
68.04566 500.000
68.06561 485.000
68.08555 519.000
68.10550 455.000
68.12545 510.000
68.14539 466.000
68.16534 526.000
68.18529 457.000
68.20523 467.000
68.22518 462.000
68.24513 462.000
68.26508 453.000
68.28502 426.000
68.30497 458.000
68.32492 404.000
68.34486 414.000
68.36481 397.000
68.38476 391.000
68.40470 331.000
68.42465 389.000
68.44460 397.000
68.46455 371.000
68.48449 405.000
68.50444 371.000
68.52439 367.000
68.54433 370.000
68.56428 372.000
68.58423 361.000
68.60417 382.000
68.62412 367.000
68.64407 356.000
68.66401 385.000
68.68396 408.000
68.70391 383.000
68.72386 361.000
68.74380 370.000
68.76375 349.000
68.78370 370.000
68.80364 377.000
68.82359 372.000
68.84354 364.000
68.86348 340.000
68.88343 397.000
68.90338 353.000
68.92333 329.000
68.94327 332.000
68.96322 350.000
68.98317 342.000
69.00311 346.000
69.02306 323.000
69.04301 379.000
69.06295 366.000
69.08290 357.000
69.10285 375.000
69.12279 327.000
69.14274 333.000
69.16269 374.000
69.18264 340.000
69.20258 338.000
69.22253 324.000
69.24248 350.000
69.26242 342.000
69.28237 340.000
69.30232 370.000
69.32226 325.000
69.34221 322.000
69.36216 367.000
69.38211 341.000
69.40205 342.000
69.42200 355.000
69.44195 365.000
69.46189 341.000
69.48184 314.000
69.50179 357.000
69.52173 373.000
69.54168 339.000
69.56163 352.000
69.58157 382.000
69.60152 357.000
69.62147 348.000
69.64142 361.000
69.66136 324.000
69.68131 324.000
69.70126 350.000
69.72120 351.000
69.74115 337.000
69.76110 339.000
69.78104 341.000
69.80099 392.000
69.82094 369.000
69.84089 368.000
69.86083 325.000
69.88078 360.000
69.90073 353.000
69.92067 366.000
69.94062 362.000
69.96057 312.000
69.98051 317.000
70.00046 368.000
70.02041 360.000
70.04035 357.000
70.06030 325.000
70.08025 341.000
70.10020 373.000
70.12014 342.000
70.14009 336.000
70.16004 322.000
70.17998 325.000
70.19993 350.000
70.21988 336.000
70.23982 351.000
70.25977 360.000
70.27972 364.000
70.29967 342.000
70.31961 311.000
70.33956 351.000
70.35951 326.000
70.37945 333.000
70.39940 365.000
70.41935 358.000
70.43929 363.000
70.45924 363.000
70.47919 354.000
70.49914 319.000
70.51908 322.000
70.53903 334.000
70.55898 316.000
70.57892 332.000
70.59887 350.000
70.61882 322.000
70.63876 363.000
70.65871 328.000
70.67866 351.000
70.69860 335.000
70.71855 356.000
70.73850 314.000
70.75845 359.000
70.77839 368.000
70.79834 330.000
70.81829 350.000
70.83823 346.000
70.85818 356.000
70.87813 352.000
70.89807 365.000
70.91802 356.000
70.93797 346.000
70.95792 363.000
70.97786 362.000
70.99781 377.000
71.01776 364.000
71.03770 339.000
71.05765 379.000
71.07760 352.000
71.09754 366.000
71.11749 343.000
71.13744 354.000
71.15738 376.000
71.17733 388.000
71.19728 326.000
71.21723 357.000
71.23717 317.000
71.25712 361.000
71.27707 321.000
71.29701 319.000
71.31696 348.000
71.33691 338.000
71.35685 364.000
71.37680 337.000
71.39675 406.000
71.41670 342.000
71.43664 364.000
71.45659 360.000
71.47654 363.000
71.49648 341.000
71.51643 358.000
71.53638 327.000
71.55632 344.000
71.57627 398.000
71.59622 362.000
71.61616 367.000
71.63611 348.000
71.65606 373.000
71.67601 360.000
71.69595 372.000
71.71590 340.000
71.73585 372.000
71.75579 386.000
71.77574 367.000
71.79569 336.000
71.81563 351.000
71.83558 357.000
71.85553 367.000
71.87548 361.000
71.89542 368.000
71.91537 360.000
71.93532 355.000
71.95526 328.000
71.97521 363.000
71.99516 346.000
72.01510 362.000
72.03505 359.000
72.05500 387.000
72.07495 381.000
72.09489 396.000
72.11484 395.000
72.13479 399.000
72.15473 372.000
72.17468 391.000
72.19463 377.000
72.21457 397.000
72.23452 410.000
72.25447 415.000
72.27441 427.000
72.29436 388.000
72.31431 425.000
72.33426 403.000
72.35420 380.000
72.37415 408.000
72.39410 409.000
72.41404 416.000
72.43399 440.000
72.45394 405.000
72.47388 401.000
72.49383 425.000
72.51378 412.000
72.53373 420.000
72.55367 363.000
72.57362 418.000
72.59357 368.000
72.61351 413.000
72.63346 424.000
72.65341 361.000
72.67335 405.000
72.69330 371.000
72.71325 359.000
72.73319 371.000
72.75314 379.000
72.77309 396.000
72.79304 377.000
72.81298 364.000
72.83293 371.000
72.85288 339.000
72.87282 349.000
72.89277 392.000
72.91272 357.000
72.93266 395.000
72.95261 391.000
72.97256 366.000
72.99251 375.000
73.01245 372.000
73.03240 352.000
73.05235 356.000
73.07229 335.000
73.09224 354.000
73.11219 374.000
73.13213 335.000
73.15208 359.000
73.17203 361.000
73.19197 361.000
73.21192 373.000
73.23187 365.000
73.25182 390.000
73.27176 341.000
73.29171 381.000
73.31166 364.000
73.33160 370.000
73.35155 387.000
73.37150 400.000
73.39144 374.000
73.41139 393.000
73.43134 399.000
73.45129 386.000
73.47123 367.000
73.49118 381.000
73.51113 393.000
73.53107 384.000
73.55102 353.000
73.57097 392.000
73.59091 388.000
73.61086 351.000
73.63081 424.000
73.65076 355.000
73.67070 407.000
73.69065 386.000
73.71060 397.000
73.73054 379.000
73.75049 325.000
73.77044 356.000
73.79038 349.000
73.81033 393.000
73.83028 371.000
73.85022 363.000
73.87017 383.000
73.89012 360.000
73.91007 352.000
73.93001 363.000
73.94996 307.000
73.96991 396.000
73.98985 362.000
74.00980 368.000
74.02975 351.000
74.04969 359.000
74.06964 360.000
74.08959 373.000
74.10954 379.000
74.12948 359.000
74.14943 379.000
74.16938 369.000
74.18932 341.000
74.20927 361.000
74.22922 369.000
74.24916 347.000
74.26911 374.000
74.28906 358.000
74.30900 366.000
74.32895 378.000
74.34890 412.000
74.36885 381.000
74.38879 399.000
74.40874 423.000
74.42869 383.000
74.44863 403.000
74.46858 430.000
74.48853 415.000
74.50847 413.000
74.52842 441.000
74.54837 447.000
74.56832 426.000
74.58826 436.000
74.60821 446.000
74.62816 445.000
74.64810 451.000
74.66805 500.000
74.68800 448.000
74.70794 485.000
74.72789 483.000
74.74784 506.000
74.76778 510.000
74.78773 477.000
74.80768 516.000
74.82763 596.000
74.84757 582.000
74.86752 563.000
74.88747 542.000
74.90741 607.000
74.92736 616.000
74.94731 584.000
74.96725 619.000
74.98720 623.000
75.00715 600.000
75.02710 582.000
75.04704 647.000
75.06699 653.000
75.08694 657.000
75.10688 671.000
75.12683 648.000
75.14678 648.000
75.16672 608.000
75.18667 615.000
75.20662 613.000
75.22657 591.000
75.24651 582.000
75.26646 601.000
75.28641 560.000
75.30635 540.000
75.32630 524.000
75.34625 501.000
75.36619 522.000
75.38614 523.000
75.40609 479.000
75.42603 492.000
75.44598 504.000
75.46593 470.000
75.48588 463.000
75.50582 415.000
75.52577 435.000
75.54572 402.000
75.56566 406.000
75.58561 418.000
75.60556 415.000
75.62550 417.000
75.64545 384.000
75.66540 404.000
75.68535 380.000
75.70529 357.000
75.72524 396.000
75.74519 405.000
75.76513 360.000
75.78508 400.000
75.80503 338.000
75.82497 372.000
75.84492 379.000
75.86487 364.000
75.88481 391.000
75.90476 385.000
75.92471 378.000
75.94466 394.000
75.96460 390.000
75.98455 372.000
76.00450 386.000
76.02444 391.000
76.04439 386.000
76.06434 401.000
76.08428 379.000
76.10423 348.000
76.12418 359.000
76.14413 350.000
76.16407 360.000
76.18402 368.000
76.20397 350.000
76.22391 372.000
76.24386 351.000
76.26381 355.000
76.28375 341.000
76.30370 364.000
76.32365 333.000
76.34359 369.000
76.36354 338.000
76.38349 340.000
76.40344 349.000
76.42338 324.000
76.44333 318.000
76.46328 331.000
76.48322 349.000
76.50317 328.000
76.52312 365.000
76.54306 321.000
76.56301 370.000
76.58296 346.000
76.60291 371.000
76.62285 341.000
76.64280 372.000
76.66275 374.000
76.68269 348.000
76.70264 338.000
76.72259 366.000
76.74253 375.000
76.76248 330.000
76.78243 340.000
76.80238 365.000
76.82232 340.000
76.84227 343.000
76.86222 397.000
76.88216 361.000
76.90211 360.000
76.92206 367.000
76.94200 367.000
76.96195 378.000
76.98190 342.000
77.00184 323.000
77.02179 379.000
77.04174 339.000
77.06169 385.000
77.08163 319.000
77.10158 325.000
77.12153 337.000
77.14147 362.000
77.16142 383.000
77.18137 366.000
77.20131 341.000
77.22126 331.000
77.24121 352.000
77.26116 342.000
77.28110 345.000
77.30105 342.000
77.32100 344.000
77.34094 357.000
77.36089 346.000
77.38084 327.000
77.40078 402.000
77.42073 329.000
77.44068 380.000
77.46062 384.000
77.48057 344.000
77.50052 298.000
77.52047 368.000
77.54041 363.000
77.56036 384.000
77.58031 355.000
77.60025 342.000
77.62020 300.000
77.64015 341.000
77.66009 360.000
77.68004 358.000
77.69999 356.000
77.71994 353.000
77.73988 358.000
77.75983 335.000
77.77978 385.000
77.79972 346.000
77.81967 364.000
77.83962 325.000
77.85956 398.000
77.87951 374.000
77.89946 368.000
77.91940 360.000
77.93935 373.000
77.95930 336.000
77.97925 356.000
77.99919 344.000
78.01914 365.000
78.03909 371.000
78.05903 374.000
78.07898 399.000
78.09893 379.000
78.11887 390.000
78.13882 389.000
78.15877 391.000
78.17872 346.000
78.19866 375.000
78.21861 391.000
78.23856 383.000
78.25850 356.000
78.27845 413.000
78.29840 412.000
78.31834 355.000
78.33829 384.000
78.35824 398.000
78.37819 382.000
78.39813 419.000
78.41808 417.000
78.43803 359.000
78.45797 412.000
78.47792 361.000
78.49787 373.000
78.51781 346.000
78.53776 389.000
78.55771 413.000
78.57765 386.000
78.59760 379.000
78.61755 397.000
78.63750 404.000
78.65744 394.000
78.67739 399.000
78.69734 389.000
78.71728 439.000
78.73723 458.000
78.75718 444.000
78.77712 426.000
78.79707 408.000
78.81702 459.000
78.83697 491.000
78.85691 468.000
78.87686 467.000
78.89681 498.000
78.91675 489.000
78.93670 516.000
78.95665 519.000
78.97659 504.000
78.99654 510.000
79.01649 537.000
79.03643 518.000
79.05638 526.000
79.07633 571.000
79.09628 482.000
79.11622 533.000
79.13617 524.000
79.15612 460.000
79.17606 478.000
79.19601 479.000
79.21596 461.000
79.23590 465.000
79.25585 443.000
79.27580 472.000
79.29575 435.000
79.31569 442.000
79.33564 462.000
79.35559 438.000
79.37553 409.000
79.39548 401.000
79.41543 402.000
79.43537 395.000
79.45532 404.000
79.47527 419.000
79.49521 395.000
79.51516 356.000
79.53511 411.000
79.55506 374.000
79.57500 348.000
79.59495 359.000
79.61490 334.000
79.63484 388.000
79.65479 373.000
79.67474 327.000
79.69468 360.000
79.71463 358.000
79.73458 343.000
79.75453 365.000
79.77447 380.000
79.79442 388.000
79.81437 362.000
79.83431 352.000
79.85426 319.000
79.87421 369.000
79.89415 360.000
79.91410 353.000
79.93405 353.000
79.95399 389.000
79.97394 343.000
79.99389 343.000
80.01384 354.000
80.03378 355.000
80.05373 377.000
80.07368 348.000
80.09362 419.000
80.11357 362.000
80.13352 352.000
80.15346 354.000
80.17341 390.000
80.19336 354.000
80.21331 381.000
80.23325 338.000
80.25320 347.000
80.27315 409.000
80.29309 337.000
80.31304 373.000
80.33299 386.000
80.35293 406.000
80.37288 356.000
80.39283 398.000
80.41278 367.000
80.43272 348.000
80.45267 371.000
80.47262 382.000
80.49256 351.000
80.51251 352.000
80.53246 344.000
80.55240 385.000
80.57235 336.000
80.59230 342.000
80.61224 369.000
80.63219 321.000
80.65214 363.000
80.67209 343.000
80.69203 343.000
80.71198 330.000
80.73193 341.000
80.75187 367.000
80.77182 351.000
80.79177 335.000
80.81171 348.000
80.83166 342.000
80.85161 322.000
80.87156 317.000
80.89150 380.000
80.91145 307.000
80.93140 331.000
80.95134 345.000
80.97129 339.000
80.99124 347.000
81.01118 404.000
81.03113 352.000
81.05108 342.000
81.07102 371.000
81.09097 350.000
81.11092 376.000
81.13087 339.000
81.15081 363.000
81.17076 373.000
81.19071 332.000
81.21065 364.000
81.23060 315.000
81.25055 376.000
81.27049 336.000
81.29044 329.000
81.31039 368.000
81.33034 333.000
81.35028 338.000
81.37023 352.000
81.39018 373.000
81.41012 361.000
81.43007 350.000
81.45002 336.000
81.46996 353.000
81.48991 350.000
81.50986 353.000
81.52980 328.000
81.54975 354.000
81.56970 342.000
81.58965 307.000
81.60959 342.000
81.62954 355.000
81.64949 356.000
81.66943 373.000
81.68938 348.000
81.70933 355.000
81.72927 368.000
81.74922 347.000
81.76917 350.000
81.78912 346.000
81.80906 323.000
81.82901 369.000
81.84896 342.000
81.86890 358.000
81.88885 353.000
81.90880 351.000
81.92874 358.000
81.94869 357.000
81.96864 350.000
81.98859 346.000
82.00853 370.000
82.02848 342.000
82.04843 403.000
82.06837 358.000
82.08832 325.000
82.10827 391.000
82.12821 351.000
82.14816 339.000
82.16811 347.000
82.18805 379.000
82.20800 392.000
82.22795 351.000
82.24790 339.000
82.26784 378.000
82.28779 369.000
82.30774 383.000
82.32768 371.000
82.34763 374.000
82.36758 374.000
82.38752 373.000
82.40747 367.000
82.42742 379.000
82.44737 397.000
82.46731 373.000
82.48726 425.000
82.50721 369.000
82.52715 396.000
82.54710 368.000
82.56705 379.000
82.58699 388.000
82.60694 370.000
82.62689 392.000
82.64683 377.000
82.66678 399.000
82.68673 381.000
82.70668 393.000
82.72662 402.000
82.74657 390.000
82.76652 376.000
82.78646 417.000
82.80641 374.000
82.82636 407.000
82.84630 385.000
82.86625 387.000
82.88620 381.000
82.90615 386.000
82.92609 407.000
82.94604 380.000
82.96599 377.000
82.98593 386.000
83.00588 377.000
83.02583 408.000
83.04577 429.000
83.06572 401.000
83.08567 365.000
83.10561 389.000
83.12556 360.000
83.14551 372.000
83.16546 353.000
83.18540 406.000
83.20535 393.000
83.22530 394.000
83.24524 379.000
83.26519 388.000
83.28514 411.000
83.30508 366.000
83.32503 385.000
83.34498 352.000
83.36493 368.000
83.38487 372.000
83.40482 353.000
83.42477 409.000
83.44471 356.000
83.46466 365.000
83.48461 368.000
83.50455 414.000
83.52450 386.000
83.54445 384.000
83.56440 340.000
83.58434 360.000
83.60429 358.000
83.62424 397.000
83.64418 378.000
83.66413 398.000
83.68408 384.000
83.70402 403.000
83.72397 382.000
83.74392 380.000
83.76386 407.000
83.78381 422.000
83.80376 380.000
83.82371 357.000
83.84365 377.000
83.86360 423.000
83.88355 358.000
83.90349 407.000
83.92344 406.000
83.94339 364.000
83.96333 360.000
83.98328 372.000
84.00323 357.000
84.02318 374.000
84.04312 370.000
84.06307 411.000
84.08302 367.000
84.10296 341.000
84.12291 363.000
84.14286 370.000
84.16280 338.000
84.18275 321.000
84.20270 402.000
84.22264 372.000
84.24259 359.000
84.26254 362.000
84.28249 359.000
84.30243 361.000
84.32238 328.000
84.34233 376.000
84.36227 335.000
84.38222 359.000
84.40217 362.000
84.42211 361.000
84.44206 332.000
84.46201 349.000
84.48196 332.000
84.50190 360.000
84.52185 370.000
84.54180 369.000
84.56174 332.000
84.58169 362.000
84.60164 395.000
84.62158 382.000
84.64153 388.000
84.66148 387.000
84.68142 378.000
84.70137 374.000
84.72132 371.000
84.74127 366.000
84.76121 338.000
84.78116 353.000
84.80111 342.000
84.82105 357.000
84.84100 335.000
84.86095 370.000
84.88089 351.000
84.90084 364.000
84.92079 329.000
84.94074 348.000
84.96068 340.000
84.98063 349.000
85.00058 362.000
85.02052 352.000
85.04047 328.000
85.06042 366.000
85.08036 351.000
85.10031 359.000
85.12026 349.000
85.14021 341.000
85.16015 358.000
85.18010 365.000
85.20005 330.000
85.21999 369.000
85.23994 325.000
85.25989 343.000
85.27983 351.000
85.29978 334.000
85.31973 306.000
85.33967 326.000
85.35962 352.000
85.37957 327.000
85.39952 364.000
85.41946 342.000
85.43941 312.000
85.45936 334.000
85.47930 332.000
85.49925 413.000
85.51920 374.000
85.53914 318.000
85.55909 336.000
85.57904 347.000
85.59899 351.000
85.61893 351.000
85.63888 372.000
85.65883 337.000
85.67877 320.000
85.69872 339.000
85.71867 363.000
85.73861 333.000
85.75856 380.000
85.77851 339.000
85.79845 336.000
85.81840 344.000
85.83835 314.000
85.85830 357.000
85.87824 335.000
85.89819 359.000
85.91814 319.000
85.93808 338.000
85.95803 336.000
85.97798 360.000
85.99792 354.000
86.01787 340.000
86.03782 332.000
86.05777 339.000
86.07771 336.000
86.09766 325.000
86.11761 315.000
86.13755 342.000
86.15750 319.000
86.17745 365.000
86.19739 350.000
86.21734 348.000
86.23729 333.000
86.25723 346.000
86.27718 389.000
86.29713 335.000
86.31708 337.000
86.33702 345.000
86.35697 336.000
86.37692 363.000
86.39686 353.000
86.41681 374.000
86.43676 374.000
86.45670 327.000
86.47665 337.000
86.49660 362.000
86.51655 349.000
86.53649 367.000
86.55644 344.000
86.57639 381.000
86.59633 388.000
86.61628 366.000
86.63623 336.000
86.65617 353.000
86.67612 377.000
86.69607 390.000
86.71602 403.000
86.73596 369.000
86.75591 401.000
86.77586 383.000
86.79580 345.000
86.81575 358.000
86.83570 346.000
86.85564 380.000
86.87559 386.000
86.89554 354.000
86.91548 374.000
86.93543 381.000
86.95538 335.000
86.97533 356.000
86.99527 366.000
87.01522 373.000
87.03517 383.000
87.05511 371.000
87.07506 385.000
87.09501 371.000
87.11495 360.000
87.13490 388.000
87.15485 365.000
87.17480 427.000
87.19474 383.000
87.21469 348.000
87.23464 389.000
87.25458 343.000
87.27453 391.000
87.29448 382.000
87.31442 402.000
87.33437 384.000
87.35432 398.000
87.37426 368.000
87.39421 354.000
87.41416 395.000
87.43411 390.000
87.45405 368.000
87.47400 350.000
87.49395 361.000
87.51389 408.000
87.53384 342.000
87.55379 374.000
87.57373 342.000
87.59368 317.000
87.61363 340.000
87.63358 348.000
87.65352 347.000
87.67347 350.000
87.69342 353.000
87.71336 392.000
87.73331 331.000
87.75326 363.000
87.77320 354.000
87.79315 372.000
87.81310 361.000
87.83304 369.000
87.85299 379.000
87.87294 341.000
87.89289 379.000
87.91283 353.000
87.93278 362.000
87.95273 357.000
87.97267 329.000
87.99262 363.000
88.01257 352.000
88.03251 342.000
88.05246 340.000
88.07241 370.000
88.09236 381.000
88.11230 354.000
88.13225 323.000
88.15220 341.000
88.17214 345.000
88.19209 346.000
88.21204 327.000
88.23198 352.000
88.25193 399.000
88.27188 375.000
88.29183 365.000
88.31177 363.000
88.33172 345.000
88.35167 353.000
88.37161 344.000
88.39156 340.000
88.41151 332.000
88.43145 351.000
88.45140 311.000
88.47135 308.000
88.49129 349.000
88.51124 391.000
88.53119 341.000
88.55114 344.000
88.57108 344.000
88.59103 362.000
88.61098 316.000
88.63092 371.000
88.65087 333.000
88.67082 342.000
88.69076 346.000
88.71071 354.000
88.73066 330.000
88.75061 333.000
88.77055 323.000
88.79050 322.000
88.81045 352.000
88.83039 346.000
88.85034 343.000
88.87029 364.000
88.89023 328.000
88.91018 361.000
88.93013 335.000
88.95007 348.000
88.97002 363.000
88.98997 347.000
89.00992 362.000
89.02986 350.000
89.04981 385.000
89.06976 356.000
89.08970 366.000
89.10965 356.000
89.12960 360.000
89.14954 354.000
89.16949 349.000
89.18944 371.000
89.20939 335.000
89.22933 366.000
89.24928 369.000
89.26923 370.000
89.28917 367.000
89.30912 338.000
89.32907 350.000
89.34901 348.000
89.36896 367.000
89.38891 362.000
89.40885 322.000
89.42880 383.000
89.44875 363.000
89.46870 390.000
89.48864 381.000
89.50859 359.000
89.52854 378.000
89.54848 377.000
89.56843 377.000
89.58838 393.000
89.60832 371.000
89.62827 360.000
89.64822 378.000
89.66817 362.000
89.68811 353.000
89.70806 338.000
89.72801 383.000
89.74795 402.000
89.76790 388.000
89.78785 386.000
89.80779 353.000
89.82774 371.000
89.84769 390.000
89.86764 394.000
89.88758 382.000
89.90753 376.000
89.92748 377.000
89.94742 357.000
89.96737 392.000
89.98732 377.000
90.00726 359.000
