10.00000 186.000
10.01995 171.000
10.03989 151.000
10.05984 175.000
10.07979 152.000
10.09973 143.000
10.11968 141.000
10.13963 165.000
10.15958 154.000
10.17952 141.000
10.19947 160.000
10.21942 145.000
10.23936 140.000
10.25931 186.000
10.27926 133.000
10.29920 150.000
10.31915 148.000
10.33910 153.000
10.35905 158.000
10.37899 156.000
10.39894 151.000
10.41889 156.000
10.43883 150.000
10.45878 162.000
10.47873 164.000
10.49867 139.000
10.51862 155.000
10.53857 170.000
10.55851 145.000
10.57846 130.000
10.59841 128.000
10.61836 148.000
10.63830 142.000
10.65825 173.000
10.67820 146.000
10.69814 162.000
10.71809 182.000
10.73804 161.000
10.75798 166.000
10.77793 133.000
10.79788 141.000
10.81783 142.000
10.83777 151.000
10.85772 166.000
10.87767 148.000
10.89761 169.000
10.91756 153.000
10.93751 141.000
10.95745 161.000
10.97740 154.000
10.99735 158.000
11.01730 167.000
11.03724 144.000
11.05719 171.000
11.07714 153.000
11.09708 157.000
11.11703 153.000
11.13698 140.000
11.15692 141.000
11.17687 115.000
11.19682 142.000
11.21676 133.000
11.23671 138.000
11.25666 163.000
11.27661 146.000
11.29655 169.000
11.31650 149.000
11.33645 130.000
11.35639 153.000
11.37634 161.000
11.39629 157.000
11.41623 162.000
11.43618 156.000
11.45613 137.000
11.47608 152.000
11.49602 147.000
11.51597 165.000
11.53592 139.000
11.55586 159.000
11.57581 138.000
11.59576 163.000
11.61570 166.000
11.63565 159.000
11.65560 169.000
11.67554 152.000
11.69549 150.000
11.71544 173.000
11.73539 154.000
11.75533 156.000
11.77528 161.000
11.79523 146.000
11.81517 152.000
11.83512 144.000
11.85507 164.000
11.87501 161.000
11.89496 161.000
11.91491 156.000
11.93486 169.000
11.95480 150.000
11.97475 155.000
11.99470 159.000
12.01464 180.000
12.03459 152.000
12.05454 162.000
12.07448 140.000
12.09443 158.000
12.11438 151.000
12.13432 161.000
12.15427 158.000
12.17422 145.000
12.19417 167.000
12.21411 138.000
12.23406 134.000
12.25401 162.000
12.27395 143.000
12.29390 158.000
12.31385 148.000
12.33379 169.000
12.35374 156.000
12.37369 145.000
12.39364 155.000
12.41358 166.000
12.43353 143.000
12.45348 148.000
12.47342 128.000
12.49337 142.000
12.51332 150.000
12.53326 149.000
12.55321 158.000
12.57316 160.000
12.59311 157.000
12.61305 134.000
12.63300 136.000
12.65295 175.000
12.67289 165.000
12.69284 150.000
12.71279 148.000
12.73273 148.000
12.75268 132.000
12.77263 147.000
12.79257 160.000
12.81252 139.000
12.83247 151.000
12.85242 144.000
12.87236 158.000
12.89231 155.000
12.91226 167.000
12.93220 149.000
12.95215 170.000
12.97210 149.000
12.99204 163.000
13.01199 158.000
13.03194 136.000
13.05189 151.000
13.07183 160.000
13.09178 165.000
13.11173 157.000
13.13167 154.000
13.15162 137.000
13.17157 165.000
13.19151 170.000
13.21146 147.000
13.23141 139.000
13.25135 139.000
13.27130 157.000
13.29125 165.000
13.31120 149.000
13.33114 163.000
13.35109 155.000
13.37104 151.000
13.39098 166.000
13.41093 132.000
13.43088 163.000
13.45082 144.000
13.47077 145.000
13.49072 143.000
13.51067 159.000
13.53061 178.000
13.55056 146.000
13.57051 158.000
13.59045 160.000
13.61040 151.000
13.63035 151.000
13.65029 142.000
13.67024 153.000
13.69019 180.000
13.71013 156.000
13.73008 136.000
13.75003 163.000
13.76998 154.000
13.78992 139.000
13.80987 154.000
13.82982 156.000
13.84976 164.000
13.86971 139.000
13.88966 163.000
13.90960 123.000
13.92955 148.000
13.94950 154.000
13.96945 159.000
13.98939 135.000
14.00934 138.000
14.02929 141.000
14.04923 143.000
14.06918 153.000
14.08913 150.000
14.10907 146.000
14.12902 157.000
14.14897 150.000
14.16892 154.000
14.18886 141.000
14.20881 136.000
14.22876 144.000
14.24870 138.000
14.26865 151.000
14.28860 153.000
14.30854 162.000
14.32849 142.000
14.34844 164.000
14.36838 137.000
14.38833 164.000
14.40828 144.000
14.42823 145.000
14.44817 132.000
14.46812 127.000
14.48807 165.000
14.50801 154.000
14.52796 177.000
14.54791 148.000
14.56785 153.000
14.58780 144.000
14.60775 152.000
14.62770 168.000
14.64764 171.000
14.66759 156.000
14.68754 166.000
14.70748 179.000
14.72743 172.000
14.74738 152.000
14.76732 146.000
14.78727 150.000
14.80722 160.000
14.82716 161.000
14.84711 155.000
14.86706 139.000
14.88701 146.000
14.90695 146.000
14.92690 159.000
14.94685 137.000
14.96679 168.000
14.98674 127.000
15.00669 174.000
15.02663 157.000
15.04658 154.000
15.06653 153.000
15.08648 162.000
15.10642 137.000
15.12637 152.000
15.14632 161.000
15.16626 120.000
15.18621 171.000
15.20616 146.000
15.22610 165.000
15.24605 170.000
15.26600 163.000
15.28594 177.000
15.30589 165.000
15.32584 161.000
15.34579 165.000
15.36573 160.000
15.38568 144.000
15.40563 159.000
15.42557 157.000
15.44552 158.000
15.46547 157.000
15.48541 173.000
15.50536 158.000
15.52531 167.000
15.54526 142.000
15.56520 169.000
15.58515 182.000
15.60510 184.000
15.62504 175.000
15.64499 152.000
15.66494 193.000
15.68488 173.000
15.70483 178.000
15.72478 187.000
15.74472 205.000
15.76467 222.000
15.78462 236.000
15.80457 280.000
15.82451 292.000
15.84446 394.000
15.86441 413.000
15.88435 433.000
15.90430 436.000
15.92425 352.000
15.94419 269.000
15.96414 293.000
15.98409 219.000
16.00404 202.000
16.02398 231.000
16.04393 247.000
16.06388 245.000
16.08382 260.000
16.10377 242.000
16.12372 304.000
16.14366 329.000
16.16361 341.000
16.18356 387.000
16.20351 410.000
16.22345 453.000
16.24340 550.000
16.26335 559.000
16.28329 604.000
16.30324 744.000
16.32319 841.000
16.34313 1038.000
16.36308 1179.000
16.38303 1262.000
16.40297 1248.000
16.42292 1212.000
16.44287 1059.000
16.46282 864.000
16.48276 731.000
16.50271 614.000
16.52266 485.000
16.54260 405.000
16.56255 359.000
16.58250 311.000
16.60244 269.000
16.62239 271.000
16.64234 231.000
16.66229 257.000
16.68223 245.000
16.70218 217.000
16.72213 236.000
16.74207 243.000
16.76202 193.000
16.78197 213.000
16.80191 229.000
16.82186 200.000
16.84181 213.000
16.86175 196.000
16.88170 234.000
16.90165 221.000
16.92160 226.000
16.94154 195.000
16.96149 204.000
16.98144 217.000
17.00138 211.000
17.02133 194.000
17.04128 183.000
17.06122 155.000
17.08117 184.000
17.10112 189.000
17.12107 189.000
17.14101 182.000
17.16096 182.000
17.18091 208.000
17.20085 202.000
17.22080 189.000
17.24075 225.000
17.26069 213.000
17.28064 195.000
17.30059 205.000
17.32053 218.000
17.34048 185.000
17.36043 197.000
17.38038 171.000
17.40032 160.000
17.42027 170.000
17.44022 171.000
17.46016 190.000
17.48011 174.000
17.50006 188.000
17.52000 178.000
17.53995 197.000
17.55990 159.000
17.57985 190.000
17.59979 136.000
17.61974 147.000
17.63969 165.000
17.65963 173.000
17.67958 184.000
17.69953 165.000
17.71947 148.000
17.73942 149.000
17.75937 147.000
17.77932 164.000
17.79926 151.000
17.81921 159.000
17.83916 173.000
17.85910 175.000
17.87905 147.000
17.89900 156.000
17.91894 185.000
17.93889 137.000
17.95884 174.000
17.97878 148.000
17.99873 176.000
18.01868 171.000
18.03863 161.000
18.05857 154.000
18.07852 145.000
18.09847 161.000
18.11841 172.000
18.13836 158.000
18.15831 164.000
18.17825 164.000
18.19820 163.000
18.21815 154.000
18.23810 146.000
18.25804 183.000
18.27799 159.000
18.29794 174.000
18.31788 189.000
18.33783 182.000
18.35778 205.000
18.37772 250.000
18.39767 285.000
18.41762 291.000
18.43756 275.000
18.45751 235.000
18.47746 192.000
18.49741 190.000
18.51735 160.000
18.53730 138.000
18.55725 167.000
18.57719 157.000
18.59714 160.000
18.61709 149.000
18.63703 159.000
18.65698 160.000
18.67693 169.000
18.69688 163.000
18.71682 145.000
18.73677 155.000
18.75672 151.000
18.77666 166.000
18.79661 137.000
18.81656 152.000
18.83650 149.000
18.85645 145.000
18.87640 144.000
18.89634 161.000
18.91629 152.000
18.93624 156.000
18.95619 167.000
18.97613 160.000
18.99608 158.000
19.01603 157.000
19.03597 152.000
19.05592 155.000
19.07587 149.000
19.09581 147.000
19.11576 165.000
19.13571 147.000
19.15566 146.000
19.17560 142.000
19.19555 147.000
19.21550 145.000
19.23544 188.000
19.25539 141.000
19.27534 145.000
19.29528 154.000
19.31523 169.000
19.33518 126.000
19.35513 155.000
19.37507 163.000
19.39502 147.000
19.41497 157.000
19.43491 155.000
19.45486 139.000
19.47481 146.000
19.49475 139.000
19.51470 162.000
19.53465 137.000
19.55459 167.000
19.57454 140.000
19.59449 160.000
19.61444 151.000
19.63438 155.000
19.65433 136.000
19.67428 177.000
19.69422 147.000
19.71417 166.000
19.73412 142.000
19.75406 161.000
19.77401 151.000
19.79396 162.000
19.81391 142.000
19.83385 142.000
19.85380 148.000
19.87375 152.000
19.89369 153.000
19.91364 141.000
19.93359 136.000
19.95353 160.000
19.97348 153.000
19.99343 160.000
20.01337 128.000
20.03332 159.000
20.05327 136.000
20.07322 130.000
20.09316 174.000
20.11311 165.000
20.13306 134.000
20.15300 184.000
20.17295 141.000
20.19290 141.000
20.21284 170.000
20.23279 139.000
20.25274 155.000
20.27269 139.000
20.29263 162.000
20.31258 156.000
20.33253 126.000
20.35247 155.000
20.37242 153.000
20.39237 172.000
20.41231 165.000
20.43226 148.000
20.45221 163.000
20.47215 151.000
20.49210 164.000
20.51205 155.000
20.53200 146.000
20.55194 166.000
20.57189 163.000
20.59184 168.000
20.61178 132.000
20.63173 160.000
20.65168 185.000
20.67162 202.000
20.69157 200.000
20.71152 223.000
20.73147 274.000
20.75141 310.000
20.77136 369.000
20.79131 379.000
20.81125 405.000
20.83120 417.000
20.85115 392.000
20.87109 452.000
20.89104 364.000
20.91099 331.000
20.93094 278.000
20.95088 280.000
20.97083 287.000
20.99078 270.000
21.01072 250.000
21.03067 245.000
21.05062 202.000
21.07056 247.000
21.09051 166.000
21.11046 172.000
21.13040 165.000
21.15035 170.000
21.17030 177.000
21.19025 150.000
21.21019 174.000
21.23014 169.000
21.25009 176.000
21.27003 152.000
21.28998 163.000
21.30993 157.000
21.32987 152.000
21.34982 156.000
21.36977 139.000
21.38972 153.000
21.40966 141.000
21.42961 145.000
21.44956 162.000
21.46950 147.000
21.48945 140.000
21.50940 143.000
21.52934 144.000
21.54929 150.000
21.56924 165.000
21.58918 162.000
21.60913 155.000
21.62908 157.000
21.64903 156.000
21.66897 127.000
21.68892 146.000
21.70887 161.000
21.72881 153.000
21.74876 147.000
21.76871 146.000
21.78865 150.000
21.80860 137.000
21.82855 160.000
21.84850 178.000
21.86844 153.000
21.88839 130.000
21.90834 163.000
21.92828 150.000
21.94823 127.000
21.96818 145.000
21.98812 150.000
22.00807 153.000
22.02802 172.000
22.04796 141.000
22.06791 145.000
22.08786 132.000
22.10781 144.000
22.12775 155.000
22.14770 141.000
22.16765 173.000
22.18759 135.000
22.20754 156.000
22.22749 156.000
22.24743 144.000
22.26738 152.000
22.28733 159.000
22.30728 160.000
22.32722 142.000
22.34717 154.000
22.36712 139.000
22.38706 150.000
22.40701 159.000
22.42696 141.000
22.44690 135.000
22.46685 154.000
22.48680 174.000
22.50675 144.000
22.52669 151.000
22.54664 163.000
22.56659 133.000
22.58653 138.000
22.60648 154.000
22.62643 158.000
22.64637 147.000
22.66632 162.000
22.68627 146.000
22.70621 151.000
22.72616 154.000
22.74611 186.000
22.76606 153.000
22.78600 141.000
22.80595 174.000
22.82590 154.000
22.84584 148.000
22.86579 152.000
22.88574 164.000
22.90568 140.000
22.92563 148.000
22.94558 170.000
22.96553 148.000
22.98547 156.000
23.00542 173.000
23.02537 137.000
23.04531 161.000
23.06526 148.000
23.08521 134.000
23.10515 157.000
23.12510 139.000
23.14505 145.000
23.16499 172.000
23.18494 146.000
23.20489 120.000
23.22484 133.000
23.24478 131.000
23.26473 132.000
23.28468 128.000
23.30462 156.000
23.32457 137.000
23.34452 164.000
23.36446 156.000
23.38441 134.000
23.40436 138.000
23.42431 163.000
23.44425 160.000
23.46420 176.000
23.48415 133.000
23.50409 136.000
23.52404 165.000
23.54399 164.000
23.56393 171.000
23.58388 147.000
23.60383 155.000
23.62377 127.000
23.64372 163.000
23.66367 155.000
23.68362 157.000
23.70356 155.000
23.72351 145.000
23.74346 152.000
23.76340 178.000
23.78335 144.000
23.80330 157.000
23.82324 149.000
23.84319 125.000
23.86314 148.000
23.88309 142.000
23.90303 149.000
23.92298 149.000
23.94293 149.000
23.96287 141.000
23.98282 163.000
24.00277 158.000
24.02271 153.000
24.04266 162.000
24.06261 134.000
24.08256 141.000
24.10250 148.000
24.12245 145.000
24.14240 168.000
24.16234 159.000
24.18229 147.000
24.20224 166.000
24.22218 156.000
24.24213 144.000
24.26208 146.000
24.28202 154.000
24.30197 155.000
24.32192 161.000
24.34187 141.000
24.36181 150.000
24.38176 165.000
24.40171 136.000
24.42165 144.000
24.44160 148.000
24.46155 157.000
24.48149 164.000
24.50144 143.000
24.52139 137.000
24.54134 160.000
24.56128 143.000
24.58123 152.000
24.60118 160.000
24.62112 161.000
24.64107 171.000
24.66102 142.000
24.68096 154.000
24.70091 165.000
24.72086 154.000
24.74080 151.000
24.76075 154.000
24.78070 169.000
24.80065 144.000
24.82059 165.000
24.84054 144.000
24.86049 164.000
24.88043 133.000
24.90038 160.000
24.92033 158.000
24.94027 182.000
24.96022 154.000
24.98017 193.000
25.00012 153.000
25.02006 173.000
25.04001 182.000
25.05996 158.000
25.07990 171.000
25.09985 150.000
25.11980 169.000
25.13974 136.000
25.15969 144.000
25.17964 162.000
25.19958 148.000
25.21953 159.000
25.23948 139.000
25.25943 147.000
25.27937 149.000
25.29932 140.000
25.31927 168.000
25.33921 149.000
25.35916 156.000
25.37911 173.000
25.39905 161.000
25.41900 154.000
25.43895 148.000
25.45890 146.000
25.47884 139.000
25.49879 140.000
25.51874 179.000
25.53868 161.000
25.55863 150.000
25.57858 137.000
25.59852 155.000
25.61847 136.000
25.63842 155.000
25.65837 152.000
25.67831 145.000
25.69826 154.000
25.71821 146.000
25.73815 163.000
25.75810 142.000
25.77805 126.000
25.79799 166.000
25.81794 161.000
25.83789 181.000
25.85783 141.000
25.87778 154.000
25.89773 184.000
25.91768 155.000
25.93762 162.000
25.95757 175.000
25.97752 155.000
25.99746 153.000
26.01741 143.000
26.03736 156.000
26.05730 145.000
26.07725 181.000
26.09720 149.000
26.11715 133.000
26.13709 165.000
26.15704 155.000
26.17699 148.000
26.19693 153.000
26.21688 157.000
26.23683 160.000
26.25677 160.000
26.27672 172.000
26.29667 156.000
26.31661 150.000
26.33656 168.000
26.35651 142.000
26.37646 141.000
26.39640 163.000
26.41635 172.000
26.43630 168.000
26.45624 178.000
26.47619 160.000
26.49614 145.000
26.51608 160.000
26.53603 153.000
26.55598 145.000
26.57593 150.000
26.59587 160.000
26.61582 198.000
26.63577 170.000
26.65571 148.000
26.67566 159.000
26.69561 173.000
26.71555 159.000
26.73550 160.000
26.75545 139.000
26.77539 138.000
26.79534 154.000
26.81529 182.000
26.83524 163.000
26.85518 166.000
26.87513 176.000
26.89508 152.000
26.91502 155.000
26.93497 156.000
26.95492 148.000
26.97486 160.000
26.99481 170.000
27.01476 135.000
27.03471 155.000
27.05465 175.000
27.07460 159.000
27.09455 155.000
27.11449 150.000
27.13444 158.000
27.15439 164.000
27.17433 148.000
27.19428 162.000
27.21423 149.000
27.23417 171.000
27.25412 160.000
27.27407 166.000
27.29402 157.000
27.31396 179.000
27.33391 181.000
27.35386 144.000
27.37380 166.000
27.39375 145.000
27.41370 186.000
27.43364 156.000
27.45359 150.000
27.47354 172.000
27.49349 159.000
27.51343 172.000
27.53338 167.000
27.55333 159.000
27.57327 171.000
27.59322 209.000
27.61317 151.000
27.63311 177.000
27.65306 161.000
27.67301 140.000
27.69296 165.000
27.71290 151.000
27.73285 130.000
27.75280 153.000
27.77274 154.000
27.79269 175.000
27.81264 168.000
27.83258 174.000
27.85253 180.000
27.87248 157.000
27.89242 161.000
27.91237 155.000
27.93232 149.000
27.95227 160.000
27.97221 153.000
27.99216 164.000
28.01211 149.000
28.03205 162.000
28.05200 143.000
28.07195 185.000
28.09189 155.000
28.11184 165.000
28.13179 147.000
28.15174 165.000
28.17168 153.000
28.19163 166.000
28.21158 150.000
28.23152 153.000
28.25147 159.000
28.27142 153.000
28.29136 170.000
28.31131 170.000
28.33126 153.000
28.35120 188.000
28.37115 162.000
28.39110 176.000
28.41105 159.000
28.43099 157.000
28.45094 170.000
28.47089 179.000
28.49083 161.000
28.51078 184.000
28.53073 166.000
28.55067 163.000
28.57062 147.000
28.59057 174.000
28.61052 140.000
28.63046 167.000
28.65041 147.000
28.67036 173.000
28.69030 155.000
28.71025 160.000
28.73020 165.000
28.75014 170.000
28.77009 164.000
28.79004 187.000
28.80998 141.000
28.82993 168.000
28.84988 166.000
28.86983 167.000
28.88977 177.000
28.90972 154.000
28.92967 184.000
28.94961 156.000
28.96956 159.000
28.98951 183.000
29.00945 170.000
29.02940 180.000
29.04935 135.000
29.06930 164.000
29.08924 168.000
29.10919 193.000
29.12914 171.000
29.14908 146.000
29.16903 156.000
29.18898 161.000
29.20892 187.000
29.22887 192.000
29.24882 195.000
29.26877 189.000
29.28871 210.000
29.30866 224.000
29.32861 229.000
29.34855 240.000
29.36850 262.000
29.38845 218.000
29.40839 224.000
29.42834 238.000
29.44829 221.000
29.46823 193.000
29.48818 216.000
29.50813 228.000
29.52808 212.000
29.54802 177.000
29.56797 179.000
29.58792 184.000
29.60786 214.000
29.62781 168.000
29.64776 171.000
29.66770 192.000
29.68765 183.000
29.70760 166.000
29.72755 172.000
29.74749 169.000
29.76744 169.000
29.78739 181.000
29.80733 186.000
29.82728 180.000
29.84723 159.000
29.86717 195.000
29.88712 180.000
29.90707 165.000
29.92701 173.000
29.94696 168.000
29.96691 201.000
29.98686 188.000
30.00680 178.000
30.02675 186.000
30.04670 183.000
30.06664 197.000
30.08659 197.000
30.10654 216.000
30.12648 228.000
30.14643 242.000
30.16638 240.000
30.18633 243.000
30.20627 309.000
30.22622 328.000
30.24617 386.000
30.26611 487.000
30.28606 540.000
30.30601 487.000
30.32595 449.000
30.34590 383.000
30.36585 420.000
30.38579 302.000
30.40574 277.000
30.42569 242.000
30.44564 230.000
30.46558 183.000
30.48553 220.000
30.50548 176.000
30.52542 191.000
30.54537 165.000
30.56532 159.000
30.58526 176.000
30.60521 195.000
30.62516 156.000
30.64511 178.000
30.66505 185.000
30.68500 170.000
30.70495 146.000
30.72489 177.000
30.74484 180.000
30.76479 163.000
30.78473 144.000
30.80468 180.000
30.82463 158.000
30.84458 173.000
30.86452 158.000
30.88447 194.000
30.90442 177.000
30.92436 166.000
30.94431 160.000
30.96426 167.000
30.98420 160.000
31.00415 161.000
31.02410 151.000
31.04404 150.000
31.06399 177.000
31.08394 180.000
31.10389 170.000
31.12383 157.000
31.14378 176.000
31.16373 174.000
31.18367 158.000
31.20362 162.000
31.22357 156.000
31.24351 165.000
31.26346 170.000
31.28341 171.000
31.30336 173.000
31.32330 164.000
31.34325 177.000
31.36320 178.000
31.38314 163.000
31.40309 171.000
31.42304 159.000
31.44298 183.000
31.46293 162.000
31.48288 164.000
31.50282 185.000
31.52277 188.000
31.54272 176.000
31.56267 166.000
31.58261 157.000
31.60256 147.000
31.62251 177.000
31.64245 165.000
31.66240 181.000
31.68235 149.000
31.70229 166.000
31.72224 169.000
31.74219 183.000
31.76214 145.000
31.78208 188.000
31.80203 169.000
31.82198 163.000
31.84192 178.000
31.86187 166.000
31.88182 158.000
31.90176 149.000
31.92171 184.000
31.94166 157.000
31.96160 192.000
31.98155 182.000
32.00150 204.000
32.02145 177.000
32.04139 183.000
32.06134 207.000
32.08129 204.000
32.10123 182.000
32.12118 188.000
32.14113 213.000
32.16107 161.000
32.18102 164.000
32.20097 157.000
32.22092 201.000
32.24086 161.000
32.26081 176.000
32.28076 155.000
32.30070 198.000
32.32065 170.000
32.34060 175.000
32.36054 163.000
32.38049 157.000
32.40044 182.000
32.42039 156.000
32.44033 171.000
32.46028 175.000
32.48023 157.000
32.50017 175.000
32.52012 170.000
32.54007 185.000
32.56001 168.000
32.57996 182.000
32.59991 184.000
32.61985 170.000
32.63980 192.000
32.65975 173.000
32.67970 195.000
32.69964 174.000
32.71959 183.000
32.73954 175.000
32.75948 182.000
32.77943 191.000
32.79938 209.000
32.81932 204.000
32.83927 195.000
32.85922 195.000
32.87917 207.000
32.89911 224.000
32.91906 216.000
32.93901 204.000
32.95895 189.000
32.97890 207.000
32.99885 253.000
33.01879 224.000
33.03874 205.000
33.05869 250.000
33.07863 279.000
33.09858 285.000
33.11853 304.000
33.13848 327.000
33.15842 301.000
33.17837 286.000
33.19832 352.000
33.21826 287.000
33.23821 278.000
33.25816 265.000
33.27810 272.000
33.29805 255.000
33.31800 221.000
33.33795 216.000
33.35789 247.000
33.37784 211.000
33.39779 191.000
33.41773 168.000
33.43768 203.000
33.45763 170.000
33.47757 172.000
33.49752 178.000
33.51747 199.000
33.53741 197.000
33.55736 171.000
33.57731 192.000
33.59726 168.000
33.61720 218.000
33.63715 202.000
33.65710 191.000
33.67704 172.000
33.69699 195.000
33.71694 169.000
33.73688 179.000
33.75683 201.000
33.77678 201.000
33.79673 178.000
33.81667 176.000
33.83662 189.000
33.85657 166.000
33.87651 203.000
33.89646 177.000
33.91641 183.000
33.93635 209.000
33.95630 180.000
33.97625 198.000
33.99620 203.000
34.01614 220.000
34.03609 234.000
34.05604 209.000
34.07598 227.000
34.09593 211.000
34.11588 219.000
34.13582 252.000
34.15577 260.000
34.17572 296.000
34.19566 275.000
34.21561 309.000
34.23556 337.000
34.25551 379.000
34.27545 400.000
34.29540 373.000
34.31535 394.000
34.33529 412.000
34.35524 379.000
34.37519 371.000
34.39513 409.000
34.41508 420.000
34.43503 375.000
34.45498 372.000
34.47492 387.000
34.49487 400.000
34.51482 341.000
34.53476 317.000
34.55471 314.000
34.57466 317.000
34.59460 296.000
34.61455 308.000
34.63450 293.000
34.65444 300.000
34.67439 294.000
34.69434 287.000
34.71429 270.000
34.73423 234.000
34.75418 298.000
34.77413 278.000
34.79407 256.000
34.81402 275.000
34.83397 285.000
34.85391 284.000
34.87386 231.000
34.89381 274.000
34.91376 250.000
34.93370 250.000
34.95365 266.000
34.97360 317.000
34.99354 266.000
35.01349 316.000
35.03344 336.000
35.05338 339.000
35.07333 323.000
35.09328 357.000
35.11322 352.000
35.13317 371.000
35.15312 373.000
35.17307 379.000
35.19301 398.000
35.21296 417.000
35.23291 407.000
35.25285 443.000
35.27280 413.000
35.29275 380.000
35.31269 391.000
35.33264 350.000
35.35259 366.000
35.37254 310.000
35.39248 351.000
35.41243 351.000
35.43238 358.000
35.45232 362.000
35.47227 377.000
35.49222 396.000
35.51216 408.000
35.53211 463.000
35.55206 445.000
35.57201 551.000
35.59195 644.000
35.61190 740.000
35.63185 928.000
35.65179 1133.000
35.67174 1262.000
35.69169 1236.000
35.71163 1066.000
35.73158 1088.000
35.75153 949.000
35.77147 876.000
35.79142 739.000
35.81137 640.000
35.83132 491.000
35.85126 437.000
35.87121 349.000
35.89116 330.000
35.91110 317.000
35.93105 285.000
35.95100 271.000
35.97094 285.000
35.99089 295.000
36.01084 242.000
36.03079 259.000
36.05073 242.000
36.07068 228.000
36.09063 241.000
36.11057 225.000
36.13052 222.000
36.15047 253.000
36.17041 265.000
36.19036 248.000
36.21031 245.000
36.23025 272.000
36.25020 259.000
36.27015 246.000
36.29010 317.000
36.31004 295.000
36.32999 348.000
36.34994 400.000
36.36988 445.000
36.38983 457.000
36.40978 472.000
36.42972 453.000
36.44967 511.000
36.46962 551.000
36.48957 523.000
36.50951 541.000
36.52946 496.000
36.54941 510.000
36.56935 512.000
36.58930 489.000
36.60925 500.000
36.62919 403.000
36.64914 386.000
36.66909 367.000
36.68903 431.000
36.70898 370.000
36.72893 346.000
36.74888 337.000
36.76882 354.000
36.78877 382.000
36.80872 411.000
36.82866 427.000
36.84861 487.000
36.86856 570.000
36.88850 599.000
36.90845 724.000
36.92840 841.000
36.94835 923.000
36.96829 1005.000
36.98824 1022.000
37.00819 1047.000
37.02813 1031.000
37.04808 1029.000
37.06803 972.000
37.08797 924.000
37.10792 835.000
37.12787 837.000
37.14781 790.000
37.16776 706.000
37.18771 628.000
37.20766 594.000
37.22760 537.000
37.24755 497.000
37.26750 473.000
37.28744 401.000
37.30739 407.000
37.32734 401.000
37.34728 338.000
37.36723 315.000
37.38718 285.000
37.40713 270.000
37.42707 256.000
37.44702 211.000
37.46697 241.000
37.48691 253.000
37.50686 217.000
37.52681 186.000
37.54675 188.000
37.56670 217.000
37.58665 193.000
37.60660 203.000
37.62654 169.000
37.64649 182.000
37.66644 185.000
37.68638 183.000
37.70633 228.000
37.72628 207.000
37.74622 180.000
37.76617 179.000
37.78612 206.000
37.80606 167.000
37.82601 164.000
37.84596 167.000
37.86591 182.000
37.88585 182.000
37.90580 183.000
37.92575 226.000
37.94569 224.000
37.96564 180.000
37.98559 165.000
38.00553 202.000
38.02548 202.000
38.04543 167.000
38.06538 192.000
38.08532 219.000
38.10527 179.000
38.12522 191.000
38.14516 206.000
38.16511 205.000
38.18506 185.000
38.20500 174.000
38.22495 185.000
38.24490 186.000
38.26484 173.000
38.28479 187.000
38.30474 160.000
38.32469 184.000
38.34463 171.000
38.36458 180.000
38.38453 150.000
38.40447 183.000
38.42442 154.000
38.44437 166.000
38.46431 189.000
38.48426 212.000
38.50421 190.000
38.52416 193.000
38.54410 169.000
38.56405 173.000
38.58400 174.000
38.60394 186.000
38.62389 172.000
38.64384 217.000
38.66378 198.000
38.68373 187.000
38.70368 197.000
38.72362 211.000
38.74357 221.000
38.76352 208.000
38.78347 209.000
38.80341 179.000
38.82336 210.000
38.84331 186.000
38.86325 188.000
38.88320 193.000
38.90315 184.000
38.92309 205.000
38.94304 193.000
38.96299 186.000
38.98294 183.000
39.00288 201.000
39.02283 181.000
39.04278 159.000
39.06272 178.000
39.08267 204.000
39.10262 187.000
39.12256 171.000
39.14251 187.000
39.16246 213.000
39.18241 197.000
39.20235 182.000
39.22230 226.000
39.24225 209.000
39.26219 218.000
39.28214 232.000
39.30209 225.000
39.32203 230.000
39.34198 209.000
39.36193 239.000
39.38187 220.000
39.40182 215.000
39.42177 194.000
39.44172 188.000
39.46166 154.000
39.48161 188.000
39.50156 157.000
39.52150 166.000
39.54145 181.000
39.56140 181.000
39.58134 158.000
39.60129 165.000
39.62124 187.000
39.64119 182.000
39.66113 170.000
39.68108 185.000
39.70103 165.000
39.72097 170.000
39.74092 168.000
39.76087 164.000
39.78081 154.000
39.80076 170.000
39.82071 185.000
39.84065 170.000
39.86060 196.000
39.88055 167.000
39.90050 178.000
39.92044 162.000
39.94039 178.000
39.96034 195.000
39.98028 174.000
40.00023 165.000
40.02018 151.000
40.04012 163.000
40.06007 168.000
40.08002 174.000
40.09997 164.000
40.11991 199.000
40.13986 168.000
40.15981 194.000
40.17975 169.000
40.19970 177.000
40.21965 194.000
40.23959 154.000
40.25954 166.000
40.27949 169.000
40.29943 177.000
40.31938 176.000
40.33933 150.000
40.35928 179.000
40.37922 180.000
40.39917 173.000
40.41912 180.000
40.43906 189.000
40.45901 178.000
40.47896 151.000
40.49890 195.000
40.51885 185.000
40.53880 177.000
40.55875 179.000
40.57869 154.000
40.59864 206.000
40.61859 170.000
40.63853 173.000
40.65848 189.000
40.67843 154.000
40.69837 194.000
40.71832 187.000
40.73827 182.000
40.75822 196.000
40.77816 181.000
40.79811 161.000
40.81806 215.000
40.83800 204.000
40.85795 194.000
40.87790 202.000
40.89784 195.000
40.91779 201.000
40.93774 193.000
40.95768 203.000
40.97763 207.000
40.99758 207.000
41.01753 205.000
41.03747 223.000
41.05742 215.000
41.07737 229.000
41.09731 232.000
41.11726 260.000
41.13721 264.000
41.15715 292.000
41.17710 306.000
41.19705 321.000
41.21700 337.000
41.23694 333.000
41.25689 376.000
41.27684 455.000
41.29678 459.000
41.31673 538.000
41.33668 656.000
41.35662 780.000
41.37657 889.000
41.39652 1010.000
41.41646 1052.000
41.43641 1153.000
41.45636 1273.000
41.47631 1293.000
41.49625 1317.000
41.51620 1238.000
41.53615 1156.000
41.55609 1091.000
41.57604 1004.000
41.59599 939.000
41.61593 796.000
41.63588 794.000
41.65583 746.000
41.67578 649.000
41.69572 644.000
41.71567 603.000
41.73562 580.000
41.75556 532.000
41.77551 531.000
41.79546 488.000
41.81540 503.000
41.83535 562.000
41.85530 514.000
41.87524 533.000
41.89519 496.000
41.91514 523.000
41.93509 430.000
41.95503 453.000
41.97498 403.000
41.99493 382.000
42.01487 344.000
42.03482 356.000
42.05477 303.000
42.07471 301.000
42.09466 283.000
42.11461 264.000
42.13456 278.000
42.15450 255.000
42.17445 238.000
42.19440 265.000
42.21434 272.000
42.23429 227.000
42.25424 262.000
42.27418 233.000
42.29413 230.000
42.31408 224.000
42.33403 257.000
42.35397 245.000
42.37392 255.000
42.39387 249.000
42.41381 265.000
42.43376 256.000
42.45371 243.000
42.47365 272.000
42.49360 251.000
42.51355 245.000
42.53349 262.000
42.55344 241.000
42.57339 303.000
42.59334 304.000
42.61328 260.000
42.63323 298.000
42.65318 316.000
42.67312 342.000
42.69307 331.000
42.71302 382.000
42.73296 390.000
42.75291 434.000
42.77286 501.000
42.79281 541.000
42.81275 527.000
42.83270 606.000
42.85265 691.000
42.87259 712.000
42.89254 746.000
42.91249 868.000
42.93243 900.000
42.95238 929.000
42.97233 1016.000
42.99227 995.000
43.01222 1079.000
43.03217 1041.000
43.05212 1083.000
43.07206 1055.000
43.09201 1040.000
43.11196 998.000
43.13190 1056.000
43.15185 987.000
43.17180 983.000
43.19174 903.000
43.21169 897.000
43.23164 911.000
43.25159 873.000
43.27153 741.000
43.29148 757.000
43.31143 677.000
43.33137 625.000
43.35132 664.000
43.37127 583.000
43.39121 541.000
43.41116 521.000
43.43111 463.000
43.45105 435.000
43.47100 426.000
43.49095 388.000
43.51090 354.000
43.53084 323.000
43.55079 288.000
43.57074 292.000
43.59068 277.000
43.61063 245.000
43.63058 225.000
43.65052 250.000
43.67047 225.000
43.69042 216.000
43.71037 199.000
43.73031 213.000
43.75026 205.000
43.77021 200.000
43.79015 173.000
43.81010 196.000
43.83005 204.000
43.84999 199.000
43.86994 197.000
43.88989 193.000
43.90984 184.000
43.92978 182.000
43.94973 174.000
43.96968 187.000
43.98962 163.000
44.00957 167.000
44.02952 199.000
44.04946 165.000
44.06941 171.000
44.08936 169.000
44.10930 175.000
44.12925 190.000
44.14920 179.000
44.16915 171.000
44.18909 163.000
44.20904 196.000
44.22899 189.000
44.24893 175.000
44.26888 185.000
44.28883 178.000
44.30877 173.000
44.32872 171.000
44.34867 162.000
44.36862 194.000
44.38856 165.000
44.40851 149.000
44.42846 201.000
44.44840 178.000
44.46835 197.000
44.48830 172.000
44.50824 160.000
44.52819 162.000
44.54814 193.000
44.56808 164.000
44.58803 177.000
44.60798 167.000
44.62793 189.000
44.64787 185.000
44.66782 159.000
44.68777 174.000
44.70771 160.000
44.72766 201.000
44.74761 186.000
44.76755 184.000
44.78750 194.000
44.80745 204.000
44.82740 179.000
44.84734 200.000
44.86729 215.000
44.88724 194.000
44.90718 189.000
44.92713 177.000
44.94708 167.000
44.96702 212.000
44.98697 187.000
45.00692 198.000
45.02686 171.000
45.04681 201.000
45.06676 179.000
45.08671 170.000
45.10665 166.000
45.12660 180.000
45.14655 140.000
45.16649 185.000
45.18644 162.000
45.20639 167.000
45.22633 162.000
45.24628 168.000
45.26623 173.000
45.28618 155.000
45.30612 145.000
45.32607 163.000
45.34602 169.000
45.36596 171.000
45.38591 199.000
45.40586 192.000
45.42580 189.000
45.44575 171.000
45.46570 169.000
45.48565 159.000
45.50559 189.000
45.52554 163.000
45.54549 179.000
45.56543 163.000
45.58538 177.000
45.60533 166.000
45.62527 175.000
45.64522 150.000
45.66517 137.000
45.68511 169.000
45.70506 156.000
45.72501 166.000
45.74496 157.000
45.76490 167.000
45.78485 172.000
45.80480 171.000
45.82474 170.000
45.84469 162.000
45.86464 155.000
45.88458 145.000
45.90453 174.000
45.92448 169.000
45.94443 183.000
45.96437 161.000
45.98432 162.000
46.00427 175.000
46.02421 176.000
46.04416 174.000
46.06411 151.000
46.08405 154.000
46.10400 154.000
46.12395 182.000
46.14389 183.000
46.16384 145.000
46.18379 171.000
46.20374 150.000
46.22368 159.000
46.24363 159.000
46.26358 169.000
46.28352 163.000
46.30347 155.000
46.32342 183.000
46.34336 172.000
46.36331 167.000
46.38326 163.000
46.40321 147.000
46.42315 179.000
46.44310 178.000
46.46305 160.000
46.48299 159.000
46.50294 154.000
46.52289 156.000
46.54283 148.000
46.56278 171.000
46.58273 164.000
46.60267 161.000
46.62262 182.000
46.64257 156.000
46.66252 169.000
46.68246 160.000
46.70241 167.000
46.72236 149.000
46.74230 171.000
46.76225 183.000
46.78220 162.000
46.80214 156.000
46.82209 165.000
46.84204 149.000
46.86199 150.000
46.88193 142.000
46.90188 168.000
46.92183 137.000
46.94177 151.000
46.96172 152.000
46.98167 143.000
47.00161 176.000
47.02156 170.000
47.04151 160.000
47.06146 149.000
47.08140 157.000
47.10135 163.000
47.12130 189.000
47.14124 152.000
47.16119 136.000
47.18114 178.000
47.20108 137.000
47.22103 143.000
47.24098 146.000
47.26092 152.000
47.28087 154.000
47.30082 142.000
47.32077 162.000
47.34071 153.000
47.36066 175.000
47.38061 149.000
47.40055 189.000
47.42050 166.000
47.44045 141.000
47.46039 144.000
47.48034 175.000
47.50029 174.000
47.52024 156.000
47.54018 139.000
47.56013 155.000
47.58008 166.000
47.60002 185.000
47.61997 184.000
47.63992 173.000
47.65986 172.000
47.67981 160.000
47.69976 151.000
47.71970 156.000
47.73965 173.000
47.75960 153.000
47.77955 182.000
47.79949 193.000
47.81944 154.000
47.83939 168.000
47.85933 156.000
47.87928 166.000
47.89923 150.000
47.91917 175.000
47.93912 176.000
47.95907 169.000
47.97902 176.000
47.99896 135.000
48.01891 155.000
48.03886 184.000
48.05880 171.000
48.07875 170.000
48.09870 167.000
48.11864 173.000
48.13859 150.000
48.15854 158.000
48.17848 166.000
48.19843 182.000
48.21838 180.000
48.23833 168.000
48.25827 188.000
48.27822 170.000
48.29817 165.000
48.31811 166.000
48.33806 163.000
48.35801 173.000
48.37795 161.000
48.39790 154.000
48.41785 181.000
48.43780 176.000
48.45774 165.000
48.47769 165.000
48.49764 163.000
48.51758 157.000
48.53753 173.000
48.55748 180.000
48.57742 177.000
48.59737 172.000
48.61732 168.000
48.63726 185.000
48.65721 182.000
48.67716 180.000
48.69711 195.000
48.71705 202.000
48.73700 149.000
48.75695 185.000
48.77689 179.000
48.79684 177.000
48.81679 188.000
48.83673 198.000
48.85668 171.000
48.87663 179.000
48.89658 182.000
48.91652 174.000
48.93647 180.000
48.95642 157.000
48.97636 149.000
48.99631 174.000
49.01626 183.000
49.03620 175.000
49.05615 171.000
49.07610 185.000
49.09605 162.000
49.11599 176.000
49.13594 173.000
49.15589 181.000
49.17583 170.000
49.19578 202.000
49.21573 198.000
49.23567 168.000
49.25562 174.000
49.27557 174.000
49.29551 210.000
49.31546 181.000
49.33541 172.000
49.35536 187.000
49.37530 177.000
49.39525 184.000
49.41520 198.000
49.43514 193.000
49.45509 193.000
49.47504 184.000
49.49498 177.000
49.51493 167.000
49.53488 153.000
49.55483 170.000
49.57477 166.000
49.59472 179.000
49.61467 176.000
49.63461 142.000
49.65456 168.000
49.67451 160.000
49.69445 178.000
49.71440 174.000
49.73435 158.000
49.75429 166.000
49.77424 154.000
49.79419 191.000
49.81414 165.000
49.83408 167.000
49.85403 162.000
49.87398 159.000
49.89392 163.000
49.91387 141.000
49.93382 140.000
49.95376 169.000
49.97371 159.000
49.99366 176.000
50.01361 174.000
50.03355 158.000
50.05350 145.000
50.07345 170.000
50.09339 160.000
50.11334 137.000
50.13329 161.000
50.15323 155.000
50.17318 151.000
50.19313 151.000
50.21307 158.000
50.23302 148.000
50.25297 160.000
50.27292 142.000
50.29286 150.000
50.31281 152.000
50.33276 154.000
50.35270 159.000
50.37265 163.000
50.39260 146.000
50.41254 180.000
50.43249 161.000
50.45244 132.000
50.47239 168.000
50.49233 159.000
50.51228 195.000
50.53223 144.000
50.55217 142.000
50.57212 144.000
50.59207 168.000
50.61201 159.000
50.63196 163.000
50.65191 156.000
50.67186 146.000
50.69180 153.000
50.71175 147.000
50.73170 162.000
50.75164 157.000
50.77159 140.000
50.79154 148.000
50.81148 172.000
50.83143 147.000
50.85138 149.000
50.87132 131.000
50.89127 155.000
50.91122 139.000
50.93117 147.000
50.95111 161.000
50.97106 177.000
50.99101 162.000
51.01095 141.000
51.03090 148.000
51.05085 152.000
51.07079 167.000
51.09074 164.000
51.11069 149.000
51.13064 146.000
51.15058 164.000
51.17053 149.000
51.19048 176.000
51.21042 149.000
51.23037 141.000
51.25032 158.000
51.27026 164.000
51.29021 183.000
51.31016 155.000
51.33010 163.000
51.35005 149.000
51.37000 118.000
51.38995 164.000
51.40989 138.000
51.42984 132.000
51.44979 159.000
51.46973 148.000
51.48968 142.000
51.50963 158.000
51.52957 147.000
51.54952 151.000
51.56947 151.000
51.58942 147.000
51.60936 164.000
51.62931 162.000
51.64926 178.000
51.66920 141.000
51.68915 155.000
51.70910 132.000
51.72904 161.000
51.74899 139.000
51.76894 151.000
51.78888 154.000
51.80883 154.000
51.82878 170.000
51.84873 153.000
51.86867 153.000
51.88862 148.000
51.90857 169.000
51.92851 162.000
51.94846 172.000
51.96841 169.000
51.98835 178.000
52.00830 140.000
52.02825 161.000
52.04820 147.000
52.06814 164.000
52.08809 171.000
52.10804 170.000
52.12798 161.000
52.14793 179.000
52.16788 164.000
52.18782 184.000
52.20777 161.000
52.22772 147.000
52.24767 165.000
52.26761 149.000
52.28756 153.000
52.30751 172.000
52.32745 149.000
52.34740 168.000
52.36735 164.000
52.38729 169.000
52.40724 173.000
52.42719 160.000
52.44713 150.000
52.46708 145.000
52.48703 164.000
52.50698 161.000
52.52692 157.000
52.54687 156.000
52.56682 159.000
52.58676 176.000
52.60671 169.000
52.62666 162.000
52.64660 160.000
52.66655 155.000
52.68650 175.000
52.70645 153.000
52.72639 157.000
52.74634 153.000
52.76629 170.000
52.78623 174.000
52.80618 184.000
52.82613 179.000
52.84607 170.000
52.86602 169.000
52.88597 195.000
52.90591 182.000
52.92586 207.000
52.94581 179.000
52.96576 196.000
52.98570 206.000
53.00565 230.000
53.02560 244.000
53.04554 256.000
53.06549 273.000
53.08544 297.000
53.10538 329.000
53.12533 296.000
53.14528 296.000
53.16523 239.000
53.18517 257.000
53.20512 287.000
53.22507 226.000
53.24501 238.000
53.26496 245.000
53.28491 245.000
53.30485 222.000
53.32480 228.000
53.34475 205.000
53.36469 183.000
53.38464 177.000
53.40459 174.000
53.42454 169.000
53.44448 171.000
53.46443 154.000
53.48438 180.000
53.50432 172.000
53.52427 195.000
53.54422 175.000
53.56416 170.000
53.58411 165.000
53.60406 179.000
53.62401 176.000
53.64395 194.000
53.66390 194.000
53.68385 202.000
53.70379 189.000
53.72374 185.000
53.74369 210.000
53.76363 217.000
53.78358 230.000
53.80353 232.000
53.82348 228.000
53.84342 191.000
53.86337 198.000
53.88332 240.000
53.90326 214.000
53.92321 212.000
53.94316 219.000
53.96310 202.000
53.98305 204.000
54.00300 165.000
54.02294 184.000
54.04289 186.000
54.06284 180.000
54.08279 159.000
54.10273 186.000
54.12268 171.000
54.14263 159.000
54.16257 176.000
54.18252 176.000
54.20247 198.000
54.22241 146.000
54.24236 156.000
54.26231 176.000
54.28226 151.000
54.30220 163.000
54.32215 159.000
54.34210 158.000
54.36204 151.000
54.38199 183.000
54.40194 176.000
54.42188 152.000
54.44183 147.000
54.46178 163.000
54.48172 156.000
54.50167 132.000
54.52162 154.000
54.54157 158.000
54.56151 158.000
54.58146 189.000
54.60141 167.000
54.62135 184.000
54.64130 172.000
54.66125 145.000
54.68119 155.000
54.70114 148.000
54.72109 175.000
54.74104 147.000
54.76098 163.000
54.78093 137.000
54.80088 162.000
54.82082 162.000
54.84077 169.000
54.86072 138.000
54.88066 160.000
54.90061 158.000
54.92056 151.000
54.94050 163.000
54.96045 173.000
54.98040 190.000
55.00035 159.000
55.02029 159.000
55.04024 154.000
55.06019 176.000
55.08013 167.000
55.10008 157.000
55.12003 172.000
55.13997 151.000
55.15992 143.000
55.17987 169.000
55.19982 144.000
55.21976 150.000
55.23971 163.000
55.25966 149.000
55.27960 160.000
55.29955 158.000
55.31950 153.000
55.33944 166.000
55.35939 182.000
55.37934 157.000
55.39929 149.000
55.41923 169.000
55.43918 155.000
55.45913 163.000
55.47907 157.000
55.49902 158.000
55.51897 161.000
55.53891 164.000
55.55886 146.000
55.57881 168.000
55.59875 163.000
55.61870 140.000
55.63865 162.000
55.65860 150.000
55.67854 171.000
55.69849 167.000
55.71844 153.000
55.73838 173.000
55.75833 122.000
55.77828 186.000
55.79822 169.000
55.81817 173.000
55.83812 169.000
55.85807 153.000
55.87801 180.000
55.89796 143.000
55.91791 154.000
55.93785 149.000
55.95780 151.000
55.97775 141.000
55.99769 144.000
56.01764 172.000
56.03759 146.000
56.05753 153.000
56.07748 150.000
56.09743 165.000
56.11738 153.000
56.13732 161.000
56.15727 137.000
56.17722 161.000
56.19716 159.000
56.21711 157.000
56.23706 151.000
56.25700 162.000
56.27695 152.000
56.29690 188.000
56.31685 148.000
56.33679 159.000
56.35674 173.000
56.37669 159.000
56.39663 167.000
56.41658 148.000
56.43653 165.000
56.45647 164.000
56.47642 172.000
56.49637 171.000
56.51631 165.000
56.53626 148.000
56.55621 152.000
56.57616 163.000
56.59610 170.000
56.61605 171.000
56.63600 146.000
56.65594 156.000
56.67589 152.000
56.69584 174.000
56.71578 155.000
56.73573 151.000
56.75568 160.000
56.77563 160.000
56.79557 160.000
56.81552 171.000
56.83547 191.000
56.85541 193.000
56.87536 160.000
56.89531 164.000
56.91525 164.000
56.93520 162.000
56.95515 191.000
56.97510 175.000
56.99504 183.000
57.01499 189.000
57.03494 180.000
57.05488 178.000
57.07483 177.000
57.09478 155.000
57.11472 204.000
57.13467 209.000
57.15462 186.000
57.17456 210.000
57.19451 214.000
57.21446 208.000
57.23441 261.000
57.25435 250.000
57.27430 249.000
57.29425 300.000
57.31419 352.000
57.33414 385.000
57.35409 362.000
57.37403 386.000
57.39398 369.000
57.41393 355.000
57.43388 321.000
57.45382 356.000
57.47377 342.000
57.49372 317.000
57.51366 316.000
57.53361 283.000
57.55356 293.000
57.57350 302.000
57.59345 299.000
57.61340 275.000
57.63334 269.000
57.65329 277.000
57.67324 282.000
57.69319 267.000
57.71313 300.000
57.73308 332.000
57.75303 325.000
57.77297 366.000
57.79292 366.000
57.81287 395.000
57.83281 443.000
57.85276 397.000
57.87271 357.000
57.89266 392.000
57.91260 392.000
57.93255 359.000
57.95250 376.000
57.97244 348.000
57.99239 319.000
58.01234 298.000
58.03228 319.000
58.05223 267.000
58.07218 221.000
58.09212 247.000
58.11207 225.000
58.13202 207.000
58.15197 197.000
58.17191 192.000
58.19186 200.000
58.21181 194.000
58.23175 191.000
58.25170 184.000
58.27165 195.000
58.29159 175.000
58.31154 192.000
58.33149 183.000
58.35144 198.000
58.37138 194.000
58.39133 182.000
58.41128 189.000
58.43122 172.000
58.45117 165.000
58.47112 176.000
58.49106 189.000
58.51101 176.000
58.53096 181.000
58.55090 165.000
58.57085 174.000
58.59080 160.000
58.61075 171.000
58.63069 194.000
58.65064 177.000
58.67059 176.000
58.69053 169.000
58.71048 167.000
58.73043 178.000
58.75037 190.000
58.77032 172.000
58.79027 163.000
58.81022 167.000
58.83016 154.000
58.85011 160.000
58.87006 182.000
58.89000 158.000
58.90995 148.000
58.92990 137.000
58.94984 206.000
58.96979 200.000
58.98974 154.000
59.00969 173.000
59.02963 173.000
59.04958 171.000
59.06953 168.000
59.08947 195.000
59.10942 183.000
59.12937 186.000
59.14931 174.000
59.16926 173.000
59.18921 172.000
59.20915 167.000
59.22910 157.000
59.24905 177.000
59.26900 164.000
59.28894 173.000
59.30889 164.000
59.32884 164.000
59.34878 169.000
59.36873 149.000
59.38868 164.000
59.40862 179.000
59.42857 174.000
59.44852 182.000
59.46847 180.000
59.48841 186.000
59.50836 178.000
59.52831 164.000
59.54825 159.000
59.56820 187.000
59.58815 192.000
59.60809 177.000
59.62804 191.000
59.64799 158.000
59.66793 208.000
59.68788 170.000
59.70783 171.000
59.72778 194.000
59.74772 174.000
59.76767 214.000
59.78762 222.000
59.80756 200.000
59.82751 216.000
59.84746 206.000
59.86740 196.000
59.88735 198.000
59.90730 202.000
59.92725 188.000
59.94719 183.000
59.96714 229.000
59.98709 184.000
60.00703 184.000
60.02698 177.000
60.04693 190.000
60.06687 164.000
60.08682 199.000
60.10677 174.000
60.12671 185.000
60.14666 180.000
60.16661 185.000
60.18656 161.000
60.20650 170.000
60.22645 171.000
60.24640 170.000
60.26634 157.000
60.28629 179.000
60.30624 180.000
60.32618 172.000
60.34613 178.000
60.36608 168.000
60.38603 198.000
60.40597 144.000
60.42592 169.000
60.44587 171.000
60.46581 147.000
60.48576 174.000
60.50571 183.000
60.52565 181.000
60.54560 174.000
60.56555 156.000
60.58550 161.000
60.60544 174.000
60.62539 168.000
60.64534 171.000
60.66528 155.000
60.68523 171.000
60.70518 185.000
60.72512 176.000
60.74507 180.000
60.76502 179.000
60.78496 182.000
60.80491 179.000
60.82486 189.000
60.84481 191.000
60.86475 193.000
60.88470 171.000
60.90465 191.000
60.92459 188.000
60.94454 173.000
60.96449 157.000
60.98443 184.000
61.00438 165.000
61.02433 198.000
61.04428 168.000
61.06422 193.000
61.08417 182.000
61.10412 174.000
61.12406 181.000
61.14401 161.000
61.16396 191.000
61.18390 180.000
61.20385 193.000
61.22380 170.000
61.24374 173.000
61.26369 192.000
61.28364 211.000
61.30359 222.000
61.32353 225.000
61.34348 234.000
61.36343 200.000
61.38337 216.000
61.40332 224.000
61.42327 228.000
61.44321 226.000
61.46316 203.000
61.48311 238.000
61.50306 218.000
61.52300 228.000
61.54295 233.000
61.56290 235.000
61.58284 269.000
61.60279 295.000
61.62274 264.000
61.64268 305.000
61.66263 307.000
61.68258 304.000
61.70252 307.000
61.72247 299.000
61.74242 312.000
61.76237 289.000
61.78231 323.000
61.80226 305.000
61.82221 314.000
61.84215 315.000
61.86210 318.000
61.88205 314.000
61.90199 293.000
61.92194 332.000
61.94189 308.000
61.96184 334.000
61.98178 375.000
62.00173 328.000
62.02168 374.000
62.04162 336.000
62.06157 377.000
62.08152 371.000
62.10146 402.000
62.12141 447.000
62.14136 399.000
62.16131 431.000
62.18125 435.000
62.20120 471.000
62.22115 484.000
62.24109 487.000
62.26104 509.000
62.28099 532.000
62.30093 590.000
62.32088 642.000
62.34083 627.000
62.36077 615.000
62.38072 684.000
62.40067 621.000
62.42062 664.000
62.44056 655.000
62.46051 645.000
62.48046 676.000
62.50040 667.000
62.52035 628.000
62.54030 630.000
62.56024 593.000
62.58019 623.000
62.60014 630.000
62.62009 576.000
62.64003 538.000
62.65998 599.000
62.67993 528.000
62.69987 545.000
62.71982 467.000
62.73977 509.000
62.75971 463.000
62.77966 480.000
62.79961 470.000
62.81955 465.000
62.83950 419.000
62.85945 470.000
62.87940 468.000
62.89934 432.000
62.91929 435.000
62.93924 462.000
62.95918 493.000
62.97913 507.000
62.99908 569.000
63.01902 525.000
63.03897 490.000
63.05892 451.000
63.07887 403.000
63.09881 418.000
63.11876 420.000
63.13871 383.000
63.15865 360.000
63.17860 360.000
63.19855 368.000
63.21849 310.000
63.23844 294.000
63.25839 316.000
63.27833 290.000
63.29828 268.000
63.31823 239.000
63.33818 223.000
63.35812 256.000
63.37807 223.000
63.39802 208.000
63.41796 201.000
63.43791 206.000
63.45786 201.000
63.47780 199.000
63.49775 188.000
63.51770 187.000
63.53765 179.000
63.55759 192.000
63.57754 187.000
63.59749 191.000
63.61743 163.000
63.63738 183.000
63.65733 159.000
63.67727 167.000
63.69722 183.000
63.71717 152.000
63.73712 181.000
63.75706 169.000
63.77701 192.000
63.79696 163.000
63.81690 194.000
63.83685 177.000
63.85680 170.000
63.87674 176.000
63.89669 174.000
63.91664 184.000
63.93658 172.000
63.95653 157.000
63.97648 165.000
63.99643 212.000
64.01637 163.000
64.03632 201.000
64.05627 191.000
64.07621 182.000
64.09616 186.000
64.11611 183.000
64.13605 171.000
64.15600 187.000
64.17595 183.000
64.19590 179.000
64.21584 186.000
64.23579 173.000
64.25574 179.000
64.27568 197.000
64.29563 173.000
64.31558 175.000
64.33552 164.000
64.35547 189.000
64.37542 168.000
64.39536 175.000
64.41531 169.000
64.43526 183.000
64.45521 201.000
64.47515 193.000
64.49510 173.000
64.51505 151.000
64.53499 189.000
64.55494 179.000
64.57489 198.000
64.59483 180.000
64.61478 203.000
64.63473 196.000
64.65468 199.000
64.67462 202.000
64.69457 221.000
64.71452 207.000
64.73446 205.000
64.75441 180.000
64.77436 203.000
64.79430 221.000
64.81425 212.000
64.83420 207.000
64.85414 197.000
64.87409 231.000
64.89404 227.000
64.91399 221.000
64.93393 204.000
64.95388 229.000
64.97383 212.000
64.99377 215.000
65.01372 196.000
65.03367 214.000
65.05361 202.000
65.07356 182.000
65.09351 226.000
65.11346 186.000
65.13340 155.000
65.15335 188.000
65.17330 175.000
65.19324 205.000
65.21319 185.000
65.23314 201.000
65.25308 170.000
65.27303 187.000
65.29298 180.000
65.31293 170.000
65.33287 177.000
65.35282 193.000
65.37277 168.000
65.39271 165.000
65.41266 179.000
65.43261 169.000
65.45255 167.000
65.47250 176.000
65.49245 179.000
65.51239 179.000
65.53234 156.000
65.55229 183.000
65.57224 169.000
65.59218 203.000
65.61213 183.000
65.63208 172.000
65.65202 172.000
65.67197 174.000
65.69192 158.000
65.71186 183.000
65.73181 169.000
65.75176 197.000
65.77171 184.000
65.79165 195.000
65.81160 192.000
65.83155 177.000
65.85149 180.000
65.87144 192.000
65.89139 182.000
65.91133 165.000
65.93128 155.000
65.95123 182.000
65.97117 182.000
65.99112 183.000
66.01107 199.000
66.03102 157.000
66.05096 169.000
66.07091 144.000
66.09086 198.000
66.11080 168.000
66.13075 172.000
66.15070 169.000
66.17064 168.000
66.19059 160.000
66.21054 165.000
66.23049 179.000
66.25043 167.000
66.27038 195.000
66.29033 180.000
66.31027 167.000
66.33022 178.000
66.35017 176.000
66.37011 161.000
66.39006 166.000
66.41001 191.000
66.42995 166.000
66.44990 175.000
66.46985 175.000
66.48980 179.000
66.50974 167.000
66.52969 165.000
66.54964 180.000
66.56958 147.000
66.58953 158.000
66.60948 176.000
66.62942 162.000
66.64937 167.000
66.66932 154.000
66.68927 159.000
66.70921 160.000
66.72916 153.000
66.74911 170.000
66.76905 171.000
66.78900 151.000
66.80895 159.000
66.82889 164.000
66.84884 149.000
66.86879 154.000
66.88874 196.000
66.90868 167.000
66.92863 126.000
66.94858 145.000
66.96852 155.000
66.98847 187.000
67.00842 148.000
67.02836 156.000
67.04831 146.000
67.06826 184.000
67.08820 176.000
67.10815 194.000
67.12810 168.000
67.14805 173.000
67.16799 158.000
67.18794 147.000
67.20789 155.000
67.22783 163.000
67.24778 165.000
67.26773 152.000
67.28767 185.000
67.30762 164.000
67.32757 148.000
67.34752 140.000
67.36746 170.000
67.38741 155.000
67.40736 166.000
67.42730 169.000
67.44725 145.000
67.46720 161.000
67.48714 154.000
67.50709 144.000
67.52704 152.000
67.54698 158.000
67.56693 147.000
67.58688 165.000
67.60683 138.000
67.62677 152.000
67.64672 140.000
67.66667 148.000
67.68661 165.000
67.70656 170.000
67.72651 169.000
67.74645 159.000
67.76640 143.000
67.78635 156.000
67.80630 144.000
67.82624 161.000
67.84619 159.000
67.86614 165.000
67.88608 153.000
67.90603 168.000
67.92598 164.000
67.94592 171.000
67.96587 176.000
67.98582 158.000
68.00576 147.000
68.02571 149.000
68.04566 166.000
68.06561 186.000
68.08555 180.000
68.10550 181.000
68.12545 166.000
68.14539 199.000
68.16534 167.000
68.18529 177.000
68.20523 196.000
68.22518 196.000
68.24513 191.000
68.26508 194.000
68.28502 209.000
68.30497 214.000
68.32492 200.000
68.34486 231.000
68.36481 218.000
68.38476 204.000
68.40470 203.000
68.42465 175.000
68.44460 198.000
68.46455 185.000
68.48449 205.000
68.50444 151.000
68.52439 187.000
68.54433 193.000
68.56428 181.000
68.58423 163.000
68.60417 205.000
68.62412 186.000
68.64407 196.000
68.66401 146.000
68.68396 180.000
68.70391 153.000
68.72386 184.000
68.74380 178.000
68.76375 143.000
68.78370 179.000
68.80364 170.000
68.82359 170.000
68.84354 149.000
68.86348 153.000
68.88343 161.000
68.90338 156.000
68.92333 141.000
68.94327 151.000
68.96322 143.000
68.98317 167.000
69.00311 175.000
69.02306 148.000
69.04301 145.000
69.06295 167.000
69.08290 163.000
69.10285 151.000
69.12279 165.000
69.14274 153.000
69.16269 165.000
69.18264 145.000
69.20258 179.000
69.22253 160.000
69.24248 131.000
69.26242 177.000
69.28237 173.000
69.30232 155.000
69.32226 182.000
69.34221 193.000
69.36216 169.000
69.38211 199.000
69.40205 184.000
69.42200 182.000
69.44195 172.000
69.46189 160.000
69.48184 157.000
69.50179 169.000
69.52173 155.000
69.54168 164.000
69.56163 181.000
69.58157 188.000
69.60152 161.000
69.62147 160.000
69.64142 196.000
69.66136 175.000
69.68131 178.000
69.70126 188.000
69.72120 169.000
69.74115 169.000
69.76110 179.000
69.78104 149.000
69.80099 177.000
69.82094 169.000
69.84089 185.000
69.86083 165.000
69.88078 145.000
69.90073 168.000
69.92067 149.000
69.94062 163.000
69.96057 158.000
69.98051 149.000
70.00046 152.000
70.02041 166.000
70.04035 159.000
70.06030 174.000
70.08025 140.000
70.10020 184.000
70.12014 164.000
70.14009 154.000
70.16004 161.000
70.17998 147.000
70.19993 184.000
70.21988 150.000
70.23982 147.000
70.25977 164.000
70.27972 161.000
70.29967 167.000
70.31961 131.000
70.33956 144.000
70.35951 148.000
70.37945 172.000
70.39940 158.000
70.41935 141.000
70.43929 152.000
70.45924 171.000
70.47919 164.000
70.49914 165.000
70.51908 139.000
70.53903 157.000
70.55898 144.000
70.57892 149.000
70.59887 164.000
70.61882 146.000
70.63876 135.000
70.65871 159.000
70.67866 150.000
70.69860 176.000
70.71855 164.000
70.73850 163.000
70.75845 152.000
70.77839 180.000
70.79834 162.000
70.81829 163.000
70.83823 164.000
70.85818 158.000
70.87813 144.000
70.89807 127.000
70.91802 144.000
70.93797 161.000
70.95792 145.000
70.97786 168.000
70.99781 180.000
71.01776 174.000
71.03770 152.000
71.05765 128.000
71.07760 180.000
71.09754 161.000
71.11749 165.000
71.13744 154.000
71.15738 169.000
71.17733 162.000
71.19728 149.000
71.21723 157.000
71.23717 183.000
71.25712 172.000
71.27707 165.000
71.29701 162.000
71.31696 186.000
71.33691 152.000
71.35685 198.000
71.37680 164.000
71.39675 167.000
71.41670 163.000
71.43664 179.000
71.45659 184.000
71.47654 159.000
71.49648 184.000
71.51643 161.000
71.53638 171.000
71.55632 190.000
71.57627 179.000
71.59622 185.000
71.61616 168.000
71.63611 176.000
71.65606 165.000
71.67601 171.000
71.69595 175.000
71.71590 157.000
71.73585 176.000
71.75579 151.000
71.77574 163.000
71.79569 168.000
71.81563 197.000
71.83558 160.000
71.85553 152.000
71.87548 153.000
71.89542 161.000
71.91537 203.000
71.93532 146.000
71.95526 144.000
71.97521 189.000
71.99516 182.000
72.01510 184.000
72.03505 174.000
72.05500 157.000
72.07495 186.000
72.09489 158.000
72.11484 171.000
72.13479 155.000
72.15473 164.000
72.17468 187.000
72.19463 161.000
72.21457 206.000
72.23452 180.000
72.25447 174.000
72.27441 207.000
72.29436 194.000
72.31431 177.000
72.33426 197.000
72.35420 210.000
72.37415 201.000
72.39410 216.000
72.41404 208.000
72.43399 193.000
72.45394 194.000
72.47388 204.000
72.49383 208.000
72.51378 237.000
72.53373 212.000
72.55367 218.000
72.57362 196.000
72.59357 203.000
72.61351 200.000
72.63346 189.000
72.65341 206.000
72.67335 202.000
72.69330 184.000
72.71325 174.000
72.73319 184.000
72.75314 193.000
72.77309 176.000
72.79304 201.000
72.81298 196.000
72.83293 181.000
72.85288 192.000
72.87282 181.000
72.89277 183.000
72.91272 177.000
72.93266 171.000
72.95261 164.000
72.97256 182.000
72.99251 180.000
73.01245 192.000
73.03240 170.000
73.05235 183.000
73.07229 177.000
73.09224 169.000
73.11219 172.000
73.13213 178.000
73.15208 183.000
73.17203 201.000
73.19197 202.000
73.21192 176.000
73.23187 162.000
73.25182 172.000
73.27176 175.000
73.29171 170.000
73.31166 201.000
73.33160 188.000
73.35155 176.000
73.37150 184.000
73.39144 186.000
73.41139 172.000
73.43134 162.000
73.45129 163.000
73.47123 154.000
73.49118 178.000
73.51113 189.000
73.53107 173.000
73.55102 174.000
73.57097 159.000
73.59091 151.000
73.61086 191.000
73.63081 196.000
73.65076 187.000
73.67070 172.000
73.69065 174.000
73.71060 200.000
73.73054 162.000
73.75049 197.000
73.77044 214.000
73.79038 194.000
73.81033 193.000
73.83028 217.000
73.85022 192.000
73.87017 190.000
73.89012 209.000
73.91007 178.000
73.93001 196.000
73.94996 198.000
73.96991 193.000
73.98985 206.000
74.00980 212.000
74.02975 215.000
74.04969 209.000
74.06964 225.000
74.08959 194.000
74.10954 213.000
74.12948 198.000
74.14943 221.000
74.16938 211.000
74.18932 217.000
74.20927 213.000
74.22922 196.000
74.24916 199.000
74.26911 219.000
74.28906 207.000
74.30900 212.000
74.32895 216.000
74.34890 196.000
74.36885 225.000
74.38879 221.000
74.40874 234.000
74.42869 240.000
74.44863 234.000
74.46858 239.000
74.48853 253.000
74.50847 249.000
74.52842 233.000
74.54837 269.000
74.56832 281.000
74.58826 276.000
74.60821 273.000
74.62816 266.000
74.64810 261.000
74.66805 293.000
74.68800 275.000
74.70794 288.000
74.72789 301.000
74.74784 280.000
74.76778 301.000
74.78773 303.000
74.80768 313.000
74.82763 264.000
74.84757 278.000
74.86752 322.000
74.88747 306.000
74.90741 287.000
74.92736 288.000
74.94731 255.000
74.96725 285.000
74.98720 292.000
75.00715 273.000
75.02710 305.000
75.04704 301.000
75.06699 294.000
75.08694 293.000
75.10688 270.000
75.12683 281.000
75.14678 280.000
75.16672 265.000
75.18667 241.000
75.20662 247.000
75.22657 244.000
75.24651 246.000
75.26646 238.000
75.28641 254.000
75.30635 217.000
75.32630 234.000
75.34625 210.000
75.36619 225.000
75.38614 210.000
75.40609 219.000
75.42603 220.000
75.44598 248.000
75.46593 198.000
75.48588 212.000
75.50582 217.000
75.52577 207.000
75.54572 166.000
75.56566 216.000
75.58561 200.000
75.60556 185.000
75.62550 199.000
75.64545 184.000
75.66540 178.000
75.68535 162.000
75.70529 200.000
75.72524 173.000
75.74519 154.000
75.76513 189.000
75.78508 168.000
75.80503 180.000
75.82497 181.000
75.84492 185.000
75.86487 186.000
75.88481 156.000
75.90476 161.000
75.92471 157.000
75.94466 159.000
75.96460 179.000
75.98455 176.000
76.00450 148.000
76.02444 182.000
76.04439 138.000
76.06434 178.000
76.08428 171.000
76.10423 145.000
76.12418 169.000
76.14413 152.000
76.16407 163.000
76.18402 151.000
76.20397 154.000
76.22391 173.000
76.24386 157.000
76.26381 159.000
76.28375 168.000
76.30370 176.000
76.32365 179.000
76.34359 170.000
76.36354 162.000
76.38349 142.000
76.40344 150.000
76.42338 150.000
76.44333 154.000
76.46328 152.000
76.48322 158.000
76.50317 164.000
76.52312 174.000
76.54306 167.000
76.56301 144.000
76.58296 168.000
76.60291 174.000
76.62285 177.000
76.64280 167.000
76.66275 161.000
76.68269 173.000
76.70264 159.000
76.72259 137.000
76.74253 143.000
76.76248 139.000
76.78243 155.000
76.80238 157.000
76.82232 144.000
76.84227 174.000
76.86222 179.000
76.88216 144.000
76.90211 175.000
76.92206 173.000
76.94200 163.000
76.96195 145.000
76.98190 182.000
77.00184 167.000
77.02179 165.000
77.04174 164.000
77.06169 177.000
77.08163 162.000
77.10158 188.000
77.12153 186.000
77.14147 181.000
77.16142 170.000
77.18137 156.000
77.20131 201.000
77.22126 180.000
77.24121 168.000
77.26116 213.000
77.28110 217.000
77.30105 194.000
77.32100 206.000
77.34094 192.000
77.36089 227.000
77.38084 244.000
77.40078 202.000
77.42073 207.000
77.44068 219.000
77.46062 202.000
77.48057 197.000
77.50052 205.000
77.52047 229.000
77.54041 225.000
77.56036 214.000
77.58031 221.000
77.60025 213.000
77.62020 235.000
77.64015 201.000
77.66009 215.000
77.68004 208.000
77.69999 225.000
77.71994 231.000
77.73988 192.000
77.75983 180.000
77.77978 224.000
77.79972 200.000
77.81967 194.000
77.83962 159.000
77.85956 205.000
77.87951 195.000
77.89946 188.000
77.91940 180.000
77.93935 211.000
77.95930 189.000
77.97925 185.000
77.99919 184.000
78.01914 198.000
78.03909 183.000
78.05903 204.000
78.07898 157.000
78.09893 167.000
78.11887 167.000
78.13882 166.000
78.15877 198.000
78.17872 184.000
78.19866 180.000
78.21861 169.000
78.23856 191.000
78.25850 173.000
78.27845 180.000
78.29840 176.000
78.31834 164.000
78.33829 162.000
78.35824 174.000
78.37819 177.000
78.39813 182.000
78.41808 161.000
78.43803 175.000
78.45797 184.000
78.47792 169.000
78.49787 166.000
78.51781 181.000
78.53776 192.000
78.55771 184.000
78.57765 197.000
78.59760 209.000
78.61755 218.000
78.63750 220.000
78.65744 241.000
78.67739 236.000
78.69734 254.000
78.71728 246.000
78.73723 228.000
78.75718 248.000
78.77712 245.000
78.79707 233.000
78.81702 253.000
78.83697 265.000
78.85691 258.000
78.87686 225.000
78.89681 239.000
78.91675 234.000
78.93670 241.000
78.95665 235.000
78.97659 241.000
78.99654 221.000
79.01649 238.000
79.03643 258.000
79.05638 255.000
79.07633 234.000
79.09628 224.000
79.11622 211.000
79.13617 206.000
79.15612 197.000
79.17606 216.000
79.19601 213.000
79.21596 203.000
79.23590 197.000
79.25585 179.000
79.27580 212.000
79.29575 189.000
79.31569 200.000
79.33564 201.000
79.35559 205.000
79.37553 180.000
79.39548 176.000
79.41543 202.000
79.43537 175.000
79.45532 176.000
79.47527 173.000
79.49521 213.000
79.51516 177.000
79.53511 177.000
79.55506 183.000
79.57500 197.000
79.59495 161.000
79.61490 173.000
79.63484 155.000
79.65479 165.000
79.67474 176.000
79.69468 177.000
79.71463 177.000
79.73458 168.000
79.75453 169.000
79.77447 167.000
79.79442 151.000
79.81437 156.000
79.83431 164.000
79.85426 160.000
79.87421 163.000
79.89415 168.000
79.91410 181.000
79.93405 170.000
79.95399 130.000
79.97394 150.000
79.99389 168.000
80.01384 155.000
80.03378 174.000
80.05373 154.000
80.07368 138.000
80.09362 173.000
80.11357 152.000
80.13352 147.000
80.15346 180.000
80.17341 179.000
80.19336 144.000
80.21331 146.000
80.23325 177.000
80.25320 155.000
80.27315 152.000
80.29309 152.000
80.31304 168.000
80.33299 151.000
80.35293 131.000
80.37288 149.000
80.39283 165.000
80.41278 151.000
80.43272 154.000
80.45267 170.000
80.47262 173.000
80.49256 149.000
80.51251 143.000
80.53246 158.000
80.55240 149.000
80.57235 148.000
80.59230 144.000
80.61224 155.000
80.63219 165.000
80.65214 157.000
80.67209 147.000
80.69203 148.000
80.71198 154.000
80.73193 165.000
80.75187 150.000
80.77182 142.000
80.79177 169.000
80.81171 161.000
80.83166 167.000
80.85161 163.000
80.87156 152.000
80.89150 141.000
80.91145 161.000
80.93140 150.000
80.95134 152.000
80.97129 155.000
80.99124 147.000
81.01118 164.000
81.03113 144.000
81.05108 169.000
81.07102 146.000
81.09097 168.000
81.11092 162.000
81.13087 142.000
81.15081 140.000
81.17076 154.000
81.19071 130.000
81.21065 148.000
81.23060 142.000
81.25055 135.000
81.27049 155.000
81.29044 162.000
81.31039 152.000
81.33034 173.000
81.35028 151.000
81.37023 141.000
81.39018 145.000
81.41012 145.000
81.43007 138.000
81.45002 143.000
81.46996 150.000
81.48991 141.000
81.50986 143.000
81.52980 137.000
81.54975 142.000
81.56970 157.000
81.58965 163.000
81.60959 135.000
81.62954 156.000
81.64949 175.000
81.66943 161.000
81.68938 141.000
81.70933 166.000
81.72927 147.000
81.74922 159.000
81.76917 136.000
81.78912 159.000
81.80906 173.000
81.82901 146.000
81.84896 153.000
81.86890 127.000
81.88885 178.000
81.90880 153.000
81.92874 152.000
81.94869 147.000
81.96864 166.000
81.98859 151.000
82.00853 159.000
82.02848 146.000
82.04843 168.000
82.06837 167.000
82.08832 149.000
82.10827 173.000
82.12821 164.000
82.14816 170.000
82.16811 143.000
82.18805 164.000
82.20800 163.000
82.22795 136.000
82.24790 163.000
82.26784 164.000
82.28779 161.000
82.30774 126.000
82.32768 170.000
82.34763 155.000
82.36758 142.000
82.38752 164.000
82.40747 153.000
82.42742 158.000
82.44737 134.000
82.46731 173.000
82.48726 163.000
82.50721 175.000
82.52715 152.000
82.54710 138.000
82.56705 176.000
82.58699 183.000
82.60694 181.000
82.62689 153.000
82.64683 167.000
82.66678 153.000
82.68673 179.000
82.70668 154.000
82.72662 151.000
82.74657 152.000
82.76652 154.000
82.78646 142.000
82.80641 132.000
82.82636 136.000
82.84630 174.000
82.86625 151.000
82.88620 123.000
82.90615 143.000
82.92609 180.000
82.94604 151.000
82.96599 160.000
82.98593 151.000
83.00588 158.000
83.02583 146.000
83.04577 137.000
83.06572 138.000
83.08567 169.000
83.10561 158.000
83.12556 149.000
83.14551 162.000
83.16546 151.000
83.18540 141.000
83.20535 165.000
83.22530 160.000
83.24524 148.000
83.26519 156.000
83.28514 145.000
83.30508 169.000
83.32503 156.000
83.34498 156.000
83.36493 156.000
83.38487 151.000
83.40482 152.000
83.42477 165.000
83.44471 157.000
83.46466 159.000
83.48461 167.000
83.50455 139.000
83.52450 147.000
83.54445 130.000
83.56440 144.000
83.58434 148.000
83.60429 154.000
83.62424 170.000
83.64418 157.000
83.66413 173.000
83.68408 167.000
83.70402 125.000
83.72397 128.000
83.74392 159.000
83.76386 135.000
83.78381 159.000
83.80376 130.000
83.82371 152.000
83.84365 141.000
83.86360 140.000
83.88355 137.000
83.90349 154.000
83.92344 153.000
83.94339 144.000
83.96333 149.000
83.98328 151.000
84.00323 150.000
84.02318 151.000
84.04312 161.000
84.06307 162.000
84.08302 138.000
84.10296 173.000
84.12291 155.000
84.14286 155.000
84.16280 152.000
84.18275 160.000
84.20270 152.000
84.22264 152.000
84.24259 149.000
84.26254 147.000
84.28249 146.000
84.30243 138.000
84.32238 145.000
84.34233 169.000
84.36227 165.000
84.38222 145.000
84.40217 135.000
84.42211 174.000
84.44206 150.000
84.46201 147.000
84.48196 159.000
84.50190 146.000
84.52185 139.000
84.54180 133.000
84.56174 173.000
84.58169 142.000
84.60164 150.000
84.62158 173.000
84.64153 138.000
84.66148 161.000
84.68142 144.000
84.70137 155.000
84.72132 163.000
84.74127 133.000
84.76121 168.000
84.78116 145.000
84.80111 163.000
84.82105 146.000
84.84100 152.000
84.86095 139.000
84.88089 157.000
84.90084 142.000
84.92079 162.000
84.94074 143.000
84.96068 163.000
84.98063 124.000
85.00058 134.000
85.02052 152.000
85.04047 119.000
85.06042 152.000
85.08036 148.000
85.10031 137.000
85.12026 151.000
85.14021 149.000
85.16015 148.000
85.18010 149.000
85.20005 134.000
85.21999 167.000
85.23994 147.000
85.25989 149.000
85.27983 157.000
85.29978 142.000
85.31973 148.000
85.33967 169.000
85.35962 147.000
85.37957 133.000
85.39952 159.000
85.41946 145.000
85.43941 147.000
85.45936 138.000
85.47930 135.000
85.49925 159.000
85.51920 156.000
85.53914 138.000
85.55909 156.000
85.57904 163.000
85.59899 155.000
85.61893 141.000
85.63888 137.000
85.65883 147.000
85.67877 152.000
85.69872 161.000
85.71867 158.000
85.73861 159.000
85.75856 164.000
85.77851 169.000
85.79845 165.000
85.81840 129.000
85.83835 163.000
85.85830 156.000
85.87824 158.000
85.89819 163.000
85.91814 144.000
85.93808 164.000
85.95803 170.000
85.97798 156.000
85.99792 169.000
86.01787 177.000
86.03782 142.000
86.05777 153.000
86.07771 182.000
86.09766 148.000
86.11761 161.000
86.13755 164.000
86.15750 139.000
86.17745 146.000
86.19739 162.000
86.21734 155.000
86.23729 164.000
86.25723 154.000
86.27718 165.000
86.29713 158.000
86.31708 166.000
86.33702 166.000
86.35697 145.000
86.37692 155.000
86.39686 135.000
86.41681 160.000
86.43676 148.000
86.45670 134.000
86.47665 152.000
86.49660 140.000
86.51655 176.000
86.53649 182.000
86.55644 155.000
86.57639 181.000
86.59633 167.000
86.61628 143.000
86.63623 189.000
86.65617 140.000
86.67612 174.000
86.69607 166.000
86.71602 166.000
86.73596 163.000
86.75591 163.000
86.77586 153.000
86.79580 165.000
86.81575 164.000
86.83570 147.000
86.85564 137.000
86.87559 169.000
86.89554 168.000
86.91548 149.000
86.93543 169.000
86.95538 141.000
86.97533 147.000
86.99527 172.000
87.01522 158.000
87.03517 181.000
87.05511 156.000
87.07506 149.000
87.09501 152.000
87.11495 139.000
87.13490 156.000
87.15485 161.000
87.17480 140.000
87.19474 151.000
87.21469 163.000
87.23464 136.000
87.25458 144.000
87.27453 173.000
87.29448 175.000
87.31442 155.000
87.33437 172.000
87.35432 157.000
87.37426 163.000
87.39421 165.000
87.41416 154.000
87.43411 186.000
87.45405 178.000
87.47400 167.000
87.49395 176.000
87.51389 185.000
87.53384 186.000
87.55379 159.000
87.57373 159.000
87.59368 186.000
87.61363 184.000
87.63358 166.000
87.65352 172.000
87.67347 158.000
87.69342 140.000
87.71336 167.000
87.73331 154.000
87.75326 154.000
87.77320 173.000
87.79315 145.000
87.81310 153.000
87.83304 151.000
87.85299 147.000
87.87294 158.000
87.89289 146.000
87.91283 137.000
87.93278 140.000
87.95273 156.000
87.97267 174.000
87.99262 160.000
88.01257 156.000
88.03251 142.000
88.05246 154.000
88.07241 142.000
88.09236 150.000
88.11230 155.000
88.13225 122.000
88.15220 139.000
88.17214 154.000
88.19209 160.000
88.21204 135.000
88.23198 138.000
88.25193 157.000
88.27188 151.000
88.29183 137.000
88.31177 159.000
88.33172 167.000
88.35167 126.000
88.37161 152.000
88.39156 164.000
88.41151 151.000
88.43145 146.000
88.45140 149.000
88.47135 137.000
88.49129 152.000
88.51124 130.000
88.53119 157.000
88.55114 133.000
88.57108 142.000
88.59103 133.000
88.61098 141.000
88.63092 139.000
88.65087 150.000
88.67082 164.000
88.69076 135.000
88.71071 161.000
88.73066 134.000
88.75061 151.000
88.77055 129.000
88.79050 137.000
88.81045 145.000
88.83039 161.000
88.85034 142.000
88.87029 170.000
88.89023 141.000
88.91018 141.000
88.93013 176.000
88.95007 145.000
88.97002 154.000
88.98997 111.000
89.00992 179.000
89.02986 157.000
89.04981 148.000
89.06976 170.000
89.08970 173.000
89.10965 145.000
89.12960 160.000
89.14954 145.000
89.16949 166.000
89.18944 153.000
89.20939 158.000
89.22933 158.000
89.24928 125.000
89.26923 154.000
89.28917 144.000
89.30912 153.000
89.32907 158.000
89.34901 155.000
89.36896 149.000
89.38891 161.000
89.40885 136.000
89.42880 142.000
89.44875 130.000
89.46870 157.000
89.48864 158.000
89.50859 150.000
89.52854 157.000
89.54848 163.000
89.56843 161.000
89.58838 146.000
89.60832 159.000
89.62827 143.000
89.64822 151.000
89.66817 163.000
89.68811 174.000
89.70806 133.000
89.72801 173.000
89.74795 143.000
89.76790 178.000
89.78785 156.000
89.80779 163.000
89.82774 158.000
89.84769 146.000
89.86764 169.000
89.88758 157.000
89.90753 155.000
89.92748 176.000
89.94742 176.000
89.96737 161.000
89.98732 179.000
90.00726 174.000
