10.00000 93.000
10.01995 98.000
10.03989 120.000
10.05984 92.000
10.07979 103.000
10.09973 100.000
10.11968 96.000
10.13963 102.000
10.15958 108.000
10.17952 103.000
10.19947 108.000
10.21942 104.000
10.23936 99.000
10.25931 88.000
10.27926 108.000
10.29920 101.000
10.31915 100.000
10.33910 94.000
10.35905 85.000
10.37899 79.000
10.39894 104.000
10.41889 101.000
10.43883 113.000
10.45878 88.000
10.47873 80.000
10.49867 92.000
10.51862 100.000
10.53857 91.000
10.55851 80.000
10.57846 104.000
10.59841 117.000
10.61836 78.000
10.63830 85.000
10.65825 87.000
10.67820 91.000
10.69814 82.000
10.71809 97.000
10.73804 95.000
10.75798 95.000
10.77793 92.000
10.79788 109.000
10.81783 92.000
10.83777 96.000
10.85772 91.000
10.87767 101.000
10.89761 97.000
10.91756 97.000
10.93751 88.000
10.95745 91.000
10.97740 101.000
10.99735 96.000
11.01730 110.000
11.03724 80.000
11.05719 117.000
11.07714 95.000
11.09708 96.000
11.11703 95.000
11.13698 86.000
11.15692 98.000
11.17687 85.000
11.19682 97.000
11.21676 104.000
11.23671 88.000
11.25666 100.000
11.27661 91.000
11.29655 95.000
11.31650 100.000
11.33645 96.000
11.35639 96.000
11.37634 95.000
11.39629 105.000
11.41623 102.000
11.43618 97.000
11.45613 105.000
11.47608 97.000
11.49602 89.000
11.51597 99.000
11.53592 103.000
11.55586 93.000
11.57581 106.000
11.59576 104.000
11.61570 100.000
11.63565 102.000
11.65560 106.000
11.67554 110.000
11.69549 117.000
11.71544 87.000
11.73539 102.000
11.75533 101.000
11.77528 99.000
11.79523 100.000
11.81517 112.000
11.83512 98.000
11.85507 100.000
11.87501 95.000
11.89496 115.000
11.91491 91.000
11.93486 105.000
11.95480 86.000
11.97475 90.000
11.99470 95.000
12.01464 109.000
12.03459 89.000
12.05454 90.000
12.07448 116.000
12.09443 100.000
12.11438 94.000
12.13432 85.000
12.15427 104.000
12.17422 89.000
12.19417 91.000
12.21411 98.000
12.23406 89.000
12.25401 115.000
12.27395 96.000
12.29390 88.000
12.31385 91.000
12.33379 81.000
12.35374 105.000
12.37369 100.000
12.39364 96.000
12.41358 102.000
12.43353 116.000
12.45348 101.000
12.47342 89.000
12.49337 103.000
12.51332 115.000
12.53326 90.000
12.55321 93.000
12.57316 117.000
12.59311 93.000
12.61305 90.000
12.63300 101.000
12.65295 87.000
12.67289 103.000
12.69284 93.000
12.71279 107.000
12.73273 111.000
12.75268 88.000
12.77263 94.000
12.79257 109.000
12.81252 102.000
12.83247 96.000
12.85242 89.000
12.87236 80.000
12.89231 101.000
12.91226 96.000
12.93220 87.000
12.95215 87.000
12.97210 102.000
12.99204 82.000
13.01199 102.000
13.03194 88.000
13.05189 94.000
13.07183 75.000
13.09178 93.000
13.11173 104.000
13.13167 97.000
13.15162 81.000
13.17157 95.000
13.19151 95.000
13.21146 92.000
13.23141 80.000
13.25135 105.000
13.27130 84.000
13.29125 90.000
13.31120 82.000
13.33114 110.000
13.35109 99.000
13.37104 112.000
13.39098 90.000
13.41093 107.000
13.43088 94.000
13.45082 100.000
13.47077 104.000
13.49072 107.000
13.51067 101.000
13.53061 119.000
13.55056 89.000
13.57051 103.000
13.59045 76.000
13.61040 97.000
13.63035 100.000
13.65029 111.000
13.67024 109.000
13.69019 113.000
13.71013 95.000
13.73008 85.000
13.75003 95.000
13.76998 98.000
13.78992 105.000
13.80987 103.000
13.82982 106.000
13.84976 114.000
13.86971 94.000
13.88966 112.000
13.90960 98.000
13.92955 101.000
13.94950 94.000
13.96945 77.000
13.98939 83.000
14.00934 108.000
14.02929 107.000
14.04923 121.000
14.06918 106.000
14.08913 82.000
14.10907 99.000
14.12902 103.000
14.14897 105.000
14.16892 103.000
14.18886 100.000
14.20881 116.000
14.22876 102.000
14.24870 120.000
14.26865 101.000
14.28860 97.000
14.30854 94.000
14.32849 99.000
14.34844 112.000
14.36838 84.000
14.38833 92.000
14.40828 110.000
14.42823 97.000
14.44817 90.000
14.46812 94.000
14.48807 100.000
14.50801 107.000
14.52796 102.000
14.54791 112.000
14.56785 106.000
14.58780 89.000
14.60775 117.000
14.62770 111.000
14.64764 99.000
14.66759 88.000
14.68754 103.000
14.70748 100.000
14.72743 110.000
14.74738 124.000
14.76732 83.000
14.78727 109.000
14.80722 141.000
14.82716 132.000
14.84711 137.000
14.86706 109.000
14.88701 120.000
14.90695 120.000
14.92690 121.000
14.94685 128.000
14.96679 125.000
14.98674 121.000
15.00669 154.000
15.02663 135.000
15.04658 143.000
15.06653 160.000
15.08648 151.000
15.10642 181.000
15.12637 160.000
15.14632 153.000
15.16626 138.000
15.18621 144.000
15.20616 159.000
15.22610 173.000
15.24605 177.000
15.26600 162.000
15.28594 168.000
15.30589 184.000
15.32584 201.000
15.34579 181.000
15.36573 197.000
15.38568 188.000
15.40563 227.000
15.42557 225.000
15.44552 216.000
15.46547 270.000
15.48541 269.000
15.50536 291.000
15.52531 308.000
15.54526 383.000
15.56520 437.000
15.58515 567.000
15.60510 653.000
15.62504 936.000
15.64499 1364.000
15.66494 1951.000
15.68488 3150.000
15.70483 4867.000
15.72478 6414.000
15.74472 7013.000
15.76467 6480.000
15.78462 5121.000
15.80457 3662.000
15.82451 2359.000
15.84446 1650.000
15.86441 1091.000
15.88435 753.000
15.90430 543.000
15.92425 433.000
15.94419 348.000
15.96414 259.000
15.98409 246.000
16.00404 256.000
16.02398 235.000
16.04393 211.000
16.06388 191.000
16.08382 184.000
16.10377 184.000
16.12372 179.000
16.14366 154.000
16.16361 181.000
16.18356 161.000
16.20351 171.000
16.22345 162.000
16.24340 150.000
16.26335 143.000
16.28329 156.000
16.30324 162.000
16.32319 147.000
16.34313 135.000
16.36308 130.000
16.38303 138.000
16.40297 114.000
16.42292 113.000
16.44287 135.000
16.46282 121.000
16.48276 116.000
16.50271 127.000
16.52266 126.000
16.54260 134.000
16.56255 101.000
16.58250 115.000
16.60244 101.000
16.62239 105.000
16.64234 123.000
16.66229 109.000
16.68223 128.000
16.70218 108.000
16.72213 96.000
16.74207 102.000
16.76202 108.000
16.78197 109.000
16.80191 99.000
16.82186 93.000
16.84181 106.000
16.86175 95.000
16.88170 121.000
16.90165 120.000
16.92160 106.000
16.94154 101.000
16.96149 100.000
16.98144 101.000
17.00138 105.000
17.02133 103.000
17.04128 92.000
17.06122 109.000
17.08117 97.000
17.10112 109.000
17.12107 81.000
17.14101 89.000
17.16096 110.000
17.18091 110.000
17.20085 79.000
17.22080 97.000
17.24075 93.000
17.26069 108.000
17.28064 94.000
17.30059 109.000
17.32053 89.000
17.34048 99.000
17.36043 103.000
17.38038 108.000
17.40032 91.000
17.42027 101.000
17.44022 103.000
17.46016 101.000
17.48011 105.000
17.50006 96.000
17.52000 79.000
17.53995 84.000
17.55990 92.000
17.57985 85.000
17.59979 89.000
17.61974 125.000
17.63969 95.000
17.65963 94.000
17.67958 115.000
17.69953 69.000
17.71947 93.000
17.73942 91.000
17.75937 105.000
17.77932 112.000
17.79926 108.000
17.81921 102.000
17.83916 98.000
17.85910 106.000
17.87905 109.000
17.89900 106.000
17.91894 104.000
17.93889 96.000
17.95884 91.000
17.97878 113.000
17.99873 83.000
18.01868 92.000
18.03863 102.000
18.05857 98.000
18.07852 105.000
18.09847 92.000
18.11841 94.000
18.13836 119.000
18.15831 104.000
18.17825 105.000
18.19820 129.000
18.21815 147.000
18.23810 180.000
18.25804 206.000
18.27799 286.000
18.29794 380.000
18.31788 370.000
18.33783 403.000
18.35778 402.000
18.37772 368.000
18.39767 322.000
18.41762 250.000
18.43756 221.000
18.45751 150.000
18.47746 116.000
18.49741 116.000
18.51735 122.000
18.53730 105.000
18.55725 85.000
18.57719 102.000
18.59714 89.000
18.61709 90.000
18.63703 91.000
18.65698 83.000
18.67693 105.000
18.69688 83.000
18.71682 91.000
18.73677 93.000
18.75672 103.000
18.77666 90.000
18.79661 91.000
18.81656 81.000
18.83650 106.000
18.85645 84.000
18.87640 102.000
18.89634 103.000
18.91629 90.000
18.93624 98.000
18.95619 90.000
18.97613 103.000
18.99608 92.000
19.01603 92.000
19.03597 115.000
19.05592 101.000
19.07587 92.000
19.09581 105.000
19.11576 104.000
19.13571 96.000
19.15566 101.000
19.17560 90.000
19.19555 82.000
19.21550 101.000
19.23544 102.000
19.25539 90.000
19.27534 93.000
19.29528 116.000
19.31523 102.000
19.33518 99.000
19.35513 93.000
19.37507 86.000
19.39502 97.000
19.41497 90.000
19.43491 82.000
19.45486 92.000
19.47481 85.000
19.49475 93.000
19.51470 85.000
19.53465 94.000
19.55459 106.000
19.57454 88.000
19.59449 91.000
19.61444 106.000
19.63438 101.000
19.65433 106.000
19.67428 99.000
19.69422 104.000
19.71417 93.000
19.73412 83.000
19.75406 97.000
19.77401 98.000
19.79396 87.000
19.81391 104.000
19.83385 96.000
19.85380 76.000
19.87375 96.000
19.89369 102.000
19.91364 95.000
19.93359 82.000
19.95353 85.000
19.97348 98.000
19.99343 89.000
20.01337 79.000
20.03332 85.000
20.05327 88.000
20.07322 90.000
20.09316 93.000
20.11311 94.000
20.13306 82.000
20.15300 104.000
20.17295 89.000
20.19290 93.000
20.21284 79.000
20.23279 97.000
20.25274 90.000
20.27269 94.000
20.29263 92.000
20.31258 74.000
20.33253 95.000
20.35247 95.000
20.37242 94.000
20.39237 88.000
20.41231 96.000
20.43226 81.000
20.45221 70.000
20.47215 108.000
20.49210 90.000
20.51205 100.000
20.53200 90.000
20.55194 100.000
20.57189 92.000
20.59184 112.000
20.61178 97.000
20.63173 84.000
20.65168 81.000
20.67162 103.000
20.69157 83.000
20.71152 73.000
20.73147 81.000
20.75141 100.000
20.77136 101.000
20.79131 96.000
20.81125 98.000
20.83120 87.000
20.85115 103.000
20.87109 82.000
20.89104 87.000
20.91099 95.000
20.93094 105.000
20.95088 102.000
20.97083 84.000
20.99078 75.000
21.01072 113.000
21.03067 120.000
21.05062 122.000
21.07056 122.000
21.09051 130.000
21.11046 107.000
21.13040 108.000
21.15035 102.000
21.17030 98.000
21.19025 82.000
21.21019 87.000
21.23014 90.000
21.25009 98.000
21.27003 82.000
21.28998 77.000
21.30993 92.000
21.32987 97.000
21.34982 81.000
21.36977 98.000
21.38972 88.000
21.40966 97.000
21.42961 83.000
21.44956 104.000
21.46950 93.000
21.48945 92.000
21.50940 84.000
21.52934 101.000
21.54929 83.000
21.56924 98.000
21.58918 102.000
21.60913 99.000
21.62908 103.000
21.64903 86.000
21.66897 88.000
21.68892 99.000
21.70887 111.000
21.72881 84.000
21.74876 104.000
21.76871 93.000
21.78865 84.000
21.80860 102.000
21.82855 94.000
21.84850 105.000
21.86844 94.000
21.88839 84.000
21.90834 103.000
21.92828 81.000
21.94823 89.000
21.96818 96.000
21.98812 97.000
22.00807 99.000
22.02802 102.000
22.04796 94.000
22.06791 93.000
22.08786 81.000
22.10781 108.000
22.12775 91.000
22.14770 77.000
22.16765 80.000
22.18759 91.000
22.20754 105.000
22.22749 93.000
22.24743 91.000
22.26738 92.000
22.28733 106.000
22.30728 100.000
22.32722 98.000
22.34717 94.000
22.36712 92.000
22.38706 82.000
22.40701 75.000
22.42696 73.000
22.44690 73.000
22.46685 100.000
22.48680 84.000
22.50675 83.000
22.52669 82.000
22.54664 82.000
22.56659 88.000
22.58653 98.000
22.60648 81.000
22.62643 81.000
22.64637 110.000
22.66632 85.000
22.68627 85.000
22.70621 106.000
22.72616 107.000
22.74611 82.000
22.76606 102.000
22.78600 99.000
22.80595 79.000
22.82590 84.000
22.84584 101.000
22.86579 84.000
22.88574 83.000
22.90568 97.000
22.92563 108.000
22.94558 101.000
22.96553 83.000
22.98547 88.000
23.00542 94.000
23.02537 84.000
23.04531 100.000
23.06526 83.000
23.08521 98.000
23.10515 88.000
23.12510 91.000
23.14505 103.000
23.16499 84.000
23.18494 92.000
23.20489 109.000
23.22484 95.000
23.24478 101.000
23.26473 92.000
23.28468 89.000
23.30462 99.000
23.32457 112.000
23.34452 102.000
23.36446 79.000
23.38441 95.000
23.40436 76.000
23.42431 87.000
23.44425 88.000
23.46420 87.000
23.48415 110.000
23.50409 88.000
23.52404 84.000
23.54399 92.000
23.56393 99.000
23.58388 85.000
23.60383 98.000
23.62377 93.000
23.64372 92.000
23.66367 84.000
23.68362 94.000
23.70356 99.000
23.72351 82.000
23.74346 87.000
23.76340 89.000
23.78335 94.000
23.80330 93.000
23.82324 94.000
23.84319 92.000
23.86314 91.000
23.88309 103.000
23.90303 96.000
23.92298 92.000
23.94293 93.000
23.96287 115.000
23.98282 91.000
24.00277 98.000
24.02271 80.000
24.04266 101.000
24.06261 81.000
24.08256 94.000
24.10250 94.000
24.12245 99.000
24.14240 99.000
24.16234 112.000
24.18229 90.000
24.20224 99.000
24.22218 98.000
24.24213 84.000
24.26208 92.000
24.28202 109.000
24.30197 98.000
24.32192 75.000
24.34187 93.000
24.36181 83.000
24.38176 94.000
24.40171 81.000
24.42165 98.000
24.44160 88.000
24.46155 107.000
24.48149 101.000
24.50144 87.000
24.52139 86.000
24.54134 88.000
24.56128 86.000
24.58123 96.000
24.60118 83.000
24.62112 104.000
24.64107 93.000
24.66102 78.000
24.68096 89.000
24.70091 97.000
24.72086 95.000
24.74080 87.000
24.76075 103.000
24.78070 81.000
24.80065 86.000
24.82059 83.000
24.84054 96.000
24.86049 85.000
24.88043 91.000
24.90038 94.000
24.92033 106.000
24.94027 94.000
24.96022 86.000
24.98017 96.000
25.00012 106.000
25.02006 106.000
25.04001 91.000
25.05996 92.000
25.07990 94.000
25.09985 102.000
25.11980 98.000
25.13974 91.000
25.15969 90.000
25.17964 80.000
25.19958 107.000
25.21953 96.000
25.23948 104.000
25.25943 78.000
25.27937 82.000
25.29932 107.000
25.31927 92.000
25.33921 75.000
25.35916 107.000
25.37911 86.000
25.39905 85.000
25.41900 94.000
25.43895 84.000
25.45890 115.000
25.47884 108.000
25.49879 92.000
25.51874 76.000
25.53868 93.000
25.55863 110.000
25.57858 109.000
25.59852 95.000
25.61847 107.000
25.63842 93.000
25.65837 81.000
25.67831 108.000
25.69826 99.000
25.71821 105.000
25.73815 98.000
25.75810 116.000
25.77805 109.000
25.79799 85.000
25.81794 82.000
25.83789 89.000
25.85783 109.000
25.87778 94.000
25.89773 104.000
25.91768 94.000
25.93762 102.000
25.95757 86.000
25.97752 85.000
25.99746 90.000
26.01741 85.000
26.03736 112.000
26.05730 94.000
26.07725 116.000
26.09720 88.000
26.11715 81.000
26.13709 102.000
26.15704 107.000
26.17699 89.000
26.19693 83.000
26.21688 105.000
26.23683 84.000
26.25677 84.000
26.27672 104.000
26.29667 94.000
26.31661 108.000
26.33656 83.000
26.35651 101.000
26.37646 91.000
26.39640 99.000
26.41635 113.000
26.43630 98.000
26.45624 115.000
26.47619 100.000
26.49614 86.000
26.51608 119.000
26.53603 87.000
26.55598 85.000
26.57593 80.000
26.59587 93.000
26.61582 89.000
26.63577 88.000
26.65571 103.000
26.67566 99.000
26.69561 93.000
26.71555 94.000
26.73550 88.000
26.75545 95.000
26.77539 77.000
26.79534 101.000
26.81529 89.000
26.83524 98.000
26.85518 100.000
26.87513 104.000
26.89508 105.000
26.91502 114.000
26.93497 105.000
26.95492 96.000
26.97486 114.000
26.99481 118.000
27.01476 98.000
27.03471 111.000
27.05465 99.000
27.07460 112.000
27.09455 91.000
27.11449 93.000
27.13444 99.000
27.15439 118.000
27.17433 107.000
27.19428 101.000
27.21423 92.000
27.23417 96.000
27.25412 95.000
27.27407 84.000
27.29402 104.000
27.31396 108.000
27.33391 89.000
27.35386 94.000
27.37380 84.000
27.39375 82.000
27.41370 91.000
27.43364 89.000
27.45359 89.000
27.47354 74.000
27.49349 93.000
27.51343 98.000
27.53338 117.000
27.55333 109.000
27.57327 97.000
27.59322 106.000
27.61317 103.000
27.63311 87.000
27.65306 97.000
27.67301 104.000
27.69296 91.000
27.71290 96.000
27.73285 90.000
27.75280 91.000
27.77274 89.000
27.79269 99.000
27.81264 101.000
27.83258 94.000
27.85253 119.000
27.87248 91.000
27.89242 78.000
27.91237 87.000
27.93232 92.000
27.95227 110.000
27.97221 103.000
27.99216 78.000
28.01211 101.000
28.03205 91.000
28.05200 93.000
28.07195 105.000
28.09189 114.000
28.11184 119.000
28.13179 92.000
28.15174 91.000
28.17168 108.000
28.19163 90.000
28.21158 91.000
28.23152 102.000
28.25147 112.000
28.27142 110.000
28.29136 113.000
28.31131 91.000
28.33126 120.000
28.35120 85.000
28.37115 101.000
28.39110 101.000
28.41105 88.000
28.43099 89.000
28.45094 101.000
28.47089 99.000
28.49083 90.000
28.51078 85.000
28.53073 92.000
28.55067 123.000
28.57062 103.000
28.59057 97.000
28.61052 99.000
28.63046 95.000
28.65041 96.000
28.67036 116.000
28.69030 91.000
28.71025 90.000
28.73020 100.000
28.75014 103.000
28.77009 93.000
28.79004 106.000
28.80998 103.000
28.82993 102.000
28.84988 115.000
28.86983 98.000
28.88977 106.000
28.90972 87.000
28.92967 110.000
28.94961 85.000
28.96956 108.000
28.98951 102.000
29.00945 120.000
29.02940 94.000
29.04935 109.000
29.06930 89.000
29.08924 106.000
29.10919 86.000
29.12914 96.000
29.14908 97.000
29.16903 111.000
29.18898 98.000
29.20892 110.000
29.22887 88.000
29.24882 102.000
29.26877 96.000
29.28871 110.000
29.30866 107.000
29.32861 120.000
29.34855 102.000
29.36850 119.000
29.38845 87.000
29.40839 106.000
29.42834 97.000
29.44829 93.000
29.46823 101.000
29.48818 103.000
29.50813 101.000
29.52808 93.000
29.54802 107.000
29.56797 100.000
29.58792 119.000
29.60786 106.000
29.62781 94.000
29.64776 92.000
29.66770 101.000
29.68765 109.000
29.70760 89.000
29.72755 107.000
29.74749 108.000
29.76744 102.000
29.78739 104.000
29.80733 103.000
29.82728 109.000
29.84723 112.000
29.86717 125.000
29.88712 115.000
29.90707 130.000
29.92701 137.000
29.94696 155.000
29.96691 167.000
29.98686 145.000
30.00680 166.000
30.02675 199.000
30.04670 271.000
30.06664 329.000
30.08659 419.000
30.10654 484.000
30.12648 511.000
30.14643 579.000
30.16638 579.000
30.18633 610.000
30.20627 629.000
30.22622 652.000
30.24617 551.000
30.26611 467.000
30.28606 418.000
30.30601 369.000
30.32595 306.000
30.34590 253.000
30.36585 208.000
30.38579 156.000
30.40574 145.000
30.42569 134.000
30.44564 105.000
30.46558 122.000
30.48553 104.000
30.50548 113.000
30.52542 100.000
30.54537 103.000
30.56532 106.000
30.58526 94.000
30.60521 105.000
30.62516 106.000
30.64511 102.000
30.66505 82.000
30.68500 95.000
30.70495 116.000
30.72489 110.000
30.74484 106.000
30.76479 100.000
30.78473 100.000
30.80468 109.000
30.82463 95.000
30.84458 105.000
30.86452 121.000
30.88447 105.000
30.90442 98.000
30.92436 94.000
30.94431 107.000
30.96426 136.000
30.98420 107.000
31.00415 98.000
31.02410 99.000
31.04404 106.000
31.06399 102.000
31.08394 108.000
31.10389 87.000
31.12383 106.000
31.14378 88.000
31.16373 108.000
31.18367 105.000
31.20362 117.000
31.22357 122.000
31.24351 108.000
31.26346 98.000
31.28341 116.000
31.30336 114.000
31.32330 111.000
31.34325 114.000
31.36320 101.000
31.38314 105.000
31.40309 115.000
31.42304 116.000
31.44298 115.000
31.46293 122.000
31.48288 132.000
31.50282 105.000
31.52277 93.000
31.54272 134.000
31.56267 138.000
31.58261 138.000
31.60256 134.000
31.62251 138.000
31.64245 168.000
31.66240 186.000
31.68235 206.000
31.70229 250.000
31.72224 346.000
31.74219 445.000
31.76214 418.000
31.78208 466.000
31.80203 516.000
31.82198 547.000
31.84192 505.000
31.86187 440.000
31.88182 378.000
31.90176 370.000
31.92171 315.000
31.94166 256.000
31.96160 265.000
31.98155 238.000
32.00150 197.000
32.02145 161.000
32.04139 162.000
32.06134 140.000
32.08129 129.000
32.10123 115.000
32.12118 113.000
32.14113 122.000
32.16107 116.000
32.18102 135.000
32.20097 113.000
32.22092 109.000
32.24086 94.000
32.26081 111.000
32.28076 101.000
32.30070 104.000
32.32065 106.000
32.34060 119.000
32.36054 107.000
32.38049 97.000
32.40044 122.000
32.42039 102.000
32.44033 117.000
32.46028 103.000
32.48023 123.000
32.50017 99.000
32.52012 120.000
32.54007 133.000
32.56001 104.000
32.57996 128.000
32.59991 118.000
32.61985 122.000
32.63980 111.000
32.65975 124.000
32.67970 102.000
32.69964 106.000
32.71959 99.000
32.73954 118.000
32.75948 96.000
32.77943 106.000
32.79938 91.000
32.81932 110.000
32.83927 108.000
32.85922 105.000
32.87917 101.000
32.89911 125.000
32.91906 89.000
32.93901 113.000
32.95895 129.000
32.97890 119.000
32.99885 93.000
33.01879 102.000
33.03874 106.000
33.05869 103.000
33.07863 91.000
33.09858 111.000
33.11853 83.000
33.13848 123.000
33.15842 121.000
33.17837 105.000
33.19832 109.000
33.21826 114.000
33.23821 96.000
33.25816 111.000
33.27810 118.000
33.29805 112.000
33.31800 113.000
33.33795 131.000
33.35789 100.000
33.37784 96.000
33.39779 106.000
33.41773 102.000
33.43768 100.000
33.45763 95.000
33.47757 86.000
33.49752 108.000
33.51747 97.000
33.53741 121.000
33.55736 80.000
33.57731 115.000
33.59726 89.000
33.61720 100.000
33.63715 118.000
33.65710 96.000
33.67704 87.000
33.69699 97.000
33.71694 102.000
33.73688 100.000
33.75683 98.000
33.77678 104.000
33.79673 73.000
33.81667 114.000
33.83662 99.000
33.85657 104.000
33.87651 117.000
33.89646 107.000
33.91641 129.000
33.93635 103.000
33.95630 111.000
33.97625 120.000
33.99620 118.000
34.01614 118.000
34.03609 100.000
34.05604 115.000
34.07598 100.000
34.09593 102.000
34.11588 114.000
34.13582 115.000
34.15577 99.000
34.17572 108.000
34.19566 113.000
34.21561 107.000
34.23556 113.000
34.25551 91.000
34.27545 128.000
34.29540 107.000
34.31535 95.000
34.33529 106.000
34.35524 102.000
34.37519 103.000
34.39513 108.000
34.41508 96.000
34.43503 99.000
34.45498 120.000
34.47492 118.000
34.49487 114.000
34.51482 98.000
34.53476 115.000
34.55471 114.000
34.57466 115.000
34.59460 120.000
34.61455 117.000
34.63450 125.000
34.65444 113.000
34.67439 122.000
34.69434 125.000
34.71429 137.000
34.73423 127.000
34.75418 114.000
34.77413 124.000
34.79407 110.000
34.81402 129.000
34.83397 114.000
34.85391 115.000
34.87386 127.000
34.89381 130.000
34.91376 136.000
34.93370 131.000
34.95365 125.000
34.97360 139.000
34.99354 132.000
35.01349 116.000
35.03344 121.000
35.05338 156.000
35.07333 131.000
35.09328 145.000
35.11322 155.000
35.13317 153.000
35.15312 147.000
35.17307 148.000
35.19301 166.000
35.21296 156.000
35.23291 206.000
35.25285 229.000
35.27280 249.000
35.29275 249.000
35.31269 323.000
35.33264 409.000
35.35259 462.000
35.37254 580.000
35.39248 708.000
35.41243 889.000
35.43238 1150.000
35.45232 1264.000
35.47227 1407.000
35.49222 1661.000
35.51216 1828.000
35.53211 2042.000
35.55206 2103.000
35.57201 2120.000
35.59195 2190.000
35.61190 2102.000
35.63185 2110.000
35.65179 1958.000
35.67174 1603.000
35.69169 1403.000
35.71163 1281.000
35.73158 1052.000
35.75153 911.000
35.77147 713.000
35.79142 535.000
35.81137 406.000
35.83132 360.000
35.85126 305.000
35.87121 240.000
35.89116 221.000
35.91110 212.000
35.93105 164.000
35.95100 166.000
35.97094 147.000
35.99089 177.000
36.01084 160.000
36.03079 153.000
36.05073 153.000
36.07068 140.000
36.09063 135.000
36.11057 129.000
36.13052 140.000
36.15047 131.000
36.17041 114.000
36.19036 123.000
36.21031 138.000
36.23025 125.000
36.25020 121.000
36.27015 135.000
36.29010 106.000
36.31004 104.000
36.32999 133.000
36.34994 127.000
36.36988 132.000
36.38983 118.000
36.40978 131.000
36.42972 135.000
36.44967 147.000
36.46962 139.000
36.48957 135.000
36.50951 162.000
36.52946 159.000
36.54941 158.000
36.56935 166.000
36.58930 152.000
36.60925 164.000
36.62919 146.000
36.64914 175.000
36.66909 137.000
36.68903 122.000
36.70898 133.000
36.72893 134.000
36.74888 107.000
36.76882 133.000
36.78877 112.000
36.80872 146.000
36.82866 115.000
36.84861 106.000
36.86856 136.000
36.88850 115.000
36.90845 132.000
36.92840 134.000
36.94835 136.000
36.96829 116.000
36.98824 142.000
37.00819 132.000
37.02813 158.000
37.04808 178.000
37.06803 176.000
37.08797 198.000
37.10792 196.000
37.12787 198.000
37.14781 238.000
37.16776 216.000
37.18771 217.000
37.20766 254.000
37.22760 224.000
37.24755 230.000
37.26750 228.000
37.28744 203.000
37.30739 186.000
37.32734 161.000
37.34728 164.000
37.36723 166.000
37.38718 152.000
37.40713 140.000
37.42707 123.000
37.44702 129.000
37.46697 109.000
37.48691 116.000
37.50686 119.000
37.52681 122.000
37.54675 107.000
37.56670 117.000
37.58665 117.000
37.60660 93.000
37.62654 108.000
37.64649 104.000
37.66644 93.000
37.68638 126.000
37.70633 106.000
37.72628 98.000
37.74622 95.000
37.76617 127.000
37.78612 100.000
37.80606 104.000
37.82601 119.000
37.84596 98.000
37.86591 110.000
37.88585 96.000
37.90580 106.000
37.92575 115.000
37.94569 102.000
37.96564 111.000
37.98559 128.000
38.00553 129.000
38.02548 95.000
38.04543 120.000
38.06538 113.000
38.08532 126.000
38.10527 109.000
38.12522 118.000
38.14516 105.000
38.16511 99.000
38.18506 121.000
38.20500 108.000
38.22495 118.000
38.24490 121.000
38.26484 114.000
38.28479 124.000
38.30474 111.000
38.32469 120.000
38.34463 118.000
38.36458 104.000
38.38453 128.000
38.40447 142.000
38.42442 131.000
38.44437 124.000
38.46431 116.000
38.48426 138.000
38.50421 148.000
38.52416 124.000
38.54410 142.000
38.56405 147.000
38.58400 162.000
38.60394 169.000
38.62389 211.000
38.64384 217.000
38.66378 225.000
38.68373 300.000
38.70368 277.000
38.72362 255.000
38.74357 285.000
38.76352 299.000
38.78347 287.000
38.80341 262.000
38.82336 277.000
38.84331 256.000
38.86325 219.000
38.88320 234.000
38.90315 263.000
38.92309 279.000
38.94304 280.000
38.96299 290.000
38.98294 332.000
39.00288 385.000
39.02283 432.000
39.04278 555.000
39.06272 650.000
39.08267 693.000
39.10262 769.000
39.12256 890.000
39.14251 994.000
39.16246 1065.000
39.18241 1081.000
39.20235 1024.000
39.22230 921.000
39.24225 944.000
39.26219 863.000
39.28214 749.000
39.30209 709.000
39.32203 656.000
39.34198 548.000
39.36193 473.000
39.38187 420.000
39.40182 348.000
39.42177 321.000
39.44172 253.000
39.46166 234.000
39.48161 209.000
39.50156 222.000
39.52150 184.000
39.54145 190.000
39.56140 162.000
39.58134 145.000
39.60129 137.000
39.62124 144.000
39.64119 136.000
39.66113 135.000
39.68108 107.000
39.70103 130.000
39.72097 160.000
39.74092 101.000
39.76087 107.000
39.78081 125.000
39.80076 134.000
39.82071 117.000
39.84065 143.000
39.86060 117.000
39.88055 118.000
39.90050 134.000
39.92044 115.000
39.94039 118.000
39.96034 123.000
39.98028 115.000
40.00023 117.000
40.02018 112.000
40.04012 117.000
40.06007 128.000
40.08002 108.000
40.09997 104.000
40.11991 127.000
40.13986 125.000
40.15981 114.000
40.17975 111.000
40.19970 103.000
40.21965 94.000
40.23959 106.000
40.25954 119.000
40.27949 109.000
40.29943 119.000
40.31938 92.000
40.33933 108.000
40.35928 127.000
40.37922 98.000
40.39917 119.000
40.41912 89.000
40.43906 105.000
40.45901 108.000
40.47896 108.000
40.49890 84.000
40.51885 103.000
40.53880 108.000
40.55875 104.000
40.57869 83.000
40.59864 96.000
40.61859 90.000
40.63853 99.000
40.65848 140.000
40.67843 110.000
40.69837 105.000
40.71832 110.000
40.73827 95.000
40.75822 107.000
40.77816 124.000
40.79811 89.000
40.81806 85.000
40.83800 125.000
40.85795 122.000
40.87790 99.000
40.89784 99.000
40.91779 101.000
40.93774 115.000
40.95768 104.000
40.97763 106.000
40.99758 102.000
41.01753 113.000
41.03747 86.000
41.05742 100.000
41.07737 94.000
41.09731 99.000
41.11726 95.000
41.13721 101.000
41.15715 99.000
41.17710 104.000
41.19705 97.000
41.21700 88.000
41.23694 108.000
41.25689 99.000
41.27684 96.000
41.29678 117.000
41.31673 82.000
41.33668 121.000
41.35662 107.000
41.37657 92.000
41.39652 102.000
41.41646 115.000
41.43641 102.000
41.45636 113.000
41.47631 97.000
41.49625 114.000
41.51620 103.000
41.53615 94.000
41.55609 109.000
41.57604 118.000
41.59599 109.000
41.61593 115.000
41.63588 97.000
41.65583 116.000
41.67578 117.000
41.69572 125.000
41.71567 105.000
41.73562 110.000
41.75556 109.000
41.77551 105.000
41.79546 90.000
41.81540 118.000
41.83535 96.000
41.85530 100.000
41.87524 92.000
41.89519 102.000
41.91514 107.000
41.93509 117.000
41.95503 107.000
41.97498 82.000
41.99493 115.000
42.01487 100.000
42.03482 100.000
42.05477 91.000
42.07471 93.000
42.09466 97.000
42.11461 82.000
42.13456 92.000
42.15450 129.000
42.17445 96.000
42.19440 108.000
42.21434 113.000
42.23429 101.000
42.25424 100.000
42.27418 110.000
42.29413 108.000
42.31408 85.000
42.33403 115.000
42.35397 96.000
42.37392 101.000
42.39387 114.000
42.41381 107.000
42.43376 101.000
42.45371 112.000
42.47365 107.000
42.49360 101.000
42.51355 96.000
42.53349 114.000
42.55344 105.000
42.57339 94.000
42.59334 103.000
42.61328 111.000
42.63323 101.000
42.65318 115.000
42.67312 134.000
42.69307 100.000
42.71302 115.000
42.73296 118.000
42.75291 119.000
42.77286 125.000
42.79281 136.000
42.81275 125.000
42.83270 114.000
42.85265 129.000
42.87259 127.000
42.89254 158.000
42.91249 148.000
42.93243 198.000
42.95238 182.000
42.97233 217.000
42.99227 239.000
43.01222 250.000
43.03217 278.000
43.05212 319.000
43.07206 343.000
43.09201 378.000
43.11196 466.000
43.13190 463.000
43.15185 601.000
43.17180 655.000
43.19174 668.000
43.21169 656.000
43.23164 738.000
43.25159 724.000
43.27153 751.000
43.29148 676.000
43.31143 654.000
43.33137 658.000
43.35132 575.000
43.37127 558.000
43.39121 487.000
43.41116 417.000
43.43111 386.000
43.45105 302.000
43.47100 271.000
43.49095 258.000
43.51090 230.000
43.53084 165.000
43.55079 166.000
43.57074 168.000
43.59068 173.000
43.61063 127.000
43.63058 146.000
43.65052 135.000
43.67047 128.000
43.69042 122.000
43.71037 114.000
43.73031 137.000
43.75026 100.000
43.77021 135.000
43.79015 104.000
43.81010 120.000
43.83005 129.000
43.84999 103.000
43.86994 109.000
43.88989 90.000
43.90984 110.000
43.92978 104.000
43.94973 119.000
43.96968 113.000
43.98962 102.000
44.00957 98.000
44.02952 108.000
44.04946 98.000
44.06941 112.000
44.08936 107.000
44.10930 97.000
44.12925 102.000
44.14920 94.000
44.16915 104.000
44.18909 91.000
44.20904 112.000
44.22899 113.000
44.24893 116.000
44.26888 97.000
44.28883 113.000
44.30877 99.000
44.32872 105.000
44.34867 92.000
44.36862 99.000
44.38856 119.000
44.40851 90.000
44.42846 79.000
44.44840 95.000
44.46835 93.000
44.48830 96.000
44.50824 104.000
44.52819 85.000
44.54814 106.000
44.56808 95.000
44.58803 114.000
44.60798 99.000
44.62793 107.000
44.64787 99.000
44.66782 108.000
44.68777 101.000
44.70771 110.000
44.72766 108.000
44.74761 101.000
44.76755 95.000
44.78750 101.000
44.80745 113.000
44.82740 84.000
44.84734 89.000
44.86729 111.000
44.88724 105.000
44.90718 103.000
44.92713 92.000
44.94708 93.000
44.96702 104.000
44.98697 104.000
45.00692 108.000
45.02686 93.000
45.04681 94.000
45.06676 104.000
45.08671 103.000
45.10665 96.000
45.12660 81.000
45.14655 102.000
45.16649 82.000
45.18644 101.000
45.20639 111.000
45.22633 94.000
45.24628 101.000
45.26623 109.000
45.28618 100.000
45.30612 100.000
45.32607 101.000
45.34602 96.000
45.36596 94.000
45.38591 83.000
45.40586 90.000
45.42580 95.000
45.44575 100.000
45.46570 102.000
45.48565 94.000
45.50559 98.000
45.52554 108.000
45.54549 106.000
45.56543 92.000
45.58538 102.000
45.60533 113.000
45.62527 93.000
45.64522 100.000
45.66517 109.000
45.68511 109.000
45.70506 94.000
45.72501 91.000
45.74496 110.000
45.76490 96.000
45.78485 83.000
45.80480 78.000
45.82474 107.000
45.84469 94.000
45.86464 79.000
45.88458 89.000
45.90453 112.000
45.92448 103.000
45.94443 105.000
45.96437 98.000
45.98432 91.000
46.00427 101.000
46.02421 85.000
46.04416 111.000
46.06411 90.000
46.08405 105.000
46.10400 93.000
46.12395 97.000
46.14389 93.000
46.16384 90.000
46.18379 93.000
46.20374 125.000
46.22368 109.000
46.24363 109.000
46.26358 122.000
46.28352 87.000
46.30347 85.000
46.32342 114.000
46.34336 95.000
46.36331 119.000
46.38326 110.000
46.40321 84.000
46.42315 105.000
46.44310 115.000
46.46305 105.000
46.48299 100.000
46.50294 79.000
46.52289 103.000
46.54283 106.000
46.56278 90.000
46.58273 95.000
46.60267 116.000
46.62262 111.000
46.64257 120.000
46.66252 100.000
46.68246 100.000
46.70241 87.000
46.72236 100.000
46.74230 101.000
46.76225 97.000
46.78220 110.000
46.80214 94.000
46.82209 120.000
46.84204 110.000
46.86199 92.000
46.88193 86.000
46.90188 81.000
46.92183 104.000
46.94177 112.000
46.96172 87.000
46.98167 107.000
47.00161 100.000
47.02156 123.000
47.04151 91.000
47.06146 98.000
47.08140 111.000
47.10135 119.000
47.12130 93.000
47.14124 105.000
47.16119 117.000
47.18114 116.000
47.20108 96.000
47.22103 112.000
47.24098 106.000
47.26092 110.000
47.28087 114.000
47.30082 137.000
47.32077 106.000
47.34071 119.000
47.36066 104.000
47.38061 123.000
47.40055 98.000
47.42050 125.000
47.44045 122.000
47.46039 122.000
47.48034 113.000
47.50029 107.000
47.52024 112.000
47.54018 114.000
47.56013 125.000
47.58008 96.000
47.60002 128.000
47.61997 104.000
47.63992 116.000
47.65986 101.000
47.67981 92.000
47.69976 113.000
47.71970 104.000
47.73965 123.000
47.75960 127.000
47.77955 123.000
47.79949 105.000
47.81944 122.000
47.83939 110.000
47.85933 124.000
47.87928 126.000
47.89923 114.000
47.91917 131.000
47.93912 124.000
47.95907 98.000
47.97902 132.000
47.99896 115.000
48.01891 137.000
48.03886 154.000
48.05880 141.000
48.07875 137.000
48.09870 153.000
48.11864 169.000
48.13859 162.000
48.15854 155.000
48.17848 214.000
48.19843 181.000
48.21838 194.000
48.23833 220.000
48.25827 260.000
48.27822 265.000
48.29817 269.000
48.31811 283.000
48.33806 397.000
48.35801 392.000
48.37795 479.000
48.39790 566.000
48.41785 648.000
48.43780 820.000
48.45774 768.000
48.47769 823.000
48.49764 792.000
48.51758 753.000
48.53753 805.000
48.55748 779.000
48.57742 725.000
48.59737 719.000
48.61732 670.000
48.63726 655.000
48.65721 591.000
48.67716 532.000
48.69711 491.000
48.71705 439.000
48.73700 413.000
48.75695 381.000
48.77689 348.000
48.79684 319.000
48.81679 293.000
48.83673 272.000
48.85668 262.000
48.87663 241.000
48.89658 201.000
48.91652 202.000
48.93647 185.000
48.95642 156.000
48.97636 169.000
48.99631 171.000
49.01626 147.000
49.03620 149.000
49.05615 146.000
49.07610 137.000
49.09605 158.000
49.11599 122.000
49.13594 121.000
49.15589 127.000
49.17583 104.000
49.19578 129.000
49.21573 118.000
49.23567 121.000
49.25562 132.000
49.27557 106.000
49.29551 128.000
49.31546 113.000
49.33541 102.000
49.35536 103.000
49.37530 108.000
49.39525 118.000
49.41520 103.000
49.43514 96.000
49.45509 108.000
49.47504 108.000
49.49498 112.000
49.51493 109.000
49.53488 110.000
49.55483 111.000
49.57477 135.000
49.59472 78.000
49.61467 88.000
49.63461 115.000
49.65456 98.000
49.67451 98.000
49.69445 135.000
49.71440 128.000
49.73435 102.000
49.75429 83.000
49.77424 101.000
49.79419 116.000
49.81414 91.000
49.83408 110.000
49.85403 108.000
49.87398 112.000
49.89392 121.000
49.91387 111.000
49.93382 100.000
49.95376 103.000
49.97371 91.000
49.99366 117.000
50.01361 95.000
50.03355 98.000
50.05350 72.000
50.07345 107.000
50.09339 109.000
50.11334 105.000
50.13329 101.000
50.15323 95.000
50.17318 121.000
50.19313 78.000
50.21307 95.000
50.23302 100.000
50.25297 108.000
50.27292 105.000
50.29286 93.000
50.31281 108.000
50.33276 108.000
50.35270 109.000
50.37265 78.000
50.39260 82.000
50.41254 102.000
50.43249 105.000
50.45244 105.000
50.47239 95.000
50.49233 115.000
50.51228 75.000
50.53223 95.000
50.55217 100.000
50.57212 94.000
50.59207 115.000
50.61201 98.000
50.63196 98.000
50.65191 102.000
50.67186 96.000
50.69180 101.000
50.71175 104.000
50.73170 90.000
50.75164 96.000
50.77159 112.000
50.79154 114.000
50.81148 88.000
50.83143 91.000
50.85138 91.000
50.87132 106.000
50.89127 97.000
50.91122 81.000
50.93117 72.000
50.95111 109.000
50.97106 95.000
50.99101 115.000
51.01095 107.000
51.03090 103.000
51.05085 80.000
51.07079 95.000
51.09074 96.000
51.11069 90.000
51.13064 88.000
51.15058 109.000
51.17053 112.000
51.19048 102.000
51.21042 83.000
51.23037 100.000
51.25032 87.000
51.27026 104.000
51.29021 99.000
51.31016 109.000
51.33010 105.000
51.35005 102.000
51.37000 87.000
51.38995 92.000
51.40989 114.000
51.42984 98.000
51.44979 104.000
51.46973 92.000
51.48968 103.000
51.50963 83.000
51.52957 96.000
51.54952 87.000
51.56947 81.000
51.58942 78.000
51.60936 105.000
51.62931 112.000
51.64926 94.000
51.66920 91.000
51.68915 111.000
51.70910 109.000
51.72904 95.000
51.74899 116.000
51.76894 108.000
51.78888 108.000
51.80883 99.000
51.82878 93.000
51.84873 99.000
51.86867 101.000
51.88862 89.000
51.90857 87.000
51.92851 98.000
51.94846 94.000
51.96841 95.000
51.98835 79.000
52.00830 101.000
52.02825 109.000
52.04820 97.000
52.06814 100.000
52.08809 112.000
52.10804 110.000
52.12798 107.000
52.14793 107.000
52.16788 111.000
52.18782 93.000
52.20777 111.000
52.22772 89.000
52.24767 97.000
52.26761 96.000
52.28756 102.000
52.30751 94.000
52.32745 100.000
52.34740 101.000
52.36735 89.000
52.38729 73.000
52.40724 99.000
52.42719 95.000
52.44713 89.000
52.46708 88.000
52.48703 98.000
52.50698 115.000
52.52692 95.000
52.54687 87.000
52.56682 89.000
52.58676 94.000
52.60671 91.000
52.62666 88.000
52.64660 104.000
52.66655 107.000
52.68650 109.000
52.70645 91.000
52.72639 97.000
52.74634 81.000
52.76629 96.000
52.78623 79.000
52.80618 85.000
52.82613 111.000
52.84607 118.000
52.86602 114.000
52.88597 99.000
52.90591 108.000
52.92586 112.000
52.94581 111.000
52.96576 95.000
52.98570 83.000
53.00565 87.000
53.02560 112.000
53.04554 109.000
53.06549 96.000
53.08544 99.000
53.10538 105.000
53.12533 114.000
53.14528 102.000
53.16523 93.000
53.18517 108.000
53.20512 83.000
53.22507 112.000
53.24501 116.000
53.26496 107.000
53.28491 106.000
53.30485 114.000
53.32480 112.000
53.34475 104.000
53.36469 133.000
53.38464 127.000
53.40459 157.000
53.42454 163.000
53.44448 134.000
53.46443 165.000
53.48438 144.000
53.50432 179.000
53.52427 173.000
53.54422 216.000
53.56416 205.000
53.58411 194.000
53.60406 187.000
53.62401 172.000
53.64395 195.000
53.66390 189.000
53.68385 203.000
53.70379 199.000
53.72374 195.000
53.74369 175.000
53.76363 204.000
53.78358 190.000
53.80353 149.000
53.82348 137.000
53.84342 131.000
53.86337 125.000
53.88332 119.000
53.90326 115.000
53.92321 118.000
53.94316 110.000
53.96310 107.000
53.98305 116.000
54.00300 98.000
54.02294 104.000
54.04289 79.000
54.06284 115.000
54.08279 115.000
54.10273 97.000
54.12268 100.000
54.14263 94.000
54.16257 92.000
54.18252 118.000
54.20247 86.000
54.22241 111.000
54.24236 92.000
54.26231 106.000
54.28226 91.000
54.30220 100.000
54.32215 102.000
54.34210 100.000
54.36204 108.000
54.38199 92.000
54.40194 84.000
54.42188 94.000
54.44183 93.000
54.46178 109.000
54.48172 106.000
54.50167 85.000
54.52162 76.000
54.54157 108.000
54.56151 80.000
54.58146 109.000
54.60141 100.000
54.62135 81.000
54.64130 103.000
54.66125 109.000
54.68119 97.000
54.70114 93.000
54.72109 95.000
54.74104 92.000
54.76098 85.000
54.78093 99.000
54.80088 102.000
54.82082 81.000
54.84077 97.000
54.86072 103.000
54.88066 96.000
54.90061 122.000
54.92056 78.000
54.94050 95.000
54.96045 88.000
54.98040 113.000
55.00035 95.000
55.02029 93.000
55.04024 103.000
55.06019 88.000
55.08013 110.000
55.10008 87.000
55.12003 98.000
55.13997 74.000
55.15992 94.000
55.17987 89.000
55.19982 88.000
55.21976 91.000
55.23971 101.000
55.25966 97.000
55.27960 83.000
55.29955 95.000
55.31950 81.000
55.33944 108.000
55.35939 97.000
55.37934 115.000
55.39929 117.000
55.41923 95.000
55.43918 77.000
55.45913 91.000
55.47907 86.000
55.49902 90.000
55.51897 87.000
55.53891 94.000
55.55886 87.000
55.57881 100.000
55.59875 99.000
55.61870 107.000
55.63865 87.000
55.65860 93.000
55.67854 91.000
55.69849 85.000
55.71844 90.000
55.73838 83.000
55.75833 90.000
55.77828 87.000
55.79822 81.000
55.81817 90.000
55.83812 100.000
55.85807 104.000
55.87801 103.000
55.89796 118.000
55.91791 106.000
55.93785 98.000
55.95780 98.000
55.97775 104.000
55.99769 111.000
56.01764 90.000
56.03759 98.000
56.05753 103.000
56.07748 82.000
56.09743 110.000
56.11738 98.000
56.13732 98.000
56.15727 82.000
56.17722 98.000
56.19716 93.000
56.21711 96.000
56.23706 97.000
56.25700 94.000
56.27695 113.000
56.29690 109.000
56.31685 94.000
56.33679 109.000
56.35674 110.000
56.37669 94.000
56.39663 87.000
56.41658 82.000
56.43653 110.000
56.45647 104.000
56.47642 96.000
56.49637 102.000
56.51631 116.000
56.53626 85.000
56.55621 90.000
56.57616 113.000
56.59610 129.000
56.61605 103.000
56.63600 112.000
56.65594 138.000
56.67589 100.000
56.69584 107.000
56.71578 122.000
56.73573 137.000
56.75568 121.000
56.77563 141.000
56.79557 139.000
56.81552 149.000
56.83547 178.000
56.85541 166.000
56.87536 197.000
56.89531 202.000
56.91525 197.000
56.93520 236.000
56.95515 257.000
56.97510 258.000
56.99504 277.000
57.01499 329.000
57.03494 340.000
57.05488 343.000
57.07483 352.000
57.09478 365.000
57.11472 359.000
57.13467 377.000
57.15462 417.000
57.17456 386.000
57.19451 377.000
57.21446 391.000
57.23441 392.000
57.25435 356.000
57.27430 371.000
57.29425 363.000
57.31419 340.000
57.33414 339.000
57.35409 294.000
57.37403 283.000
57.39398 250.000
57.41393 216.000
57.43388 238.000
57.45382 225.000
57.47377 222.000
57.49372 175.000
57.51366 175.000
57.53361 140.000
57.55356 133.000
57.57350 139.000
57.59345 115.000
57.61340 118.000
57.63334 120.000
57.65329 100.000
57.67324 116.000
57.69319 99.000
57.71313 115.000
57.73308 111.000
57.75303 103.000
57.77297 97.000
57.79292 89.000
57.81287 123.000
57.83281 107.000
57.85276 105.000
57.87271 111.000
57.89266 91.000
57.91260 103.000
57.93255 97.000
57.95250 89.000
57.97244 94.000
57.99239 110.000
58.01234 94.000
58.03228 93.000
58.05223 94.000
58.07218 120.000
58.09212 97.000
58.11207 117.000
58.13202 107.000
58.15197 100.000
58.17191 112.000
58.19186 123.000
58.21181 112.000
58.23175 99.000
58.25170 112.000
58.27165 105.000
58.29159 118.000
58.31154 116.000
58.33149 123.000
58.35144 104.000
58.37138 96.000
58.39133 109.000
58.41128 100.000
58.43122 87.000
58.45117 93.000
58.47112 93.000
58.49106 98.000
58.51101 106.000
58.53096 91.000
58.55090 108.000
58.57085 92.000
58.59080 102.000
58.61075 105.000
58.63069 108.000
58.65064 105.000
58.67059 96.000
58.69053 92.000
58.71048 106.000
58.73043 88.000
58.75037 99.000
58.77032 108.000
58.79027 108.000
58.81022 82.000
58.83016 97.000
58.85011 100.000
58.87006 111.000
58.89000 100.000
58.90995 93.000
58.92990 105.000
58.94984 105.000
58.96979 112.000
58.98974 91.000
59.00969 95.000
59.02963 84.000
59.04958 90.000
59.06953 81.000
59.08947 116.000
59.10942 87.000
59.12937 108.000
59.14931 88.000
59.16926 106.000
59.18921 110.000
59.20915 95.000
59.22910 86.000
59.24905 92.000
59.26900 102.000
59.28894 109.000
59.30889 99.000
59.32884 108.000
59.34878 100.000
59.36873 73.000
59.38868 111.000
59.40862 110.000
59.42857 98.000
59.44852 106.000
59.46847 88.000
59.48841 120.000
59.50836 86.000
59.52831 110.000
59.54825 100.000
59.56820 107.000
59.58815 96.000
59.60809 96.000
59.62804 88.000
59.64799 101.000
59.66793 98.000
59.68788 103.000
59.70783 101.000
59.72778 104.000
59.74772 114.000
59.76767 75.000
59.78762 88.000
59.80756 100.000
59.82751 98.000
59.84746 98.000
59.86740 110.000
59.88735 116.000
59.90730 79.000
59.92725 86.000
59.94719 113.000
59.96714 109.000
59.98709 110.000
60.00703 111.000
60.02698 91.000
60.04693 106.000
60.06687 98.000
60.08682 110.000
60.10677 105.000
60.12671 101.000
60.14666 101.000
60.16661 83.000
60.18656 100.000
60.20650 108.000
60.22645 110.000
60.24640 104.000
60.26634 89.000
60.28629 115.000
60.30624 111.000
60.32618 92.000
60.34613 116.000
60.36608 109.000
60.38603 129.000
60.40597 107.000
60.42592 88.000
60.44587 107.000
60.46581 114.000
60.48576 105.000
60.50571 107.000
60.52565 104.000
60.54560 101.000
60.56555 97.000
60.58550 104.000
60.60544 101.000
60.62539 113.000
60.64534 109.000
60.66528 95.000
60.68523 113.000
60.70518 95.000
60.72512 92.000
60.74507 100.000
60.76502 118.000
60.78496 92.000
60.80491 98.000
60.82486 109.000
60.84481 104.000
60.86475 107.000
60.88470 113.000
60.90465 111.000
60.92459 108.000
60.94454 127.000
60.96449 104.000
60.98443 98.000
61.00438 121.000
61.02433 112.000
61.04428 110.000
61.06422 102.000
61.08417 101.000
61.10412 94.000
61.12406 131.000
61.14401 106.000
61.16396 107.000
61.18390 132.000
61.20385 118.000
61.22380 120.000
61.24374 142.000
61.26369 135.000
61.28364 166.000
61.30359 140.000
61.32353 156.000
61.34348 147.000
61.36343 168.000
61.38337 164.000
61.40332 179.000
61.42327 183.000
61.44321 197.000
61.46316 201.000
61.48311 251.000
61.50306 271.000
61.52300 311.000
61.54295 296.000
61.56290 342.000
61.58284 373.000
61.60279 402.000
61.62274 357.000
61.64268 409.000
61.66263 364.000
61.68258 369.000
61.70252 351.000
61.72247 352.000
61.74242 368.000
61.76237 334.000
61.78231 341.000
61.80226 337.000
61.82221 289.000
61.84215 297.000
61.86210 253.000
61.88205 242.000
61.90199 227.000
61.92194 222.000
61.94189 210.000
61.96184 195.000
61.98178 197.000
62.00173 209.000
62.02168 196.000
62.04162 163.000
62.06157 172.000
62.08152 154.000
62.10146 166.000
62.12141 160.000
62.14136 142.000
62.16131 154.000
62.18125 152.000
62.20120 141.000
62.22115 147.000
62.24109 158.000
62.26104 148.000
62.28099 144.000
62.30093 152.000
62.32088 170.000
62.34083 162.000
62.36077 165.000
62.38072 145.000
62.40067 185.000
62.42062 205.000
62.44056 206.000
62.46051 210.000
62.48046 246.000
62.50040 286.000
62.52035 318.000
62.54030 288.000
62.56024 326.000
62.58019 345.000
62.60014 372.000
62.62009 386.000
62.64003 396.000
62.65998 416.000
62.67993 468.000
62.69987 413.000
62.71982 434.000
62.73977 453.000
62.75971 457.000
62.77966 429.000
62.79961 489.000
62.81955 512.000
62.83950 476.000
62.85945 432.000
62.87940 432.000
62.89934 513.000
62.91929 475.000
62.93924 420.000
62.95918 394.000
62.97913 353.000
62.99908 293.000
63.01902 319.000
63.03897 272.000
63.05892 239.000
63.07887 232.000
63.09881 270.000
63.11876 186.000
63.13871 184.000
63.15865 186.000
63.17860 159.000
63.19855 157.000
63.21849 165.000
63.23844 136.000
63.25839 118.000
63.27833 124.000
63.29828 123.000
63.31823 103.000
63.33818 122.000
63.35812 134.000
63.37807 129.000
63.39802 109.000
63.41796 120.000
63.43791 107.000
63.45786 109.000
63.47780 115.000
63.49775 127.000
63.51770 130.000
63.53765 109.000
63.55759 126.000
63.57754 117.000
63.59749 125.000
63.61743 112.000
63.63738 155.000
63.65733 130.000
63.67727 126.000
63.69722 150.000
63.71717 156.000
63.73712 147.000
63.75706 170.000
63.77701 201.000
63.79696 179.000
63.81690 243.000
63.83685 223.000
63.85680 227.000
63.87674 229.000
63.89669 254.000
63.91664 281.000
63.93658 281.000
63.95653 300.000
63.97648 278.000
63.99643 311.000
64.01637 292.000
64.03632 272.000
64.05627 297.000
64.07621 329.000
64.09616 284.000
64.11611 291.000
64.13605 295.000
64.15600 272.000
64.17595 265.000
64.19590 251.000
64.21584 259.000
64.23579 208.000
64.25574 226.000
64.27568 198.000
64.29563 206.000
64.31558 171.000
64.33552 168.000
64.35547 191.000
64.37542 180.000
64.39536 146.000
64.41531 140.000
64.43526 124.000
64.45521 140.000
64.47515 141.000
64.49510 141.000
64.51505 141.000
64.53499 126.000
64.55494 93.000
64.57489 119.000
64.59483 110.000
64.61478 124.000
64.63473 115.000
64.65468 101.000
64.67462 96.000
64.69457 97.000
64.71452 108.000
64.73446 93.000
64.75441 117.000
64.77436 119.000
64.79430 102.000
64.81425 106.000
64.83420 102.000
64.85414 94.000
64.87409 106.000
64.89404 116.000
64.91399 95.000
64.93393 104.000
64.95388 101.000
64.97383 93.000
64.99377 118.000
65.01372 109.000
65.03367 87.000
65.05361 97.000
65.07356 107.000
65.09351 109.000
65.11346 85.000
65.13340 97.000
65.15335 108.000
65.17330 99.000
65.19324 106.000
65.21319 93.000
65.23314 94.000
65.25308 115.000
65.27303 117.000
65.29298 94.000
65.31293 112.000
65.33287 99.000
65.35282 95.000
65.37277 108.000
65.39271 110.000
65.41266 91.000
65.43261 92.000
65.45255 98.000
65.47250 92.000
65.49245 96.000
65.51239 103.000
65.53234 119.000
65.55229 107.000
65.57224 108.000
65.59218 103.000
65.61213 124.000
65.63208 107.000
65.65202 110.000
65.67197 127.000
65.69192 122.000
65.71186 129.000
65.73181 115.000
65.75176 109.000
65.77171 126.000
65.79165 125.000
65.81160 119.000
65.83155 121.000
65.85149 127.000
65.87144 102.000
65.89139 134.000
65.91133 125.000
65.93128 123.000
65.95123 121.000
65.97117 137.000
65.99112 168.000
66.01107 131.000
66.03102 166.000
66.05096 168.000
66.07091 178.000
66.09086 162.000
66.11080 155.000
66.13075 165.000
66.15070 170.000
66.17064 198.000
66.19059 193.000
66.21054 211.000
66.23049 230.000
66.25043 271.000
66.27038 252.000
66.29033 275.000
66.31027 255.000
66.33022 292.000
66.35017 272.000
66.37011 260.000
66.39006 256.000
66.41001 284.000
66.42995 257.000
66.44990 284.000
66.46985 266.000
66.48980 255.000
66.50974 285.000
66.52969 242.000
66.54964 230.000
66.56958 238.000
66.58953 200.000
66.60948 228.000
66.62942 183.000
66.64937 171.000
66.66932 212.000
66.68927 166.000
66.70921 177.000
66.72916 184.000
66.74911 145.000
66.76905 142.000
66.78900 147.000
66.80895 114.000
66.82889 138.000
66.84884 134.000
66.86879 137.000
66.88874 114.000
66.90868 114.000
66.92863 130.000
66.94858 121.000
66.96852 110.000
66.98847 123.000
67.00842 104.000
67.02836 99.000
67.04831 107.000
67.06826 111.000
67.08820 107.000
67.10815 87.000
67.12810 117.000
67.14805 111.000
67.16799 93.000
67.18794 89.000
67.20789 98.000
67.22783 87.000
67.24778 110.000
67.26773 93.000
67.28767 98.000
67.30762 104.000
67.32757 101.000
67.34752 105.000
67.36746 124.000
67.38741 107.000
67.40736 103.000
67.42730 92.000
67.44725 95.000
67.46720 112.000
67.48714 94.000
67.50709 89.000
67.52704 83.000
67.54698 101.000
67.56693 99.000
67.58688 95.000
67.60683 103.000
67.62677 99.000
67.64672 105.000
67.66667 111.000
67.68661 106.000
67.70656 100.000
67.72651 108.000
67.74645 85.000
67.76640 93.000
67.78635 108.000
67.80630 103.000
67.82624 125.000
67.84619 117.000
67.86614 117.000
67.88608 94.000
67.90603 98.000
67.92598 127.000
67.94592 88.000
67.96587 127.000
67.98582 99.000
68.00576 95.000
68.02571 113.000
68.04566 116.000
68.06561 114.000
68.08555 100.000
68.10550 92.000
68.12545 112.000
68.14539 144.000
68.16534 117.000
68.18529 93.000
68.20523 111.000
68.22518 116.000
68.24513 111.000
68.26508 115.000
68.28502 106.000
68.30497 108.000
68.32492 86.000
68.34486 87.000
68.36481 116.000
68.38476 97.000
68.40470 92.000
68.42465 110.000
68.44460 90.000
68.46455 101.000
68.48449 91.000
68.50444 78.000
68.52439 92.000
68.54433 84.000
68.56428 78.000
68.58423 84.000
68.60417 90.000
68.62412 98.000
68.64407 98.000
68.66401 85.000
68.68396 100.000
68.70391 91.000
68.72386 99.000
68.74380 94.000
68.76375 99.000
68.78370 105.000
68.80364 106.000
68.82359 72.000
68.84354 94.000
68.86348 108.000
68.88343 97.000
68.90338 98.000
68.92333 79.000
68.94327 88.000
68.96322 95.000
68.98317 84.000
69.00311 82.000
69.02306 94.000
69.04301 86.000
69.06295 120.000
69.08290 96.000
69.10285 96.000
69.12279 83.000
69.14274 99.000
69.16269 93.000
69.18264 92.000
69.20258 99.000
69.22253 101.000
69.24248 82.000
69.26242 101.000
69.28237 113.000
69.30232 108.000
69.32226 113.000
69.34221 111.000
69.36216 97.000
69.38211 96.000
69.40205 94.000
69.42200 85.000
69.44195 93.000
69.46189 91.000
69.48184 110.000
69.50179 97.000
69.52173 78.000
69.54168 94.000
69.56163 90.000
69.58157 90.000
69.60152 100.000
69.62147 101.000
69.64142 93.000
69.66136 102.000
69.68131 89.000
69.70126 93.000
69.72120 104.000
69.74115 113.000
69.76110 82.000
69.78104 100.000
69.80099 85.000
69.82094 109.000
69.84089 90.000
69.86083 80.000
69.88078 93.000
69.90073 72.000
69.92067 114.000
69.94062 91.000
69.96057 92.000
69.98051 97.000
70.00046 89.000
70.02041 103.000
70.04035 95.000
70.06030 98.000
70.08025 102.000
70.10020 94.000
70.12014 88.000
70.14009 100.000
70.16004 89.000
70.17998 97.000
70.19993 76.000
70.21988 104.000
70.23982 87.000
70.25977 96.000
70.27972 84.000
70.29967 87.000
70.31961 78.000
70.33956 90.000
70.35951 91.000
70.37945 94.000
70.39940 92.000
70.41935 106.000
70.43929 109.000
70.45924 105.000
70.47919 87.000
70.49914 95.000
70.51908 112.000
70.53903 94.000
70.55898 96.000
70.57892 92.000
70.59887 88.000
70.61882 76.000
70.63876 98.000
70.65871 94.000
70.67866 90.000
70.69860 93.000
70.71855 113.000
70.73850 96.000
70.75845 87.000
70.77839 90.000
70.79834 84.000
70.81829 102.000
70.83823 91.000
70.85818 100.000
70.87813 100.000
70.89807 115.000
70.91802 117.000
70.93797 104.000
70.95792 95.000
70.97786 120.000
70.99781 100.000
71.01776 96.000
71.03770 96.000
71.05765 100.000
71.07760 88.000
71.09754 97.000
71.11749 107.000
71.13744 96.000
71.15738 116.000
71.17733 110.000
71.19728 124.000
71.21723 103.000
71.23717 118.000
71.25712 120.000
71.27707 95.000
71.29701 118.000
71.31696 125.000
71.33691 128.000
71.35685 103.000
71.37680 114.000
71.39675 107.000
71.41670 115.000
71.43664 124.000
71.45659 91.000
71.47654 98.000
71.49648 81.000
71.51643 112.000
71.53638 114.000
71.55632 102.000
71.57627 93.000
71.59622 101.000
71.61616 116.000
71.63611 117.000
71.65606 82.000
71.67601 103.000
71.69595 96.000
71.71590 90.000
71.73585 115.000
71.75579 82.000
71.77574 119.000
71.79569 100.000
71.81563 94.000
71.83558 91.000
71.85553 99.000
71.87548 97.000
71.89542 89.000
71.91537 104.000
71.93532 85.000
71.95526 83.000
71.97521 77.000
71.99516 101.000
72.01510 85.000
72.03505 130.000
72.05500 72.000
72.07495 74.000
72.09489 78.000
72.11484 94.000
72.13479 97.000
72.15473 93.000
72.17468 78.000
72.19463 102.000
72.21457 101.000
72.23452 102.000
72.25447 100.000
72.27441 89.000
72.29436 115.000
72.31431 86.000
72.33426 106.000
72.35420 101.000
72.37415 106.000
72.39410 95.000
72.41404 111.000
72.43399 90.000
72.45394 103.000
72.47388 98.000
72.49383 93.000
72.51378 107.000
72.53373 97.000
72.55367 96.000
72.57362 100.000
72.59357 109.000
72.61351 115.000
72.63346 111.000
72.65341 98.000
72.67335 103.000
72.69330 95.000
72.71325 119.000
72.73319 100.000
72.75314 114.000
72.77309 80.000
72.79304 106.000
72.81298 97.000
72.83293 95.000
72.85288 105.000
72.87282 121.000
72.89277 85.000
72.91272 113.000
72.93266 107.000
72.95261 122.000
72.97256 118.000
72.99251 126.000
73.01245 112.000
73.03240 112.000
73.05235 151.000
73.07229 132.000
73.09224 140.000
73.11219 129.000
73.13213 138.000
73.15208 145.000
73.17203 161.000
73.19197 162.000
73.21192 143.000
73.23187 105.000
73.25182 155.000
73.27176 157.000
73.29171 131.000
73.31166 185.000
73.33160 157.000
73.35155 140.000
73.37150 151.000
73.39144 152.000
73.41139 155.000
73.43134 152.000
73.45129 132.000
73.47123 147.000
73.49118 140.000
73.51113 136.000
73.53107 117.000
73.55102 107.000
73.57097 131.000
73.59091 125.000
73.61086 121.000
73.63081 131.000
73.65076 111.000
73.67070 110.000
73.69065 110.000
73.71060 114.000
73.73054 104.000
73.75049 108.000
73.77044 106.000
73.79038 129.000
73.81033 118.000
73.83028 113.000
73.85022 104.000
73.87017 116.000
73.89012 134.000
73.91007 112.000
73.93001 121.000
73.94996 133.000
73.96991 121.000
73.98985 127.000
74.00980 126.000
74.02975 126.000
74.04969 146.000
74.06964 159.000
74.08959 129.000
74.10954 150.000
74.12948 147.000
74.14943 169.000
74.16938 150.000
74.18932 153.000
74.20927 163.000
74.22922 149.000
74.24916 154.000
74.26911 156.000
74.28906 138.000
74.30900 169.000
74.32895 161.000
74.34890 143.000
74.36885 156.000
74.38879 153.000
74.40874 162.000
74.42869 162.000
74.44863 150.000
74.46858 157.000
74.48853 138.000
74.50847 144.000
74.52842 147.000
74.54837 152.000
74.56832 131.000
74.58826 148.000
74.60821 133.000
74.62816 112.000
74.64810 116.000
74.66805 105.000
74.68800 113.000
74.70794 127.000
74.72789 129.000
74.74784 121.000
74.76778 112.000
74.78773 114.000
74.80768 105.000
74.82763 114.000
74.84757 93.000
74.86752 127.000
74.88747 93.000
74.90741 114.000
74.92736 114.000
74.94731 129.000
74.96725 111.000
74.98720 124.000
75.00715 146.000
75.02710 131.000
75.04704 117.000
75.06699 138.000
75.08694 114.000
75.10688 137.000
75.12683 132.000
75.14678 141.000
75.16672 134.000
75.18667 121.000
75.20662 151.000
75.22657 150.000
75.24651 142.000
75.26646 119.000
75.28641 162.000
75.30635 137.000
75.32630 151.000
75.34625 149.000
75.36619 152.000
75.38614 138.000
75.40609 133.000
75.42603 146.000
75.44598 127.000
75.46593 142.000
75.48588 165.000
75.50582 125.000
75.52577 139.000
75.54572 116.000
75.56566 155.000
75.58561 132.000
75.60556 131.000
75.62550 118.000
75.64545 115.000
75.66540 125.000
75.68535 124.000
75.70529 123.000
75.72524 122.000
75.74519 118.000
75.76513 117.000
75.78508 96.000
75.80503 100.000
75.82497 115.000
75.84492 103.000
75.86487 126.000
75.88481 115.000
75.90476 111.000
75.92471 103.000
75.94466 107.000
75.96460 105.000
75.98455 118.000
76.00450 99.000
76.02444 87.000
76.04439 99.000
76.06434 114.000
76.08428 108.000
76.10423 88.000
76.12418 91.000
76.14413 90.000
76.16407 101.000
76.18402 82.000
76.20397 77.000
76.22391 106.000
76.24386 97.000
76.26381 114.000
76.28375 99.000
76.30370 87.000
76.32365 98.000
76.34359 90.000
76.36354 108.000
76.38349 95.000
76.40344 108.000
76.42338 98.000
76.44333 89.000
76.46328 100.000
76.48322 102.000
76.50317 96.000
76.52312 86.000
76.54306 92.000
76.56301 101.000
76.58296 89.000
76.60291 101.000
76.62285 115.000
76.64280 101.000
76.66275 92.000
76.68269 91.000
76.70264 104.000
76.72259 97.000
76.74253 98.000
76.76248 96.000
76.78243 109.000
76.80238 107.000
76.82232 95.000
76.84227 100.000
76.86222 95.000
76.88216 107.000
76.90211 91.000
76.92206 99.000
76.94200 105.000
76.96195 99.000
76.98190 87.000
77.00184 90.000
77.02179 91.000
77.04174 96.000
77.06169 112.000
77.08163 106.000
77.10158 103.000
77.12153 109.000
77.14147 110.000
77.16142 103.000
77.18137 86.000
77.20131 114.000
77.22126 107.000
77.24121 116.000
77.26116 97.000
77.28110 108.000
77.30105 92.000
77.32100 118.000
77.34094 103.000
77.36089 133.000
77.38084 145.000
77.40078 131.000
77.42073 128.000
77.44068 136.000
77.46062 141.000
77.48057 156.000
77.50052 157.000
77.52047 170.000
77.54041 149.000
77.56036 180.000
77.58031 204.000
77.60025 220.000
77.62020 224.000
77.64015 209.000
77.66009 218.000
77.68004 200.000
77.69999 201.000
77.71994 213.000
77.73988 218.000
77.75983 190.000
77.77978 207.000
77.79972 207.000
77.81967 197.000
77.83962 202.000
77.85956 176.000
77.87951 205.000
77.89946 178.000
77.91940 224.000
77.93935 191.000
77.95930 178.000
77.97925 187.000
77.99919 185.000
78.01914 198.000
78.03909 160.000
78.05903 149.000
78.07898 145.000
78.09893 138.000
78.11887 123.000
78.13882 129.000
78.15877 139.000
78.17872 117.000
78.19866 132.000
78.21861 110.000
78.23856 123.000
78.25850 120.000
78.27845 123.000
78.29840 121.000
78.31834 120.000
78.33829 109.000
78.35824 105.000
78.37819 93.000
78.39813 103.000
78.41808 112.000
78.43803 103.000
78.45797 122.000
78.47792 112.000
78.49787 99.000
78.51781 108.000
78.53776 101.000
78.55771 94.000
78.57765 96.000
78.59760 108.000
78.61755 96.000
78.63750 81.000
78.65744 116.000
78.67739 100.000
78.69734 108.000
78.71728 77.000
78.73723 131.000
78.75718 101.000
78.77712 108.000
78.79707 116.000
78.81702 97.000
78.83697 113.000
78.85691 90.000
78.87686 115.000
78.89681 125.000
78.91675 124.000
78.93670 94.000
78.95665 106.000
78.97659 124.000
78.99654 100.000
79.01649 102.000
79.03643 118.000
79.05638 104.000
79.07633 123.000
79.09628 111.000
79.11622 121.000
79.13617 115.000
79.15612 115.000
79.17606 124.000
79.19601 114.000
79.21596 110.000
79.23590 103.000
79.25585 108.000
79.27580 112.000
79.29575 117.000
79.31569 105.000
79.33564 96.000
79.35559 104.000
79.37553 100.000
79.39548 109.000
79.41543 99.000
79.43537 101.000
79.45532 110.000
79.47527 139.000
79.49521 88.000
79.51516 121.000
79.53511 93.000
79.55506 97.000
79.57500 105.000
79.59495 102.000
79.61490 108.000
79.63484 97.000
79.65479 95.000
79.67474 110.000
79.69468 91.000
79.71463 114.000
79.73458 103.000
79.75453 109.000
79.77447 97.000
79.79442 80.000
79.81437 91.000
79.83431 98.000
79.85426 108.000
79.87421 105.000
79.89415 84.000
79.91410 100.000
79.93405 103.000
79.95399 104.000
79.97394 91.000
79.99389 99.000
80.01384 104.000
80.03378 87.000
80.05373 86.000
80.07368 104.000
80.09362 96.000
80.11357 86.000
80.13352 97.000
80.15346 114.000
80.17341 90.000
80.19336 102.000
80.21331 125.000
80.23325 97.000
80.25320 104.000
80.27315 106.000
80.29309 92.000
80.31304 100.000
80.33299 97.000
80.35293 95.000
80.37288 109.000
80.39283 109.000
80.41278 137.000
80.43272 92.000
80.45267 97.000
80.47262 91.000
80.49256 102.000
80.51251 92.000
80.53246 106.000
80.55240 93.000
80.57235 98.000
80.59230 110.000
80.61224 90.000
80.63219 85.000
80.65214 92.000
80.67209 97.000
80.69203 96.000
80.71198 103.000
80.73193 92.000
80.75187 104.000
80.77182 104.000
80.79177 86.000
80.81171 95.000
80.83166 112.000
80.85161 95.000
80.87156 113.000
80.89150 107.000
80.91145 90.000
80.93140 99.000
80.95134 94.000
80.97129 99.000
80.99124 87.000
81.01118 88.000
81.03113 98.000
81.05108 88.000
81.07102 96.000
81.09097 103.000
81.11092 77.000
81.13087 89.000
81.15081 90.000
81.17076 108.000
81.19071 97.000
81.21065 90.000
81.23060 92.000
81.25055 92.000
81.27049 94.000
81.29044 94.000
81.31039 70.000
81.33034 98.000
81.35028 90.000
81.37023 96.000
81.39018 95.000
81.41012 83.000
81.43007 89.000
81.45002 97.000
81.46996 98.000
81.48991 92.000
81.50986 74.000
81.52980 93.000
81.54975 76.000
81.56970 86.000
81.58965 81.000
81.60959 104.000
81.62954 108.000
81.64949 78.000
81.66943 104.000
81.68938 96.000
81.70933 87.000
81.72927 105.000
81.74922 96.000
81.76917 98.000
81.78912 85.000
81.80906 92.000
81.82901 89.000
81.84896 92.000
81.86890 87.000
81.88885 83.000
81.90880 107.000
81.92874 88.000
81.94869 101.000
81.96864 88.000
81.98859 90.000
82.00853 107.000
82.02848 97.000
82.04843 92.000
82.06837 98.000
82.08832 90.000
82.10827 93.000
82.12821 90.000
82.14816 106.000
82.16811 97.000
82.18805 90.000
82.20800 96.000
82.22795 96.000
82.24790 113.000
82.26784 107.000
82.28779 105.000
82.30774 105.000
82.32768 100.000
82.34763 94.000
82.36758 103.000
82.38752 107.000
82.40747 112.000
82.42742 112.000
82.44737 110.000
82.46731 89.000
82.48726 97.000
82.50721 91.000
82.52715 113.000
82.54710 91.000
82.56705 79.000
82.58699 97.000
82.60694 77.000
82.62689 105.000
82.64683 95.000
82.66678 80.000
82.68673 88.000
82.70668 89.000
82.72662 102.000
82.74657 99.000
82.76652 92.000
82.78646 85.000
82.80641 95.000
82.82636 70.000
82.84630 89.000
82.86625 98.000
82.88620 95.000
82.90615 78.000
82.92609 100.000
82.94604 92.000
82.96599 103.000
82.98593 109.000
83.00588 113.000
83.02583 92.000
83.04577 93.000
83.06572 95.000
83.08567 94.000
83.10561 98.000
83.12556 95.000
83.14551 84.000
83.16546 80.000
83.18540 117.000
83.20535 93.000
83.22530 92.000
83.24524 99.000
83.26519 78.000
83.28514 85.000
83.30508 107.000
83.32503 97.000
83.34498 105.000
83.36493 96.000
83.38487 86.000
83.40482 103.000
83.42477 97.000
83.44471 101.000
83.46466 115.000
83.48461 102.000
83.50455 98.000
83.52450 111.000
83.54445 102.000
83.56440 117.000
83.58434 108.000
83.60429 106.000
83.62424 111.000
83.64418 103.000
83.66413 82.000
83.68408 99.000
83.70402 112.000
83.72397 104.000
83.74392 93.000
83.76386 91.000
83.78381 113.000
83.80376 114.000
83.82371 117.000
83.84365 127.000
83.86360 118.000
83.88355 120.000
83.90349 122.000
83.92344 109.000
83.94339 140.000
83.96333 124.000
83.98328 129.000
84.00323 133.000
84.02318 157.000
84.04312 133.000
84.06307 124.000
84.08302 160.000
84.10296 149.000
84.12291 134.000
84.14286 165.000
84.16280 161.000
84.18275 182.000
84.20270 150.000
84.22264 162.000
84.24259 147.000
84.26254 159.000
84.28249 146.000
84.30243 165.000
84.32238 141.000
84.34233 142.000
84.36227 163.000
84.38222 118.000
84.40217 158.000
84.42211 151.000
84.44206 150.000
84.46201 131.000
84.48196 135.000
84.50190 148.000
84.52185 142.000
84.54180 147.000
84.56174 124.000
84.58169 115.000
84.60164 159.000
84.62158 133.000
84.64153 135.000
84.66148 137.000
84.68142 106.000
84.70137 114.000
84.72132 100.000
84.74127 87.000
84.76121 119.000
84.78116 105.000
84.80111 99.000
84.82105 108.000
84.84100 114.000
84.86095 89.000
84.88089 105.000
84.90084 100.000
84.92079 98.000
84.94074 89.000
84.96068 79.000
84.98063 85.000
85.00058 108.000
85.02052 115.000
85.04047 101.000
85.06042 99.000
85.08036 77.000
85.10031 87.000
85.12026 105.000
85.14021 94.000
85.16015 86.000
85.18010 104.000
85.20005 80.000
85.21999 88.000
85.23994 102.000
85.25989 96.000
85.27983 86.000
85.29978 107.000
85.31973 95.000
85.33967 95.000
85.35962 105.000
85.37957 69.000
85.39952 93.000
85.41946 82.000
85.43941 97.000
85.45936 93.000
85.47930 77.000
85.49925 88.000
85.51920 89.000
85.53914 112.000
85.55909 102.000
85.57904 81.000
85.59899 82.000
85.61893 71.000
85.63888 89.000
85.65883 73.000
85.67877 95.000
85.69872 96.000
85.71867 90.000
85.73861 93.000
85.75856 101.000
85.77851 84.000
85.79845 99.000
85.81840 108.000
85.83835 107.000
85.85830 104.000
85.87824 98.000
85.89819 89.000
85.91814 94.000
85.93808 94.000
85.95803 99.000
85.97798 95.000
85.99792 111.000
86.01787 110.000
86.03782 107.000
86.05777 108.000
86.07771 107.000
86.09766 112.000
86.11761 86.000
86.13755 96.000
86.15750 83.000
86.17745 89.000
86.19739 79.000
86.21734 85.000
86.23729 97.000
86.25723 93.000
86.27718 103.000
86.29713 105.000
86.31708 98.000
86.33702 117.000
86.35697 98.000
86.37692 101.000
86.39686 114.000
86.41681 110.000
86.43676 125.000
86.45670 96.000
86.47665 100.000
86.49660 114.000
86.51655 104.000
86.53649 102.000
86.55644 106.000
86.57639 112.000
86.59633 115.000
86.61628 115.000
86.63623 108.000
86.65617 108.000
86.67612 105.000
86.69607 132.000
86.71602 119.000
86.73596 114.000
86.75591 103.000
86.77586 123.000
86.79580 114.000
86.81575 112.000
86.83570 108.000
86.85564 116.000
86.87559 104.000
86.89554 108.000
86.91548 110.000
86.93543 107.000
86.95538 145.000
86.97533 121.000
86.99527 132.000
87.01522 121.000
87.03517 107.000
87.05511 136.000
87.07506 122.000
87.09501 122.000
87.11495 133.000
87.13490 109.000
87.15485 127.000
87.17480 131.000
87.19474 122.000
87.21469 118.000
87.23464 113.000
87.25458 110.000
87.27453 105.000
87.29448 108.000
87.31442 122.000
87.33437 112.000
87.35432 115.000
87.37426 119.000
87.39421 136.000
87.41416 123.000
87.43411 109.000
87.45405 88.000
87.47400 121.000
87.49395 117.000
87.51389 102.000
87.53384 102.000
87.55379 101.000
87.57373 111.000
87.59368 101.000
87.61363 91.000
87.63358 109.000
87.65352 105.000
87.67347 105.000
87.69342 107.000
87.71336 96.000
87.73331 89.000
87.75326 108.000
87.77320 90.000
87.79315 96.000
87.81310 93.000
87.83304 102.000
87.85299 95.000
87.87294 90.000
87.89289 93.000
87.91283 90.000
87.93278 88.000
87.95273 97.000
87.97267 99.000
87.99262 85.000
88.01257 81.000
88.03251 90.000
88.05246 97.000
88.07241 84.000
88.09236 107.000
88.11230 112.000
88.13225 98.000
88.15220 106.000
88.17214 78.000
88.19209 82.000
88.21204 97.000
88.23198 94.000
88.25193 116.000
88.27188 100.000
88.29183 69.000
88.31177 88.000
88.33172 98.000
88.35167 96.000
88.37161 85.000
88.39156 104.000
88.41151 102.000
88.43145 92.000
88.45140 80.000
88.47135 89.000
88.49129 84.000
88.51124 104.000
88.53119 84.000
88.55114 107.000
88.57108 83.000
88.59103 95.000
88.61098 91.000
88.63092 93.000
88.65087 99.000
88.67082 86.000
88.69076 107.000
88.71071 103.000
88.73066 99.000
88.75061 92.000
88.77055 109.000
88.79050 88.000
88.81045 78.000
88.83039 81.000
88.85034 71.000
88.87029 100.000
88.89023 96.000
88.91018 101.000
88.93013 84.000
88.95007 90.000
88.97002 100.000
88.98997 86.000
89.00992 82.000
89.02986 88.000
89.04981 99.000
89.06976 104.000
89.08970 97.000
89.10965 85.000
89.12960 88.000
89.14954 97.000
89.16949 124.000
89.18944 95.000
89.20939 87.000
89.22933 93.000
89.24928 93.000
89.26923 110.000
89.28917 103.000
89.30912 101.000
89.32907 89.000
89.34901 109.000
89.36896 89.000
89.38891 117.000
89.40885 113.000
89.42880 94.000
89.44875 115.000
89.46870 98.000
89.48864 101.000
89.50859 116.000
89.52854 121.000
89.54848 108.000
89.56843 125.000
89.58838 116.000
89.60832 125.000
89.62827 134.000
89.64822 151.000
89.66817 138.000
89.68811 159.000
89.70806 140.000
89.72801 152.000
89.74795 137.000
89.76790 153.000
89.78785 160.000
89.80779 158.000
89.82774 167.000
89.84769 138.000
89.86764 140.000
89.88758 178.000
89.90753 171.000
89.92748 193.000
89.94742 162.000
89.96737 166.000
89.98732 146.000
90.00726 147.000
