10.00000 313.000
10.01995 295.000
10.03989 352.000
10.05984 331.000
10.07979 354.000
10.09973 354.000
10.11968 370.000
10.13963 354.000
10.15958 343.000
10.17952 339.000
10.19947 359.000
10.21942 370.000
10.23936 404.000
10.25931 332.000
10.27926 361.000
10.29920 325.000
10.31915 372.000
10.33910 333.000
10.35905 374.000
10.37899 363.000
10.39894 347.000
10.41889 367.000
10.43883 377.000
10.45878 324.000
10.47873 346.000
10.49867 362.000
10.51862 347.000
10.53857 371.000
10.55851 318.000
10.57846 311.000
10.59841 358.000
10.61836 344.000
10.63830 350.000
10.65825 364.000
10.67820 349.000
10.69814 321.000
10.71809 349.000
10.73804 332.000
10.75798 363.000
10.77793 368.000
10.79788 353.000
10.81783 344.000
10.83777 404.000
10.85772 363.000
10.87767 357.000
10.89761 341.000
10.91756 394.000
10.93751 360.000
10.95745 363.000
10.97740 388.000
10.99735 354.000
11.01730 340.000
11.03724 336.000
11.05719 362.000
11.07714 363.000
11.09708 366.000
11.11703 333.000
11.13698 396.000
11.15692 348.000
11.17687 354.000
11.19682 361.000
11.21676 341.000
11.23671 359.000
11.25666 353.000
11.27661 393.000
11.29655 347.000
11.31650 361.000
11.33645 405.000
11.35639 376.000
11.37634 369.000
11.39629 349.000
11.41623 398.000
11.43618 343.000
11.45613 387.000
11.47608 362.000
11.49602 414.000
11.51597 378.000
11.53592 391.000
11.55586 358.000
11.57581 330.000
11.59576 402.000
11.61570 345.000
11.63565 372.000
11.65560 377.000
11.67554 372.000
11.69549 398.000
11.71544 396.000
11.73539 366.000
11.75533 352.000
11.77528 372.000
11.79523 367.000
11.81517 355.000
11.83512 382.000
11.85507 384.000
11.87501 380.000
11.89496 371.000
11.91491 372.000
11.93486 420.000
11.95480 347.000
11.97475 405.000
11.99470 349.000
12.01464 390.000
12.03459 341.000
12.05454 400.000
12.07448 371.000
12.09443 341.000
12.11438 380.000
12.13432 355.000
12.15427 319.000
12.17422 366.000
12.19417 365.000
12.21411 358.000
12.23406 359.000
12.25401 395.000
12.27395 374.000
12.29390 358.000
12.31385 369.000
12.33379 409.000
12.35374 355.000
12.37369 374.000
12.39364 346.000
12.41358 381.000
12.43353 371.000
12.45348 369.000
12.47342 392.000
12.49337 391.000
12.51332 406.000
12.53326 397.000
12.55321 370.000
12.57316 392.000
12.59311 384.000
12.61305 382.000
12.63300 370.000
12.65295 375.000
12.67289 364.000
12.69284 389.000
12.71279 378.000
12.73273 373.000
12.75268 392.000
12.77263 381.000
12.79257 371.000
12.81252 375.000
12.83247 382.000
12.85242 375.000
12.87236 387.000
12.89231 402.000
12.91226 355.000
12.93220 375.000
12.95215 394.000
12.97210 371.000
12.99204 353.000
13.01199 394.000
13.03194 351.000
13.05189 361.000
13.07183 381.000
13.09178 348.000
13.11173 373.000
13.13167 383.000
13.15162 372.000
13.17157 361.000
13.19151 385.000
13.21146 377.000
13.23141 371.000
13.25135 360.000
13.27130 373.000
13.29125 385.000
13.31120 396.000
13.33114 343.000
13.35109 369.000
13.37104 352.000
13.39098 391.000
13.41093 391.000
13.43088 422.000
13.45082 398.000
13.47077 382.000
13.49072 382.000
13.51067 381.000
13.53061 337.000
13.55056 395.000
13.57051 372.000
13.59045 385.000
13.61040 365.000
13.63035 379.000
13.65029 369.000
13.67024 359.000
13.69019 351.000
13.71013 347.000
13.73008 366.000
13.75003 362.000
13.76998 371.000
13.78992 354.000
13.80987 370.000
13.82982 395.000
13.84976 359.000
13.86971 415.000
13.88966 391.000
13.90960 373.000
13.92955 374.000
13.94950 382.000
13.96945 375.000
13.98939 352.000
14.00934 398.000
14.02929 385.000
14.04923 375.000
14.06918 367.000
14.08913 375.000
14.10907 375.000
14.12902 387.000
14.14897 392.000
14.16892 391.000
14.18886 401.000
14.20881 393.000
14.22876 378.000
14.24870 387.000
14.26865 370.000
14.28860 402.000
14.30854 381.000
14.32849 389.000
14.34844 360.000
14.36838 372.000
14.38833 390.000
14.40828 404.000
14.42823 391.000
14.44817 390.000
14.46812 355.000
14.48807 377.000
14.50801 381.000
14.52796 374.000
14.54791 353.000
14.56785 371.000
14.58780 367.000
14.60775 392.000
14.62770 400.000
14.64764 388.000
14.66759 370.000
14.68754 395.000
14.70748 418.000
14.72743 393.000
14.74738 383.000
14.76732 409.000
14.78727 393.000
14.80722 374.000
14.82716 387.000
14.84711 355.000
14.86706 392.000
14.88701 376.000
14.90695 352.000
14.92690 397.000
14.94685 385.000
14.96679 376.000
14.98674 397.000
15.00669 386.000
15.02663 356.000
15.04658 402.000
15.06653 411.000
15.08648 380.000
15.10642 385.000
15.12637 358.000
15.14632 378.000
15.16626 372.000
15.18621 434.000
15.20616 402.000
15.22610 364.000
15.24605 413.000
15.26600 351.000
15.28594 424.000
15.30589 381.000
15.32584 390.000
15.34579 376.000
15.36573 412.000
15.38568 392.000
15.40563 378.000
15.42557 410.000
15.44552 405.000
15.46547 363.000
15.48541 386.000
15.50536 389.000
15.52531 396.000
15.54526 400.000
15.56520 417.000
15.58515 422.000
15.60510 453.000
15.62504 466.000
15.64499 507.000
15.66494 519.000
15.68488 540.000
15.70483 608.000
15.72478 767.000
15.74472 810.000
15.76467 1005.000
15.78462 1154.000
15.80457 1296.000
15.82451 1362.000
15.84446 1265.000
15.86441 1254.000
15.88435 1024.000
15.90430 971.000
15.92425 710.000
15.94419 589.000
15.96414 468.000
15.98409 462.000
16.00404 434.000
16.02398 386.000
16.04393 398.000
16.06388 380.000
16.08382 387.000
16.10377 398.000
16.12372 377.000
16.14366 374.000
16.16361 407.000
16.18356 391.000
16.20351 427.000
16.22345 418.000
16.24340 409.000
16.26335 402.000
16.28329 394.000
16.30324 426.000
16.32319 411.000
16.34313 412.000
16.36308 409.000
16.38303 365.000
16.40297 348.000
16.42292 403.000
16.44287 398.000
16.46282 393.000
16.48276 379.000
16.50271 373.000
16.52266 394.000
16.54260 386.000
16.56255 402.000
16.58250 397.000
16.60244 374.000
16.62239 391.000
16.64234 409.000
16.66229 374.000
16.68223 369.000
16.70218 413.000
16.72213 380.000
16.74207 428.000
16.76202 380.000
16.78197 416.000
16.80191 385.000
16.82186 399.000
16.84181 408.000
16.86175 373.000
16.88170 380.000
16.90165 352.000
16.92160 405.000
16.94154 381.000
16.96149 372.000
16.98144 405.000
17.00138 363.000
17.02133 410.000
17.04128 372.000
17.06122 367.000
17.08117 395.000
17.10112 372.000
17.12107 417.000
17.14101 386.000
17.16096 389.000
17.18091 391.000
17.20085 416.000
17.22080 377.000
17.24075 403.000
17.26069 422.000
17.28064 391.000
17.30059 382.000
17.32053 406.000
17.34048 385.000
17.36043 438.000
17.38038 415.000
17.40032 433.000
17.42027 397.000
17.44022 397.000
17.46016 348.000
17.48011 378.000
17.50006 381.000
17.52000 381.000
17.53995 395.000
17.55990 388.000
17.57985 391.000
17.59979 406.000
17.61974 373.000
17.63969 412.000
17.65963 415.000
17.67958 406.000
17.69953 417.000
17.71947 432.000
17.73942 395.000
17.75937 388.000
17.77932 361.000
17.79926 403.000
17.81921 418.000
17.83916 426.000
17.85910 402.000
17.87905 410.000
17.89900 451.000
17.91894 386.000
17.93889 385.000
17.95884 423.000
17.97878 430.000
17.99873 374.000
18.01868 377.000
18.03863 384.000
18.05857 393.000
18.07852 432.000
18.09847 395.000
18.11841 386.000
18.13836 382.000
18.15831 433.000
18.17825 404.000
18.19820 397.000
18.21815 372.000
18.23810 405.000
18.25804 476.000
18.27799 418.000
18.29794 445.000
18.31788 493.000
18.33783 500.000
18.35778 513.000
18.37772 538.000
18.39767 551.000
18.41762 530.000
18.43756 519.000
18.45751 496.000
18.47746 481.000
18.49741 447.000
18.51735 420.000
18.53730 408.000
18.55725 405.000
18.57719 380.000
18.59714 376.000
18.61709 374.000
18.63703 383.000
18.65698 419.000
18.67693 372.000
18.69688 418.000
18.71682 356.000
18.73677 391.000
18.75672 399.000
18.77666 347.000
18.79661 400.000
18.81656 436.000
18.83650 436.000
18.85645 412.000
18.87640 397.000
18.89634 430.000
18.91629 392.000
18.93624 410.000
18.95619 349.000
18.97613 387.000
18.99608 403.000
19.01603 391.000
19.03597 420.000
19.05592 384.000
19.07587 368.000
19.09581 397.000
19.11576 405.000
19.13571 418.000
19.15566 357.000
19.17560 417.000
19.19555 378.000
19.21550 411.000
19.23544 396.000
19.25539 416.000
19.27534 367.000
19.29528 409.000
19.31523 409.000
19.33518 392.000
19.35513 371.000
19.37507 410.000
19.39502 372.000
19.41497 380.000
19.43491 377.000
19.45486 461.000
19.47481 369.000
19.49475 385.000
19.51470 416.000
19.53465 368.000
19.55459 402.000
19.57454 447.000
19.59449 400.000
19.61444 416.000
19.63438 383.000
19.65433 406.000
19.67428 369.000
19.69422 400.000
19.71417 412.000
19.73412 388.000
19.75406 377.000
19.77401 368.000
19.79396 399.000
19.81391 397.000
19.83385 397.000
19.85380 385.000
19.87375 375.000
19.89369 433.000
19.91364 381.000
19.93359 397.000
19.95353 395.000
19.97348 371.000
19.99343 424.000
20.01337 415.000
20.03332 371.000
20.05327 411.000
20.07322 418.000
20.09316 412.000
20.11311 421.000
20.13306 421.000
20.15300 383.000
20.17295 407.000
20.19290 403.000
20.21284 402.000
20.23279 397.000
20.25274 399.000
20.27269 401.000
20.29263 389.000
20.31258 427.000
20.33253 402.000
20.35247 398.000
20.37242 422.000
20.39237 419.000
20.41231 412.000
20.43226 458.000
20.45221 393.000
20.47215 412.000
20.49210 393.000
20.51205 436.000
20.53200 429.000
20.55194 420.000
20.57189 411.000
20.59184 428.000
20.61178 390.000
20.63173 409.000
20.65168 413.000
20.67162 412.000
20.69157 407.000
20.71152 440.000
20.73147 381.000
20.75141 410.000
20.77136 459.000
20.79131 395.000
20.81125 417.000
20.83120 434.000
20.85115 395.000
20.87109 405.000
20.89104 430.000
20.91099 440.000
20.93094 467.000
20.95088 492.000
20.97083 531.000
20.99078 527.000
21.01072 551.000
21.03067 545.000
21.05062 561.000
21.07056 585.000
21.09051 564.000
21.11046 561.000
21.13040 477.000
21.15035 506.000
21.17030 496.000
21.19025 479.000
21.21019 457.000
21.23014 444.000
21.25009 416.000
21.27003 426.000
21.28998 398.000
21.30993 408.000
21.32987 435.000
21.34982 412.000
21.36977 408.000
21.38972 413.000
21.40966 421.000
21.42961 446.000
21.44956 430.000
21.46950 408.000
21.48945 391.000
21.50940 408.000
21.52934 411.000
21.54929 412.000
21.56924 441.000
21.58918 394.000
21.60913 398.000
21.62908 429.000
21.64903 401.000
21.66897 430.000
21.68892 431.000
21.70887 388.000
21.72881 418.000
21.74876 441.000
21.76871 411.000
21.78865 415.000
21.80860 433.000
21.82855 395.000
21.84850 437.000
21.86844 401.000
21.88839 427.000
21.90834 406.000
21.92828 403.000
21.94823 419.000
21.96818 379.000
21.98812 409.000
22.00807 392.000
22.02802 407.000
22.04796 413.000
22.06791 420.000
22.08786 392.000
22.10781 417.000
22.12775 429.000
22.14770 410.000
22.16765 390.000
22.18759 414.000
22.20754 411.000
22.22749 387.000
22.24743 402.000
22.26738 438.000
22.28733 417.000
22.30728 389.000
22.32722 405.000
22.34717 372.000
22.36712 413.000
22.38706 373.000
22.40701 389.000
22.42696 407.000
22.44690 416.000
22.46685 379.000
22.48680 399.000
22.50675 386.000
22.52669 416.000
22.54664 418.000
22.56659 430.000
22.58653 408.000
22.60648 420.000
22.62643 440.000
22.64637 392.000
22.66632 418.000
22.68627 454.000
22.70621 390.000
22.72616 427.000
22.74611 431.000
22.76606 434.000
22.78600 453.000
22.80595 396.000
22.82590 409.000
22.84584 467.000
22.86579 419.000
22.88574 444.000
22.90568 421.000
22.92563 421.000
22.94558 395.000
22.96553 430.000
22.98547 410.000
23.00542 414.000
23.02537 385.000
23.04531 413.000
23.06526 424.000
23.08521 393.000
23.10515 390.000
23.12510 441.000
23.14505 365.000
23.16499 422.000
23.18494 411.000
23.20489 442.000
23.22484 398.000
23.24478 410.000
23.26473 443.000
23.28468 395.000
23.30462 401.000
23.32457 418.000
23.34452 435.000
23.36446 413.000
23.38441 439.000
23.40436 425.000
23.42431 397.000
23.44425 431.000
23.46420 388.000
23.48415 443.000
23.50409 446.000
23.52404 424.000
23.54399 400.000
23.56393 447.000
23.58388 399.000
23.60383 395.000
23.62377 387.000
23.64372 416.000
23.66367 385.000
23.68362 401.000
23.70356 421.000
23.72351 410.000
23.74346 379.000
23.76340 366.000
23.78335 429.000
23.80330 403.000
23.82324 422.000
23.84319 384.000
23.86314 417.000
23.88309 421.000
23.90303 406.000
23.92298 416.000
23.94293 398.000
23.96287 431.000
23.98282 422.000
24.00277 436.000
24.02271 410.000
24.04266 419.000
24.06261 460.000
24.08256 389.000
24.10250 426.000
24.12245 435.000
24.14240 418.000
24.16234 429.000
24.18229 417.000
24.20224 441.000
24.22218 430.000
24.24213 404.000
24.26208 412.000
24.28202 408.000
24.30197 397.000
24.32192 418.000
24.34187 408.000
24.36181 378.000
24.38176 442.000
24.40171 407.000
24.42165 414.000
24.44160 428.000
24.46155 476.000
24.48149 396.000
24.50144 409.000
24.52139 430.000
24.54134 400.000
24.56128 408.000
24.58123 429.000
24.60118 430.000
24.62112 417.000
24.64107 425.000
24.66102 437.000
24.68096 400.000
24.70091 455.000
24.72086 414.000
24.74080 422.000
24.76075 418.000
24.78070 441.000
24.80065 436.000
24.82059 432.000
24.84054 407.000
24.86049 444.000
24.88043 427.000
24.90038 459.000
24.92033 459.000
24.94027 404.000
24.96022 402.000
24.98017 424.000
25.00012 438.000
25.02006 436.000
25.04001 405.000
25.05996 402.000
25.07990 456.000
25.09985 459.000
25.11980 411.000
25.13974 395.000
25.15969 420.000
25.17964 415.000
25.19958 401.000
25.21953 430.000
25.23948 464.000
25.25943 405.000
25.27937 390.000
25.29932 433.000
25.31927 415.000
25.33921 454.000
25.35916 440.000
25.37911 433.000
25.39905 387.000
25.41900 393.000
25.43895 431.000
25.45890 406.000
25.47884 403.000
25.49879 382.000
25.51874 420.000
25.53868 422.000
25.55863 418.000
25.57858 442.000
25.59852 429.000
25.61847 447.000
25.63842 412.000
25.65837 433.000
25.67831 448.000
25.69826 398.000
25.71821 427.000
25.73815 411.000
25.75810 436.000
25.77805 428.000
25.79799 406.000
25.81794 420.000
25.83789 463.000
25.85783 436.000
25.87778 410.000
25.89773 427.000
25.91768 405.000
25.93762 360.000
25.95757 472.000
25.97752 455.000
25.99746 453.000
26.01741 431.000
26.03736 455.000
26.05730 430.000
26.07725 442.000
26.09720 427.000
26.11715 396.000
26.13709 441.000
26.15704 430.000
26.17699 457.000
26.19693 437.000
26.21688 412.000
26.23683 461.000
26.25677 426.000
26.27672 434.000
26.29667 423.000
26.31661 426.000
26.33656 428.000
26.35651 421.000
26.37646 440.000
26.39640 391.000
26.41635 422.000
26.43630 424.000
26.45624 438.000
26.47619 430.000
26.49614 409.000
26.51608 417.000
26.53603 433.000
26.55598 460.000
26.57593 411.000
26.59587 448.000
26.61582 457.000
26.63577 450.000
26.65571 458.000
26.67566 420.000
26.69561 393.000
26.71555 416.000
26.73550 459.000
26.75545 412.000
26.77539 423.000
26.79534 417.000
26.81529 418.000
26.83524 460.000
26.85518 457.000
26.87513 396.000
26.89508 392.000
26.91502 459.000
26.93497 457.000
26.95492 399.000
26.97486 435.000
26.99481 450.000
27.01476 432.000
27.03471 417.000
27.05465 404.000
27.07460 447.000
27.09455 440.000
27.11449 403.000
27.13444 441.000
27.15439 440.000
27.17433 445.000
27.19428 416.000
27.21423 437.000
27.23417 460.000
27.25412 429.000
27.27407 464.000
27.29402 397.000
27.31396 439.000
27.33391 397.000
27.35386 426.000
27.37380 478.000
27.39375 413.000
27.41370 462.000
27.43364 432.000
27.45359 441.000
27.47354 426.000
27.49349 420.000
27.51343 433.000
27.53338 395.000
27.55333 464.000
27.57327 422.000
27.59322 430.000
27.61317 424.000
27.63311 429.000
27.65306 441.000
27.67301 456.000
27.69296 469.000
27.71290 454.000
27.73285 441.000
27.75280 441.000
27.77274 424.000
27.79269 400.000
27.81264 476.000
27.83258 466.000
27.85253 485.000
27.87248 484.000
27.89242 459.000
27.91237 413.000
27.93232 422.000
27.95227 455.000
27.97221 470.000
27.99216 437.000
28.01211 470.000
28.03205 439.000
28.05200 423.000
28.07195 462.000
28.09189 445.000
28.11184 440.000
28.13179 429.000
28.15174 457.000
28.17168 426.000
28.19163 446.000
28.21158 422.000
28.23152 422.000
28.25147 400.000
28.27142 428.000
28.29136 427.000
28.31131 470.000
28.33126 452.000
28.35120 411.000
28.37115 476.000
28.39110 444.000
28.41105 429.000
28.43099 426.000
28.45094 456.000
28.47089 468.000
28.49083 461.000
28.51078 444.000
28.53073 471.000
28.55067 469.000
28.57062 421.000
28.59057 473.000
28.61052 452.000
28.63046 417.000
28.65041 486.000
28.67036 426.000
28.69030 429.000
28.71025 447.000
28.73020 406.000
28.75014 418.000
28.77009 453.000
28.79004 477.000
28.80998 458.000
28.82993 435.000
28.84988 431.000
28.86983 478.000
28.88977 444.000
28.90972 447.000
28.92967 457.000
28.94961 434.000
28.96956 450.000
28.98951 384.000
29.00945 465.000
29.02940 435.000
29.04935 461.000
29.06930 442.000
29.08924 464.000
29.10919 470.000
29.12914 412.000
29.14908 414.000
29.16903 434.000
29.18898 463.000
29.20892 456.000
29.22887 448.000
29.24882 412.000
29.26877 410.000
29.28871 455.000
29.30866 460.000
29.32861 449.000
29.34855 451.000
29.36850 445.000
29.38845 446.000
29.40839 406.000
29.42834 460.000
29.44829 439.000
29.46823 466.000
29.48818 458.000
29.50813 457.000
29.52808 414.000
29.54802 439.000
29.56797 446.000
29.58792 466.000
29.60786 439.000
29.62781 445.000
29.64776 445.000
29.66770 479.000
29.68765 429.000
29.70760 512.000
29.72755 475.000
29.74749 452.000
29.76744 470.000
29.78739 485.000
29.80733 443.000
29.82728 455.000
29.84723 456.000
29.86717 428.000
29.88712 436.000
29.90707 464.000
29.92701 444.000
29.94696 454.000
29.96691 468.000
29.98686 448.000
30.00680 453.000
30.02675 470.000
30.04670 445.000
30.06664 449.000
30.08659 459.000
30.10654 489.000
30.12648 533.000
30.14643 524.000
30.16638 636.000
30.18633 697.000
30.20627 712.000
30.22622 725.000
30.24617 788.000
30.26611 732.000
30.28606 783.000
30.30601 741.000
30.32595 658.000
30.34590 623.000
30.36585 543.000
30.38579 568.000
30.40574 502.000
30.42569 454.000
30.44564 484.000
30.46558 473.000
30.48553 434.000
30.50548 450.000
30.52542 465.000
30.54537 439.000
30.56532 495.000
30.58526 417.000
30.60521 472.000
30.62516 460.000
30.64511 418.000
30.66505 448.000
30.68500 451.000
30.70495 428.000
30.72489 505.000
30.74484 420.000
30.76479 468.000
30.78473 440.000
30.80468 437.000
30.82463 442.000
30.84458 462.000
30.86452 458.000
30.88447 453.000
30.90442 448.000
30.92436 416.000
30.94431 448.000
30.96426 478.000
30.98420 485.000
31.00415 464.000
31.02410 488.000
31.04404 433.000
31.06399 442.000
31.08394 443.000
31.10389 464.000
31.12383 481.000
31.14378 456.000
31.16373 451.000
31.18367 460.000
31.20362 439.000
31.22357 444.000
31.24351 455.000
31.26346 467.000
31.28341 488.000
31.30336 482.000
31.32330 457.000
31.34325 448.000
31.36320 418.000
31.38314 437.000
31.40309 454.000
31.42304 478.000
31.44298 467.000
31.46293 452.000
31.48288 454.000
31.50282 442.000
31.52277 413.000
31.54272 464.000
31.56267 449.000
31.58261 444.000
31.60256 451.000
31.62251 443.000
31.64245 458.000
31.66240 427.000
31.68235 464.000
31.70229 461.000
31.72224 420.000
31.74219 429.000
31.76214 463.000
31.78208 482.000
31.80203 494.000
31.82198 485.000
31.84192 434.000
31.86187 495.000
31.88182 556.000
31.90176 475.000
31.92171 502.000
31.94166 570.000
31.96160 550.000
31.98155 544.000
32.00150 543.000
32.02145 545.000
32.04139 535.000
32.06134 575.000
32.08129 545.000
32.10123 508.000
32.12118 516.000
32.14113 524.000
32.16107 525.000
32.18102 455.000
32.20097 491.000
32.22092 483.000
32.24086 479.000
32.26081 521.000
32.28076 469.000
32.30070 518.000
32.32065 506.000
32.34060 594.000
32.36054 568.000
32.38049 613.000
32.40044 615.000
32.42039 643.000
32.44033 734.000
32.46028 728.000
32.48023 767.000
32.50017 782.000
32.52012 762.000
32.54007 731.000
32.56001 708.000
32.57996 599.000
32.59991 656.000
32.61985 605.000
32.63980 474.000
32.65975 517.000
32.67970 493.000
32.69964 462.000
32.71959 489.000
32.73954 477.000
32.75948 470.000
32.77943 485.000
32.79938 457.000
32.81932 460.000
32.83927 468.000
32.85922 448.000
32.87917 477.000
32.89911 497.000
32.91906 455.000
32.93901 458.000
32.95895 453.000
32.97890 457.000
32.99885 439.000
33.01879 496.000
33.03874 449.000
33.05869 451.000
33.07863 437.000
33.09858 479.000
33.11853 434.000
33.13848 482.000
33.15842 459.000
33.17837 459.000
33.19832 454.000
33.21826 425.000
33.23821 496.000
33.25816 423.000
33.27810 476.000
33.29805 472.000
33.31800 437.000
33.33795 460.000
33.35789 458.000
33.37784 424.000
33.39779 483.000
33.41773 450.000
33.43768 461.000
33.45763 436.000
33.47757 441.000
33.49752 446.000
33.51747 437.000
33.53741 427.000
33.55736 457.000
33.57731 461.000
33.59726 446.000
33.61720 486.000
33.63715 453.000
33.65710 503.000
33.67704 495.000
33.69699 421.000
33.71694 476.000
33.73688 488.000
33.75683 413.000
33.77678 484.000
33.79673 443.000
33.81667 462.000
33.83662 464.000
33.85657 438.000
33.87651 417.000
33.89646 473.000
33.91641 459.000
33.93635 446.000
33.95630 474.000
33.97625 451.000
33.99620 456.000
34.01614 462.000
34.03609 481.000
34.05604 463.000
34.07598 465.000
34.09593 492.000
34.11588 485.000
34.13582 494.000
34.15577 461.000
34.17572 512.000
34.19566 469.000
34.21561 451.000
34.23556 497.000
34.25551 457.000
34.27545 481.000
34.29540 440.000
34.31535 493.000
34.33529 508.000
34.35524 510.000
34.37519 458.000
34.39513 466.000
34.41508 522.000
34.43503 465.000
34.45498 512.000
34.47492 540.000
34.49487 521.000
34.51482 534.000
34.53476 514.000
34.55471 551.000
34.57466 595.000
34.59460 625.000
34.61455 582.000
34.63450 577.000
34.65444 555.000
34.67439 663.000
34.69434 654.000
34.71429 617.000
34.73423 610.000
34.75418 652.000
34.77413 585.000
34.79407 618.000
34.81402 587.000
34.83397 578.000
34.85391 563.000
34.87386 589.000
34.89381 577.000
34.91376 600.000
34.93370 602.000
34.95365 572.000
34.97360 580.000
34.99354 550.000
35.01349 534.000
35.03344 555.000
35.05338 598.000
35.07333 614.000
35.09328 543.000
35.11322 588.000
35.13317 629.000
35.15312 667.000
35.17307 682.000
35.19301 718.000
35.21296 827.000
35.23291 881.000
35.25285 890.000
35.27280 993.000
35.29275 1080.000
35.31269 1309.000
35.33264 1518.000
35.35259 1823.000
35.37254 2166.000
35.39248 2256.000
35.41243 2608.000
35.43238 2814.000
35.45232 3144.000
35.47227 3438.000
35.49222 3579.000
35.51216 4051.000
35.53211 4265.000
35.55206 4382.000
35.57201 4284.000
35.59195 4228.000
35.61190 4174.000
35.63185 3700.000
35.65179 3359.000
35.67174 3038.000
35.69169 2641.000
35.71163 2127.000
35.73158 1827.000
35.75153 1553.000
35.77147 1315.000
35.79142 1065.000
35.81137 972.000
35.83132 858.000
35.85126 773.000
35.87121 719.000
35.89116 673.000
35.91110 660.000
35.93105 594.000
35.95100 573.000
35.97094 553.000
35.99089 544.000
36.01084 529.000
36.03079 494.000
36.05073 544.000
36.07068 512.000
36.09063 525.000
36.11057 514.000
36.13052 519.000
36.15047 529.000
36.17041 482.000
36.19036 493.000
36.21031 534.000
36.23025 507.000
36.25020 506.000
36.27015 502.000
36.29010 523.000
36.31004 515.000
36.32999 525.000
36.34994 511.000
36.36988 517.000
36.38983 471.000
36.40978 488.000
36.42972 516.000
36.44967 486.000
36.46962 480.000
36.48957 485.000
36.50951 452.000
36.52946 529.000
36.54941 502.000
36.56935 491.000
36.58930 537.000
36.60925 511.000
36.62919 472.000
36.64914 515.000
36.66909 494.000
36.68903 507.000
36.70898 509.000
36.72893 459.000
36.74888 473.000
36.76882 484.000
36.78877 523.000
36.80872 477.000
36.82866 484.000
36.84861 510.000
36.86856 489.000
36.88850 451.000
36.90845 473.000
36.92840 516.000
36.94835 517.000
36.96829 487.000
36.98824 489.000
37.00819 500.000
37.02813 503.000
37.04808 606.000
37.06803 578.000
37.08797 625.000
37.10792 613.000
37.12787 664.000
37.14781 638.000
37.16776 719.000
37.18771 716.000
37.20766 713.000
37.22760 724.000
37.24755 655.000
37.26750 643.000
37.28744 616.000
37.30739 700.000
37.32734 563.000
37.34728 588.000
37.36723 535.000
37.38718 546.000
37.40713 534.000
37.42707 549.000
37.44702 511.000
37.46697 449.000
37.48691 491.000
37.50686 531.000
37.52681 506.000
37.54675 542.000
37.56670 507.000
37.58665 519.000
37.60660 506.000
37.62654 467.000
37.64649 476.000
37.66644 497.000
37.68638 514.000
37.70633 487.000
37.72628 479.000
37.74622 477.000
37.76617 536.000
37.78612 492.000
37.80606 500.000
37.82601 483.000
37.84596 516.000
37.86591 495.000
37.88585 502.000
37.90580 479.000
37.92575 502.000
37.94569 495.000
37.96564 511.000
37.98559 510.000
38.00553 545.000
38.02548 503.000
38.04543 534.000
38.06538 529.000
38.08532 511.000
38.10527 551.000
38.12522 542.000
38.14516 613.000
38.16511 613.000
38.18506 579.000
38.20500 561.000
38.22495 622.000
38.24490 610.000
38.26484 617.000
38.28479 629.000
38.30474 675.000
38.32469 696.000
38.34463 723.000
38.36458 681.000
38.38453 817.000
38.40447 755.000
38.42442 900.000
38.44437 978.000
38.46431 1066.000
38.48426 1204.000
38.50421 1482.000
38.52416 1712.000
38.54410 1994.000
38.56405 2405.000
38.58400 2763.000
38.60394 3231.000
38.62389 3488.000
38.64384 3671.000
38.66378 3785.000
38.68373 3910.000
38.70368 3726.000
38.72362 3454.000
38.74357 3217.000
38.76352 3008.000
38.78347 2629.000
38.80341 2433.000
38.82336 1981.000
38.84331 1877.000
38.86325 1723.000
38.88320 1605.000
38.90315 1568.000
38.92309 1479.000
38.94304 1457.000
38.96299 1446.000
38.98294 1378.000
39.00288 1235.000
39.02283 1180.000
39.04278 1130.000
39.06272 1039.000
39.08267 950.000
39.10262 858.000
39.12256 722.000
39.14251 736.000
39.16246 642.000
39.18241 632.000
39.20235 654.000
39.22230 659.000
39.24225 665.000
39.26219 677.000
39.28214 714.000
39.30209 682.000
39.32203 741.000
39.34198 761.000
39.36193 728.000
39.38187 753.000
39.40182 741.000
39.42177 684.000
39.44172 633.000
39.46166 642.000
39.48161 656.000
39.50156 616.000
39.52150 544.000
39.54145 576.000
39.56140 560.000
39.58134 490.000
39.60129 491.000
39.62124 552.000
39.64119 480.000
39.66113 479.000
39.68108 511.000
39.70103 463.000
39.72097 459.000
39.74092 512.000
39.76087 476.000
39.78081 449.000
39.80076 469.000
39.82071 518.000
39.84065 478.000
39.86060 468.000
39.88055 458.000
39.90050 445.000
39.92044 482.000
39.94039 490.000
39.96034 449.000
39.98028 465.000
40.00023 474.000
40.02018 441.000
40.04012 478.000
40.06007 455.000
40.08002 494.000
40.09997 461.000
40.11991 502.000
40.13986 477.000
40.15981 451.000
40.17975 447.000
40.19970 432.000
40.21965 471.000
40.23959 470.000
40.25954 482.000
40.27949 454.000
40.29943 460.000
40.31938 475.000
40.33933 463.000
40.35928 417.000
40.37922 476.000
40.39917 458.000
40.41912 443.000
40.43906 457.000
40.45901 425.000
40.47896 465.000
40.49890 460.000
40.51885 451.000
40.53880 466.000
40.55875 457.000
40.57869 437.000
40.59864 452.000
40.61859 432.000
40.63853 442.000
40.65848 448.000
40.67843 416.000
40.69837 452.000
40.71832 462.000
40.73827 505.000
40.75822 444.000
40.77816 468.000
40.79811 414.000
40.81806 463.000
40.83800 482.000
40.85795 413.000
40.87790 471.000
40.89784 454.000
40.91779 455.000
40.93774 477.000
40.95768 446.000
40.97763 392.000
40.99758 466.000
41.01753 439.000
41.03747 448.000
41.05742 464.000
41.07737 434.000
41.09731 426.000
41.11726 470.000
41.13721 485.000
41.15715 447.000
41.17710 467.000
41.19705 453.000
41.21700 423.000
41.23694 471.000
41.25689 420.000
41.27684 457.000
41.29678 429.000
41.31673 448.000
41.33668 455.000
41.35662 464.000
41.37657 465.000
41.39652 450.000
41.41646 446.000
41.43641 446.000
41.45636 435.000
41.47631 459.000
41.49625 435.000
41.51620 438.000
41.53615 465.000
41.55609 455.000
41.57604 418.000
41.59599 445.000
41.61593 485.000
41.63588 410.000
41.65583 424.000
41.67578 432.000
41.69572 467.000
41.71567 412.000
41.73562 432.000
41.75556 451.000
41.77551 450.000
41.79546 429.000
41.81540 439.000
41.83535 425.000
41.85530 422.000
41.87524 458.000
41.89519 464.000
41.91514 474.000
41.93509 455.000
41.95503 441.000
41.97498 437.000
41.99493 426.000
42.01487 445.000
42.03482 443.000
42.05477 431.000
42.07471 428.000
42.09466 436.000
42.11461 456.000
42.13456 468.000
42.15450 456.000
42.17445 430.000
42.19440 461.000
42.21434 384.000
42.23429 457.000
42.25424 435.000
42.27418 476.000
42.29413 421.000
42.31408 464.000
42.33403 411.000
42.35397 451.000
42.37392 460.000
42.39387 451.000
42.41381 454.000
42.43376 456.000
42.45371 463.000
42.47365 440.000
42.49360 427.000
42.51355 463.000
42.53349 453.000
42.55344 448.000
42.57339 446.000
42.59334 432.000
42.61328 453.000
42.63323 506.000
42.65318 429.000
42.67312 463.000
42.69307 435.000
42.71302 453.000
42.73296 471.000
42.75291 464.000
42.77286 476.000
42.79281 487.000
42.81275 481.000
42.83270 493.000
42.85265 473.000
42.87259 475.000
42.89254 500.000
42.91249 482.000
42.93243 496.000
42.95238 520.000
42.97233 519.000
42.99227 552.000
43.01222 543.000
43.03217 600.000
43.05212 585.000
43.07206 661.000
43.09201 680.000
43.11196 702.000
43.13190 710.000
43.15185 780.000
43.17180 813.000
43.19174 766.000
43.21169 770.000
43.23164 818.000
43.25159 881.000
43.27153 859.000
43.29148 827.000
43.31143 809.000
43.33137 844.000
43.35132 801.000
43.37127 760.000
43.39121 770.000
43.41116 746.000
43.43111 726.000
43.45105 705.000
43.47100 666.000
43.49095 656.000
43.51090 626.000
43.53084 628.000
43.55079 627.000
43.57074 548.000
43.59068 521.000
43.61063 543.000
43.63058 518.000
43.65052 529.000
43.67047 488.000
43.69042 456.000
43.71037 469.000
43.73031 447.000
43.75026 471.000
43.77021 435.000
43.79015 476.000
43.81010 478.000
43.83005 438.000
43.84999 463.000
43.86994 460.000
43.88989 476.000
43.90984 440.000
43.92978 463.000
43.94973 425.000
43.96968 449.000
43.98962 428.000
44.00957 459.000
44.02952 432.000
44.04946 432.000
44.06941 440.000
44.08936 486.000
44.10930 468.000
44.12925 428.000
44.14920 448.000
44.16915 450.000
44.18909 442.000
44.20904 468.000
44.22899 460.000
44.24893 472.000
44.26888 411.000
44.28883 446.000
44.30877 458.000
44.32872 453.000
44.34867 434.000
44.36862 436.000
44.38856 454.000
44.40851 434.000
44.42846 405.000
44.44840 449.000
44.46835 465.000
44.48830 442.000
44.50824 448.000
44.52819 440.000
44.54814 421.000
44.56808 468.000
44.58803 432.000
44.60798 471.000
44.62793 437.000
44.64787 400.000
44.66782 459.000
44.68777 452.000
44.70771 425.000
44.72766 439.000
44.74761 416.000
44.76755 438.000
44.78750 431.000
44.80745 485.000
44.82740 452.000
44.84734 470.000
44.86729 463.000
44.88724 444.000
44.90718 453.000
44.92713 448.000
44.94708 497.000
44.96702 472.000
44.98697 457.000
45.00692 441.000
45.02686 432.000
45.04681 461.000
45.06676 464.000
45.08671 458.000
45.10665 490.000
45.12660 440.000
45.14655 437.000
45.16649 441.000
45.18644 475.000
45.20639 476.000
45.22633 460.000
45.24628 496.000
45.26623 485.000
45.28618 504.000
45.30612 474.000
45.32607 470.000
45.34602 447.000
45.36596 443.000
45.38591 454.000
45.40586 454.000
45.42580 462.000
45.44575 455.000
45.46570 441.000
45.48565 452.000
45.50559 438.000
45.52554 421.000
45.54549 460.000
45.56543 473.000
45.58538 436.000
45.60533 417.000
45.62527 422.000
45.64522 435.000
45.66517 426.000
45.68511 426.000
45.70506 469.000
45.72501 460.000
45.74496 440.000
45.76490 422.000
45.78485 430.000
45.80480 444.000
45.82474 412.000
45.84469 439.000
45.86464 431.000
45.88458 451.000
45.90453 422.000
45.92448 437.000
45.94443 450.000
45.96437 419.000
45.98432 476.000
46.00427 466.000
46.02421 433.000
46.04416 456.000
46.06411 404.000
46.08405 489.000
46.10400 495.000
46.12395 454.000
46.14389 491.000
46.16384 480.000
46.18379 500.000
46.20374 520.000
46.22368 512.000
46.24363 486.000
46.26358 496.000
46.28352 546.000
46.30347 513.000
46.32342 501.000
46.34336 501.000
46.36331 455.000
46.38326 516.000
46.40321 493.000
46.42315 499.000
46.44310 476.000
46.46305 492.000
46.48299 456.000
46.50294 456.000
46.52289 469.000
46.54283 459.000
46.56278 491.000
46.58273 461.000
46.60267 411.000
46.62262 463.000
46.64257 413.000
46.66252 453.000
46.68246 433.000
46.70241 457.000
46.72236 467.000
46.74230 459.000
46.76225 420.000
46.78220 437.000
46.80214 466.000
46.82209 407.000
46.84204 471.000
46.86199 416.000
46.88193 446.000
46.90188 461.000
46.92183 408.000
46.94177 470.000
46.96172 434.000
46.98167 450.000
47.00161 448.000
47.02156 411.000
47.04151 418.000
47.06146 414.000
47.08140 437.000
47.10135 485.000
47.12130 445.000
47.14124 443.000
47.16119 481.000
47.18114 440.000
47.20108 439.000
47.22103 440.000
47.24098 419.000
47.26092 426.000
47.28087 418.000
47.30082 440.000
47.32077 464.000
47.34071 467.000
47.36066 461.000
47.38061 417.000
47.40055 464.000
47.42050 417.000
47.44045 412.000
47.46039 471.000
47.48034 438.000
47.50029 433.000
47.52024 455.000
47.54018 415.000
47.56013 477.000
47.58008 428.000
47.60002 448.000
47.61997 454.000
47.63992 440.000
47.65986 465.000
47.67981 475.000
47.69976 448.000
47.71970 453.000
47.73965 451.000
47.75960 421.000
47.77955 492.000
47.79949 452.000
47.81944 438.000
47.83939 485.000
47.85933 467.000
47.87928 457.000
47.89923 433.000
47.91917 470.000
47.93912 437.000
47.95907 455.000
47.97902 455.000
47.99896 438.000
48.01891 455.000
48.03886 459.000
48.05880 489.000
48.07875 455.000
48.09870 439.000
48.11864 414.000
48.13859 455.000
48.15854 479.000
48.17848 491.000
48.19843 453.000
48.21838 446.000
48.23833 455.000
48.25827 483.000
48.27822 509.000
48.29817 534.000
48.31811 462.000
48.33806 492.000
48.35801 484.000
48.37795 429.000
48.39790 528.000
48.41785 494.000
48.43780 523.000
48.45774 490.000
48.47769 517.000
48.49764 543.000
48.51758 592.000
48.53753 582.000
48.55748 554.000
48.57742 622.000
48.59737 652.000
48.61732 716.000
48.63726 742.000
48.65721 846.000
48.67716 917.000
48.69711 1049.000
48.71705 1128.000
48.73700 1282.000
48.75695 1326.000
48.77689 1412.000
48.79684 1435.000
48.81679 1511.000
48.83673 1513.000
48.85668 1519.000
48.87663 1527.000
48.89658 1377.000
48.91652 1351.000
48.93647 1254.000
48.95642 1176.000
48.97636 1029.000
48.99631 1020.000
49.01626 870.000
49.03620 812.000
49.05615 690.000
49.07610 682.000
49.09605 638.000
49.11599 619.000
49.13594 541.000
49.15589 549.000
49.17583 494.000
49.19578 502.000
49.21573 538.000
49.23567 477.000
49.25562 451.000
49.27557 469.000
49.29551 448.000
49.31546 514.000
49.33541 492.000
49.35536 490.000
49.37530 493.000
49.39525 439.000
49.41520 482.000
49.43514 444.000
49.45509 461.000
49.47504 457.000
49.49498 458.000
49.51493 475.000
49.53488 468.000
49.55483 448.000
49.57477 456.000
49.59472 425.000
49.61467 439.000
49.63461 452.000
49.65456 432.000
49.67451 485.000
49.69445 435.000
49.71440 444.000
49.73435 464.000
49.75429 490.000
49.77424 455.000
49.79419 459.000
49.81414 462.000
49.83408 490.000
49.85403 458.000
49.87398 467.000
49.89392 473.000
49.91387 452.000
49.93382 458.000
49.95376 479.000
49.97371 459.000
49.99366 433.000
50.01361 455.000
50.03355 493.000
50.05350 501.000
50.07345 448.000
50.09339 490.000
50.11334 446.000
50.13329 477.000
50.15323 443.000
50.17318 447.000
50.19313 452.000
50.21307 430.000
50.23302 443.000
50.25297 469.000
50.27292 448.000
50.29286 473.000
50.31281 432.000
50.33276 465.000
50.35270 437.000
50.37265 448.000
50.39260 444.000
50.41254 449.000
50.43249 456.000
50.45244 468.000
50.47239 459.000
50.49233 459.000
50.51228 439.000
50.53223 453.000
50.55217 486.000
50.57212 447.000
50.59207 434.000
50.61201 470.000
50.63196 419.000
50.65191 477.000
50.67186 442.000
50.69180 399.000
50.71175 467.000
50.73170 443.000
50.75164 461.000
50.77159 451.000
50.79154 455.000
50.81148 469.000
50.83143 420.000
50.85138 457.000
50.87132 469.000
50.89127 463.000
50.91122 447.000
50.93117 487.000
50.95111 473.000
50.97106 431.000
50.99101 456.000
51.01095 463.000
51.03090 465.000
51.05085 492.000
51.07079 466.000
51.09074 475.000
51.11069 488.000
51.13064 470.000
51.15058 483.000
51.17053 479.000
51.19048 494.000
51.21042 530.000
51.23037 491.000
51.25032 506.000
51.27026 480.000
51.29021 462.000
51.31016 444.000
51.33010 471.000
51.35005 496.000
51.37000 470.000
51.38995 470.000
51.40989 489.000
51.42984 486.000
51.44979 437.000
51.46973 488.000
51.48968 469.000
51.50963 491.000
51.52957 486.000
51.54952 470.000
51.56947 429.000
51.58942 496.000
51.60936 459.000
51.62931 459.000
51.64926 433.000
51.66920 450.000
51.68915 429.000
51.70910 422.000
51.72904 460.000
51.74899 451.000
51.76894 440.000
51.78888 458.000
51.80883 418.000
51.82878 432.000
51.84873 433.000
51.86867 451.000
51.88862 418.000
51.90857 447.000
51.92851 458.000
51.94846 467.000
51.96841 466.000
51.98835 422.000
52.00830 451.000
52.02825 446.000
52.04820 434.000
52.06814 484.000
52.08809 413.000
52.10804 491.000
52.12798 472.000
52.14793 427.000
52.16788 419.000
52.18782 437.000
52.20777 441.000
52.22772 476.000
52.24767 407.000
52.26761 456.000
52.28756 450.000
52.30751 490.000
52.32745 453.000
52.34740 457.000
52.36735 427.000
52.38729 466.000
52.40724 456.000
52.42719 429.000
52.44713 468.000
52.46708 437.000
52.48703 474.000
52.50698 460.000
52.52692 473.000
52.54687 464.000
52.56682 451.000
52.58676 505.000
52.60671 455.000
52.62666 464.000
52.64660 414.000
52.66655 447.000
52.68650 456.000
52.70645 467.000
52.72639 462.000
52.74634 427.000
52.76629 503.000
52.78623 477.000
52.80618 434.000
52.82613 497.000
52.84607 480.000
52.86602 470.000
52.88597 443.000
52.90591 440.000
52.92586 488.000
52.94581 497.000
52.96576 450.000
52.98570 508.000
53.00565 500.000
53.02560 463.000
53.04554 500.000
53.06549 511.000
53.08544 500.000
53.10538 484.000
53.12533 484.000
53.14528 544.000
53.16523 522.000
53.18517 566.000
53.20512 546.000
53.22507 559.000
53.24501 626.000
53.26496 579.000
53.28491 628.000
53.30485 637.000
53.32480 605.000
53.34475 686.000
53.36469 635.000
53.38464 616.000
53.40459 646.000
53.42454 675.000
53.44448 709.000
53.46443 692.000
53.48438 623.000
53.50432 652.000
53.52427 608.000
53.54422 611.000
53.56416 586.000
53.58411 607.000
53.60406 573.000
53.62401 601.000
53.64395 604.000
53.66390 571.000
53.68385 605.000
53.70379 564.000
53.72374 591.000
53.74369 599.000
53.76363 553.000
53.78358 572.000
53.80353 587.000
53.82348 532.000
53.84342 574.000
53.86337 535.000
53.88332 493.000
53.90326 543.000
53.92321 505.000
53.94316 518.000
53.96310 491.000
53.98305 464.000
54.00300 444.000
54.02294 421.000
54.04289 391.000
54.06284 453.000
54.08279 470.000
54.10273 465.000
54.12268 442.000
54.14263 455.000
54.16257 444.000
54.18252 450.000
54.20247 443.000
54.22241 411.000
54.24236 468.000
54.26231 415.000
54.28226 485.000
54.30220 454.000
54.32215 480.000
54.34210 481.000
54.36204 468.000
54.38199 461.000
54.40194 420.000
54.42188 451.000
54.44183 456.000
54.46178 426.000
54.48172 462.000
54.50167 450.000
54.52162 504.000
54.54157 441.000
54.56151 413.000
54.58146 430.000
54.60141 433.000
54.62135 464.000
54.64130 457.000
54.66125 461.000
54.68119 466.000
54.70114 465.000
54.72109 439.000
54.74104 478.000
54.76098 446.000
54.78093 450.000
54.80088 481.000
54.82082 471.000
54.84077 443.000
54.86072 446.000
54.88066 436.000
54.90061 468.000
54.92056 421.000
54.94050 471.000
54.96045 416.000
54.98040 485.000
55.00035 443.000
55.02029 484.000
55.04024 426.000
55.06019 459.000
55.08013 445.000
55.10008 472.000
55.12003 434.000
55.13997 438.000
55.15992 446.000
55.17987 454.000
55.19982 416.000
55.21976 410.000
55.23971 417.000
55.25966 452.000
55.27960 439.000
55.29955 437.000
55.31950 437.000
55.33944 443.000
55.35939 453.000
55.37934 447.000
55.39929 457.000
55.41923 441.000
55.43918 486.000
55.45913 461.000
55.47907 439.000
55.49902 438.000
55.51897 481.000
55.53891 433.000
55.55886 428.000
55.57881 413.000
55.59875 459.000
55.61870 472.000
55.63865 469.000
55.65860 436.000
55.67854 437.000
55.69849 467.000
55.71844 477.000
55.73838 447.000
55.75833 488.000
55.77828 426.000
55.79822 471.000
55.81817 425.000
55.83812 445.000
55.85807 472.000
55.87801 482.000
55.89796 470.000
55.91791 441.000
55.93785 469.000
55.95780 474.000
55.97775 454.000
55.99769 415.000
56.01764 457.000
56.03759 437.000
56.05753 444.000
56.07748 448.000
56.09743 456.000
56.11738 402.000
56.13732 427.000
56.15727 455.000
56.17722 443.000
56.19716 449.000
56.21711 451.000
56.23706 446.000
56.25700 485.000
56.27695 462.000
56.29690 470.000
56.31685 469.000
56.33679 478.000
56.35674 460.000
56.37669 468.000
56.39663 457.000
56.41658 457.000
56.43653 450.000
56.45647 463.000
56.47642 449.000
56.49637 446.000
56.51631 469.000
56.53626 459.000
56.55621 508.000
56.57616 500.000
56.59610 481.000
56.61605 502.000
56.63600 467.000
56.65594 479.000
56.67589 504.000
56.69584 455.000
56.71578 477.000
56.73573 466.000
56.75568 463.000
56.77563 501.000
56.79557 438.000
56.81552 488.000
56.83547 500.000
56.85541 464.000
56.87536 476.000
56.89531 479.000
56.91525 490.000
56.93520 473.000
56.95515 512.000
56.97510 453.000
56.99504 471.000
57.01499 501.000
57.03494 507.000
57.05488 459.000
57.07483 500.000
57.09478 526.000
57.11472 508.000
57.13467 535.000
57.15462 546.000
57.17456 629.000
57.19451 612.000
57.21446 634.000
57.23441 644.000
57.25435 721.000
57.27430 733.000
57.29425 749.000
57.31419 691.000
57.33414 706.000
57.35409 702.000
57.37403 701.000
57.39398 676.000
57.41393 660.000
57.43388 658.000
57.45382 569.000
57.47377 644.000
57.49372 539.000
57.51366 556.000
57.53361 573.000
57.55356 540.000
57.57350 509.000
57.59345 519.000
57.61340 502.000
57.63334 491.000
57.65329 462.000
57.67324 471.000
57.69319 462.000
57.71313 440.000
57.73308 494.000
57.75303 485.000
57.77297 510.000
57.79292 453.000
57.81287 452.000
57.83281 468.000
57.85276 473.000
57.87271 502.000
57.89266 476.000
57.91260 513.000
57.93255 515.000
57.95250 527.000
57.97244 523.000
57.99239 540.000
58.01234 626.000
58.03228 569.000
58.05223 645.000
58.07218 645.000
58.09212 702.000
58.11207 751.000
58.13202 813.000
58.15197 854.000
58.17191 831.000
58.19186 883.000
58.21181 840.000
58.23175 866.000
58.25170 880.000
58.27165 864.000
58.29159 836.000
58.31154 807.000
58.33149 755.000
58.35144 707.000
58.37138 698.000
58.39133 635.000
58.41128 613.000
58.43122 620.000
58.45117 577.000
58.47112 568.000
58.49106 534.000
58.51101 507.000
58.53096 512.000
58.55090 514.000
58.57085 448.000
58.59080 481.000
58.61075 464.000
58.63069 464.000
58.65064 460.000
58.67059 468.000
58.69053 448.000
58.71048 481.000
58.73043 458.000
58.75037 489.000
58.77032 482.000
58.79027 426.000
58.81022 506.000
58.83016 446.000
58.85011 495.000
58.87006 493.000
58.89000 470.000
58.90995 458.000
58.92990 448.000
58.94984 465.000
58.96979 502.000
58.98974 446.000
59.00969 437.000
59.02963 419.000
59.04958 479.000
59.06953 507.000
59.08947 494.000
59.10942 452.000
59.12937 454.000
59.14931 482.000
59.16926 484.000
59.18921 425.000
59.20915 451.000
59.22910 451.000
59.24905 479.000
59.26900 454.000
59.28894 436.000
59.30889 449.000
59.32884 473.000
59.34878 440.000
59.36873 443.000
59.38868 461.000
59.40862 422.000
59.42857 437.000
59.44852 504.000
59.46847 450.000
59.48841 470.000
59.50836 443.000
59.52831 457.000
59.54825 484.000
59.56820 453.000
59.58815 457.000
59.60809 452.000
59.62804 470.000
59.64799 435.000
59.66793 456.000
59.68788 437.000
59.70783 452.000
59.72778 469.000
59.74772 451.000
59.76767 461.000
59.78762 479.000
59.80756 480.000
59.82751 455.000
59.84746 412.000
59.86740 430.000
59.88735 469.000
59.90730 468.000
59.92725 460.000
59.94719 474.000
59.96714 457.000
59.98709 407.000
60.00703 455.000
60.02698 462.000
60.04693 473.000
60.06687 450.000
60.08682 428.000
60.10677 444.000
60.12671 490.000
60.14666 420.000
60.16661 464.000
60.18656 466.000
60.20650 477.000
60.22645 456.000
60.24640 480.000
60.26634 422.000
60.28629 507.000
60.30624 461.000
60.32618 446.000
60.34613 434.000
60.36608 459.000
60.38603 455.000
60.40597 518.000
60.42592 456.000
60.44587 465.000
60.46581 456.000
60.48576 453.000
60.50571 421.000
60.52565 424.000
60.54560 496.000
60.56555 445.000
60.58550 444.000
60.60544 461.000
60.62539 463.000
60.64534 469.000
60.66528 459.000
60.68523 480.000
60.70518 454.000
60.72512 469.000
60.74507 440.000
60.76502 462.000
60.78496 500.000
60.80491 417.000
60.82486 425.000
60.84481 467.000
60.86475 468.000
60.88470 464.000
60.90465 470.000
60.92459 522.000
60.94454 499.000
60.96449 470.000
60.98443 525.000
61.00438 467.000
61.02433 474.000
61.04428 489.000
61.06422 489.000
61.08417 496.000
61.10412 504.000
61.12406 464.000
61.14401 484.000
61.16396 506.000
61.18390 527.000
61.20385 528.000
61.22380 552.000
61.24374 545.000
61.26369 590.000
61.28364 563.000
61.30359 535.000
61.32353 592.000
61.34348 600.000
61.36343 610.000
61.38337 686.000
61.40332 724.000
61.42327 746.000
61.44321 854.000
61.46316 888.000
61.48311 990.000
61.50306 1005.000
61.52300 1072.000
61.54295 1050.000
61.56290 1057.000
61.58284 955.000
61.60279 977.000
61.62274 966.000
61.64268 984.000
61.66263 952.000
61.68258 909.000
61.70252 875.000
61.72247 819.000
61.74242 860.000
61.76237 735.000
61.78231 709.000
61.80226 665.000
61.82221 651.000
61.84215 578.000
61.86210 616.000
61.88205 609.000
61.90199 582.000
61.92194 554.000
61.94189 577.000
61.96184 595.000
61.98178 570.000
62.00173 597.000
62.02168 571.000
62.04162 591.000
62.06157 611.000
62.08152 562.000
62.10146 576.000
62.12141 535.000
62.14136 554.000
62.16131 548.000
62.18125 484.000
62.20120 564.000
62.22115 569.000
62.24109 513.000
62.26104 547.000
62.28099 560.000
62.30093 526.000
62.32088 539.000
62.34083 469.000
62.36077 536.000
62.38072 481.000
62.40067 574.000
62.42062 551.000
62.44056 565.000
62.46051 521.000
62.48046 526.000
62.50040 512.000
62.52035 523.000
62.54030 574.000
62.56024 591.000
62.58019 581.000
62.60014 580.000
62.62009 626.000
62.64003 620.000
62.65998 614.000
62.67993 679.000
62.69987 618.000
62.71982 647.000
62.73977 686.000
62.75971 715.000
62.77966 732.000
62.79961 727.000
62.81955 774.000
62.83950 808.000
62.85945 761.000
62.87940 855.000
62.89934 863.000
62.91929 862.000
62.93924 862.000
62.95918 819.000
62.97913 778.000
62.99908 746.000
63.01902 773.000
63.03897 714.000
63.05892 695.000
63.07887 647.000
63.09881 724.000
63.11876 676.000
63.13871 652.000
63.15865 604.000
63.17860 572.000
63.19855 578.000
63.21849 588.000
63.23844 508.000
63.25839 516.000
63.27833 487.000
63.29828 534.000
63.31823 521.000
63.33818 492.000
63.35812 502.000
63.37807 467.000
63.39802 512.000
63.41796 471.000
63.43791 475.000
63.45786 463.000
63.47780 502.000
63.49775 482.000
63.51770 468.000
63.53765 492.000
63.55759 480.000
63.57754 455.000
63.59749 451.000
63.61743 462.000
63.63738 449.000
63.65733 461.000
63.67727 467.000
63.69722 475.000
63.71717 470.000
63.73712 458.000
63.75706 481.000
63.77701 464.000
63.79696 477.000
63.81690 499.000
63.83685 499.000
63.85680 475.000
63.87674 463.000
63.89669 498.000
63.91664 534.000
63.93658 459.000
63.95653 523.000
63.97648 485.000
63.99643 488.000
64.01637 465.000
64.03632 459.000
64.05627 516.000
64.07621 505.000
64.09616 497.000
64.11611 443.000
64.13605 475.000
64.15600 491.000
64.17595 507.000
64.19590 524.000
64.21584 502.000
64.23579 504.000
64.25574 550.000
64.27568 532.000
64.29563 525.000
64.31558 560.000
64.33552 565.000
64.35547 547.000
64.37542 514.000
64.39536 565.000
64.41531 529.000
64.43526 499.000
64.45521 513.000
64.47515 496.000
64.49510 580.000
64.51505 508.000
64.53499 536.000
64.55494 484.000
64.57489 532.000
64.59483 504.000
64.61478 501.000
64.63473 535.000
64.65468 490.000
64.67462 509.000
64.69457 524.000
64.71452 467.000
64.73446 471.000
64.75441 469.000
64.77436 512.000
64.79430 485.000
64.81425 482.000
64.83420 460.000
64.85414 483.000
64.87409 504.000
64.89404 501.000
64.91399 434.000
64.93393 482.000
64.95388 503.000
64.97383 503.000
64.99377 481.000
65.01372 498.000
65.03367 479.000
65.05361 478.000
65.07356 468.000
65.09351 505.000
65.11346 483.000
65.13340 462.000
65.15335 462.000
65.17330 483.000
65.19324 493.000
65.21319 473.000
65.23314 519.000
65.25308 513.000
65.27303 497.000
65.29298 545.000
65.31293 499.000
65.33287 497.000
65.35282 540.000
65.37277 539.000
65.39271 529.000
65.41266 564.000
65.43261 583.000
65.45255 588.000
65.47250 600.000
65.49245 624.000
65.51239 613.000
65.53234 627.000
65.55229 669.000
65.57224 640.000
65.59218 737.000
65.61213 689.000
65.63208 796.000
65.65202 717.000
65.67197 706.000
65.69192 774.000
65.71186 766.000
65.73181 759.000
65.75176 778.000
65.77171 798.000
65.79165 778.000
65.81160 759.000
65.83155 771.000
65.85149 741.000
65.87144 731.000
65.89139 724.000
65.91133 782.000
65.93128 684.000
65.95123 731.000
65.97117 675.000
65.99112 680.000
66.01107 641.000
66.03102 663.000
66.05096 623.000
66.07091 679.000
66.09086 680.000
66.11080 635.000
66.13075 645.000
66.15070 737.000
66.17064 690.000
66.19059 739.000
66.21054 805.000
66.23049 871.000
66.25043 866.000
66.27038 944.000
66.29033 879.000
66.31027 935.000
66.33022 977.000
66.35017 901.000
66.37011 894.000
66.39006 826.000
66.41001 857.000
66.42995 893.000
66.44990 804.000
66.46985 802.000
66.48980 813.000
66.50974 753.000
66.52969 712.000
66.54964 706.000
66.56958 719.000
66.58953 650.000
66.60948 642.000
66.62942 638.000
66.64937 661.000
66.66932 559.000
66.68927 566.000
66.70921 586.000
66.72916 635.000
66.74911 555.000
66.76905 525.000
66.78900 530.000
66.80895 542.000
66.82889 507.000
66.84884 521.000
66.86879 582.000
66.88874 556.000
66.90868 539.000
66.92863 539.000
66.94858 524.000
66.96852 515.000
66.98847 501.000
67.00842 517.000
67.02836 541.000
67.04831 486.000
67.06826 493.000
67.08820 506.000
67.10815 483.000
67.12810 468.000
67.14805 502.000
67.16799 485.000
67.18794 483.000
67.20789 478.000
67.22783 506.000
67.24778 510.000
67.26773 488.000
67.28767 463.000
67.30762 533.000
67.32757 495.000
67.34752 458.000
67.36746 503.000
67.38741 523.000
67.40736 472.000
67.42730 535.000
67.44725 525.000
67.46720 503.000
67.48714 563.000
67.50709 539.000
67.52704 542.000
67.54698 530.000
67.56693 578.000
67.58688 603.000
67.60683 585.000
67.62677 573.000
67.64672 608.000
67.66667 641.000
67.68661 660.000
67.70656 731.000
67.72651 708.000
67.74645 707.000
67.76640 674.000
67.78635 788.000
67.80630 783.000
67.82624 780.000
67.84619 803.000
67.86614 804.000
67.88608 827.000
67.90603 825.000
67.92598 906.000
67.94592 873.000
67.96587 887.000
67.98582 940.000
68.00576 960.000
68.02571 935.000
68.04566 814.000
68.06561 866.000
68.08555 831.000
68.10550 805.000
68.12545 844.000
68.14539 813.000
68.16534 759.000
68.18529 758.000
68.20523 730.000
68.22518 723.000
68.24513 751.000
68.26508 678.000
68.28502 612.000
68.30497 598.000
68.32492 596.000
68.34486 595.000
68.36481 568.000
68.38476 536.000
68.40470 508.000
68.42465 514.000
68.44460 535.000
68.46455 475.000
68.48449 523.000
68.50444 470.000
68.52439 510.000
68.54433 475.000
68.56428 468.000
68.58423 497.000
68.60417 455.000
68.62412 501.000
68.64407 498.000
68.66401 486.000
68.68396 490.000
68.70391 473.000
68.72386 460.000
68.74380 489.000
68.76375 488.000
68.78370 476.000
68.80364 476.000
68.82359 459.000
68.84354 449.000
68.86348 487.000
68.88343 524.000
68.90338 493.000
68.92333 463.000
68.94327 471.000
68.96322 476.000
68.98317 527.000
69.00311 454.000
69.02306 453.000
69.04301 432.000
69.06295 506.000
69.08290 531.000
69.10285 500.000
69.12279 482.000
69.14274 442.000
69.16269 490.000
69.18264 485.000
69.20258 463.000
69.22253 451.000
69.24248 461.000
69.26242 492.000
69.28237 506.000
69.30232 455.000
69.32226 441.000
69.34221 500.000
69.36216 418.000
69.38211 463.000
69.40205 503.000
69.42200 460.000
69.44195 501.000
69.46189 465.000
69.48184 443.000
69.50179 444.000
69.52173 426.000
69.54168 461.000
69.56163 464.000
69.58157 480.000
69.60152 480.000
69.62147 466.000
69.64142 453.000
69.66136 477.000
69.68131 417.000
69.70126 475.000
69.72120 445.000
69.74115 442.000
69.76110 458.000
69.78104 465.000
69.80099 459.000
69.82094 473.000
69.84089 421.000
69.86083 439.000
69.88078 486.000
69.90073 456.000
69.92067 427.000
69.94062 463.000
69.96057 461.000
69.98051 445.000
70.00046 469.000
70.02041 441.000
70.04035 518.000
70.06030 483.000
70.08025 471.000
70.10020 494.000
70.12014 468.000
70.14009 459.000
70.16004 472.000
70.17998 453.000
70.19993 483.000
70.21988 461.000
70.23982 460.000
70.25977 453.000
70.27972 429.000
70.29967 500.000
70.31961 477.000
70.33956 458.000
70.35951 484.000
70.37945 449.000
70.39940 483.000
70.41935 461.000
70.43929 458.000
70.45924 475.000
70.47919 464.000
70.49914 473.000
70.51908 434.000
70.53903 468.000
70.55898 461.000
70.57892 506.000
70.59887 452.000
70.61882 464.000
70.63876 486.000
70.65871 473.000
70.67866 482.000
70.69860 462.000
70.71855 451.000
70.73850 461.000
70.75845 456.000
70.77839 476.000
70.79834 479.000
70.81829 453.000
70.83823 476.000
70.85818 476.000
70.87813 474.000
70.89807 478.000
70.91802 464.000
70.93797 455.000
70.95792 433.000
70.97786 460.000
70.99781 502.000
71.01776 432.000
71.03770 478.000
71.05765 449.000
71.07760 468.000
71.09754 433.000
71.11749 455.000
71.13744 449.000
71.15738 467.000
71.17733 419.000
71.19728 461.000
71.21723 482.000
71.23717 484.000
71.25712 451.000
71.27707 476.000
71.29701 461.000
71.31696 445.000
71.33691 482.000
71.35685 485.000
71.37680 461.000
71.39675 462.000
71.41670 493.000
71.43664 482.000
71.45659 451.000
71.47654 454.000
71.49648 536.000
71.51643 505.000
71.53638 480.000
71.55632 462.000
71.57627 470.000
71.59622 451.000
71.61616 483.000
71.63611 471.000
71.65606 489.000
71.67601 481.000
71.69595 497.000
71.71590 436.000
71.73585 457.000
71.75579 453.000
71.77574 508.000
71.79569 459.000
71.81563 457.000
71.83558 470.000
71.85553 476.000
71.87548 487.000
71.89542 457.000
71.91537 486.000
71.93532 505.000
71.95526 442.000
71.97521 507.000
71.99516 516.000
72.01510 479.000
72.03505 472.000
72.05500 507.000
72.07495 470.000
72.09489 505.000
72.11484 495.000
72.13479 496.000
72.15473 500.000
72.17468 518.000
72.19463 514.000
72.21457 549.000
72.23452 592.000
72.25447 615.000
72.27441 580.000
72.29436 619.000
72.31431 671.000
72.33426 649.000
72.35420 652.000
72.37415 648.000
72.39410 618.000
72.41404 645.000
72.43399 633.000
72.45394 600.000
72.47388 639.000
72.49383 600.000
72.51378 604.000
72.53373 590.000
72.55367 584.000
72.57362 562.000
72.59357 605.000
72.61351 537.000
72.63346 529.000
72.65341 559.000
72.67335 532.000
72.69330 502.000
72.71325 486.000
72.73319 490.000
72.75314 477.000
72.77309 475.000
72.79304 474.000
72.81298 553.000
72.83293 418.000
72.85288 464.000
72.87282 500.000
72.89277 452.000
72.91272 496.000
72.93266 467.000
72.95261 463.000
72.97256 477.000
72.99251 482.000
73.01245 457.000
73.03240 484.000
73.05235 478.000
73.07229 453.000
73.09224 455.000
73.11219 459.000
73.13213 496.000
73.15208 450.000
73.17203 454.000
73.19197 491.000
73.21192 456.000
73.23187 474.000
73.25182 453.000
73.27176 478.000
73.29171 469.000
73.31166 468.000
73.33160 462.000
73.35155 470.000
73.37150 413.000
73.39144 472.000
73.41139 518.000
73.43134 473.000
73.45129 469.000
73.47123 464.000
73.49118 447.000
73.51113 455.000
73.53107 463.000
73.55102 458.000
73.57097 491.000
73.59091 452.000
73.61086 498.000
73.63081 458.000
73.65076 448.000
73.67070 485.000
73.69065 468.000
73.71060 436.000
73.73054 465.000
73.75049 471.000
73.77044 501.000
73.79038 462.000
73.81033 512.000
73.83028 478.000
73.85022 456.000
73.87017 457.000
73.89012 480.000
73.91007 502.000
73.93001 491.000
73.94996 480.000
73.96991 492.000
73.98985 508.000
74.00980 448.000
74.02975 471.000
74.04969 480.000
74.06964 441.000
74.08959 466.000
74.10954 467.000
74.12948 444.000
74.14943 478.000
74.16938 472.000
74.18932 499.000
74.20927 449.000
74.22922 478.000
74.24916 482.000
74.26911 502.000
74.28906 482.000
74.30900 453.000
74.32895 485.000
74.34890 541.000
74.36885 554.000
74.38879 472.000
74.40874 532.000
74.42869 542.000
74.44863 510.000
74.46858 527.000
74.48853 507.000
74.50847 553.000
74.52842 498.000
74.54837 538.000
74.56832 561.000
74.58826 571.000
74.60821 509.000
74.62816 494.000
74.64810 562.000
74.66805 568.000
74.68800 525.000
74.70794 578.000
74.72789 519.000
74.74784 553.000
74.76778 562.000
74.78773 564.000
74.80768 604.000
74.82763 574.000
74.84757 648.000
74.86752 626.000
74.88747 652.000
74.90741 614.000
74.92736 648.000
74.94731 703.000
74.96725 682.000
74.98720 668.000
75.00715 597.000
75.02710 659.000
75.04704 638.000
75.06699 683.000
75.08694 669.000
75.10688 682.000
75.12683 691.000
75.14678 702.000
75.16672 707.000
75.18667 682.000
75.20662 707.000
75.22657 691.000
75.24651 716.000
75.26646 659.000
75.28641 648.000
75.30635 701.000
75.32630 629.000
75.34625 716.000
75.36619 661.000
75.38614 613.000
75.40609 631.000
75.42603 629.000
75.44598 651.000
75.46593 568.000
75.48588 557.000
75.50582 594.000
75.52577 589.000
75.54572 565.000
75.56566 527.000
75.58561 529.000
75.60556 583.000
75.62550 520.000
75.64545 530.000
75.66540 542.000
75.68535 507.000
75.70529 511.000
75.72524 536.000
75.74519 508.000
75.76513 508.000
75.78508 500.000
75.80503 513.000
75.82497 480.000
75.84492 493.000
75.86487 470.000
75.88481 468.000
75.90476 522.000
75.92471 473.000
75.94466 471.000
75.96460 486.000
75.98455 460.000
76.00450 450.000
76.02444 436.000
76.04439 448.000
76.06434 479.000
76.08428 493.000
76.10423 449.000
76.12418 465.000
76.14413 485.000
76.16407 434.000
76.18402 478.000
76.20397 450.000
76.22391 473.000
76.24386 468.000
76.26381 491.000
76.28375 448.000
76.30370 478.000
76.32365 466.000
76.34359 425.000
76.36354 477.000
76.38349 447.000
76.40344 452.000
76.42338 457.000
76.44333 469.000
76.46328 426.000
76.48322 453.000
76.50317 511.000
76.52312 448.000
76.54306 477.000
76.56301 437.000
76.58296 458.000
76.60291 445.000
76.62285 516.000
76.64280 435.000
76.66275 441.000
76.68269 475.000
76.70264 455.000
76.72259 429.000
76.74253 439.000
76.76248 460.000
76.78243 456.000
76.80238 461.000
76.82232 446.000
76.84227 454.000
76.86222 483.000
76.88216 480.000
76.90211 467.000
76.92206 430.000
76.94200 472.000
76.96195 436.000
76.98190 464.000
77.00184 498.000
77.02179 430.000
77.04174 452.000
77.06169 441.000
77.08163 461.000
77.10158 502.000
77.12153 454.000
77.14147 455.000
77.16142 477.000
77.18137 424.000
77.20131 471.000
77.22126 456.000
77.24121 481.000
77.26116 429.000
77.28110 479.000
77.30105 449.000
77.32100 448.000
77.34094 476.000
77.36089 459.000
77.38084 418.000
77.40078 442.000
77.42073 473.000
77.44068 462.000
77.46062 455.000
77.48057 459.000
77.50052 480.000
77.52047 452.000
77.54041 468.000
77.56036 478.000
77.58031 470.000
77.60025 437.000
77.62020 439.000
77.64015 479.000
77.66009 451.000
77.68004 438.000
77.69999 484.000
77.71994 520.000
77.73988 429.000
77.75983 488.000
77.77978 477.000
77.79972 485.000
77.81967 459.000
77.83962 444.000
77.85956 402.000
77.87951 474.000
77.89946 437.000
77.91940 481.000
77.93935 492.000
77.95930 469.000
77.97925 481.000
77.99919 493.000
78.01914 448.000
78.03909 488.000
78.05903 478.000
78.07898 499.000
78.09893 478.000
78.11887 493.000
78.13882 495.000
78.15877 440.000
78.17872 472.000
78.19866 497.000
78.21861 500.000
78.23856 481.000
78.25850 485.000
78.27845 539.000
78.29840 540.000
78.31834 509.000
78.33829 472.000
78.35824 465.000
78.37819 452.000
78.39813 464.000
78.41808 479.000
78.43803 485.000
78.45797 492.000
78.47792 488.000
78.49787 450.000
78.51781 432.000
78.53776 505.000
78.55771 491.000
78.57765 498.000
78.59760 484.000
78.61755 456.000
78.63750 450.000
78.65744 485.000
78.67739 476.000
78.69734 476.000
78.71728 441.000
78.73723 492.000
78.75718 428.000
78.77712 477.000
78.79707 492.000
78.81702 430.000
78.83697 456.000
78.85691 475.000
78.87686 450.000
78.89681 463.000
78.91675 483.000
78.93670 465.000
78.95665 484.000
78.97659 428.000
78.99654 451.000
79.01649 484.000
79.03643 491.000
79.05638 485.000
79.07633 520.000
79.09628 480.000
79.11622 480.000
79.13617 473.000
79.15612 468.000
79.17606 429.000
79.19601 478.000
79.21596 516.000
79.23590 490.000
79.25585 496.000
79.27580 492.000
79.29575 487.000
79.31569 489.000
79.33564 454.000
79.35559 510.000
79.37553 460.000
79.39548 477.000
79.41543 502.000
79.43537 503.000
79.45532 491.000
79.47527 504.000
79.49521 469.000
79.51516 509.000
79.53511 440.000
79.55506 487.000
79.57500 460.000
79.59495 473.000
79.61490 466.000
79.63484 462.000
79.65479 459.000
79.67474 454.000
79.69468 487.000
79.71463 465.000
79.73458 476.000
79.75453 478.000
79.77447 490.000
79.79442 497.000
79.81437 482.000
79.83431 471.000
79.85426 474.000
79.87421 471.000
79.89415 493.000
79.91410 430.000
79.93405 425.000
79.95399 458.000
79.97394 401.000
79.99389 445.000
80.01384 453.000
80.03378 493.000
80.05373 436.000
80.07368 494.000
80.09362 480.000
80.11357 476.000
80.13352 450.000
80.15346 517.000
80.17341 480.000
80.19336 466.000
80.21331 535.000
80.23325 532.000
80.25320 498.000
80.27315 517.000
80.29309 538.000
80.31304 505.000
80.33299 497.000
80.35293 503.000
80.37288 513.000
80.39283 530.000
80.41278 532.000
80.43272 493.000
80.45267 464.000
80.47262 550.000
80.49256 526.000
80.51251 461.000
80.53246 499.000
80.55240 487.000
80.57235 463.000
80.59230 486.000
80.61224 477.000
80.63219 480.000
80.65214 499.000
80.67209 438.000
80.69203 505.000
80.71198 498.000
80.73193 454.000
80.75187 480.000
80.77182 450.000
80.79177 481.000
80.81171 469.000
80.83166 454.000
80.85161 482.000
80.87156 470.000
80.89150 486.000
80.91145 481.000
80.93140 458.000
80.95134 462.000
80.97129 483.000
80.99124 466.000
81.01118 470.000
81.03113 466.000
81.05108 470.000
81.07102 497.000
81.09097 499.000
81.11092 454.000
81.13087 454.000
81.15081 456.000
81.17076 452.000
81.19071 424.000
81.21065 464.000
81.23060 468.000
81.25055 462.000
81.27049 457.000
81.29044 452.000
81.31039 478.000
81.33034 452.000
81.35028 515.000
81.37023 499.000
81.39018 438.000
81.41012 455.000
81.43007 415.000
81.45002 468.000
81.46996 480.000
81.48991 469.000
81.50986 498.000
81.52980 423.000
81.54975 447.000
81.56970 462.000
81.58965 455.000
81.60959 490.000
81.62954 447.000
81.64949 456.000
81.66943 469.000
81.68938 446.000
81.70933 474.000
81.72927 457.000
81.74922 474.000
81.76917 430.000
81.78912 490.000
81.80906 465.000
81.82901 474.000
81.84896 483.000
81.86890 461.000
81.88885 495.000
81.90880 439.000
81.92874 465.000
81.94869 475.000
81.96864 424.000
81.98859 468.000
82.00853 490.000
82.02848 451.000
82.04843 454.000
82.06837 486.000
82.08832 463.000
82.10827 495.000
82.12821 476.000
82.14816 465.000
82.16811 452.000
82.18805 480.000
82.20800 489.000
82.22795 492.000
82.24790 464.000
82.26784 510.000
82.28779 499.000
82.30774 516.000
82.32768 518.000
82.34763 501.000
82.36758 525.000
82.38752 559.000
82.40747 519.000
82.42742 539.000
82.44737 562.000
82.46731 583.000
82.48726 615.000
82.50721 599.000
82.52715 576.000
82.54710 575.000
82.56705 588.000
82.58699 581.000
82.60694 582.000
82.62689 536.000
82.64683 587.000
82.66678 586.000
82.68673 632.000
82.70668 576.000
82.72662 567.000
82.74657 554.000
82.76652 619.000
82.78646 629.000
82.80641 552.000
82.82636 581.000
82.84630 597.000
82.86625 631.000
82.88620 614.000
82.90615 569.000
82.92609 577.000
82.94604 580.000
82.96599 583.000
82.98593 584.000
83.00588 567.000
83.02583 578.000
83.04577 560.000
83.06572 594.000
83.08567 529.000
83.10561 552.000
83.12556 594.000
83.14551 526.000
83.16546 503.000
83.18540 565.000
83.20535 543.000
83.22530 510.000
83.24524 534.000
83.26519 492.000
83.28514 527.000
83.30508 514.000
83.32503 543.000
83.34498 494.000
83.36493 494.000
83.38487 532.000
83.40482 530.000
83.42477 507.000
83.44471 534.000
83.46466 529.000
83.48461 550.000
83.50455 505.000
83.52450 560.000
83.54445 544.000
83.56440 521.000
83.58434 527.000
83.60429 558.000
83.62424 516.000
83.64418 549.000
83.66413 524.000
83.68408 569.000
83.70402 527.000
83.72397 500.000
83.74392 544.000
83.76386 495.000
83.78381 529.000
83.80376 509.000
83.82371 527.000
83.84365 523.000
83.86360 539.000
83.88355 562.000
83.90349 517.000
83.92344 518.000
83.94339 514.000
83.96333 494.000
83.98328 477.000
84.00323 522.000
84.02318 483.000
84.04312 524.000
84.06307 471.000
84.08302 478.000
84.10296 469.000
84.12291 515.000
84.14286 480.000
84.16280 486.000
84.18275 459.000
84.20270 481.000
84.22264 459.000
84.24259 496.000
84.26254 516.000
84.28249 477.000
84.30243 452.000
84.32238 471.000
84.34233 456.000
84.36227 495.000
84.38222 462.000
84.40217 472.000
84.42211 509.000
84.44206 519.000
84.46201 466.000
84.48196 469.000
84.50190 473.000
84.52185 492.000
84.54180 485.000
84.56174 467.000
84.58169 510.000
84.60164 497.000
84.62158 515.000
84.64153 464.000
84.66148 493.000
84.68142 492.000
84.70137 490.000
84.72132 489.000
84.74127 512.000
84.76121 508.000
84.78116 501.000
84.80111 472.000
84.82105 466.000
84.84100 470.000
84.86095 494.000
84.88089 467.000
84.90084 447.000
84.92079 466.000
84.94074 478.000
84.96068 476.000
84.98063 506.000
85.00058 458.000
85.02052 476.000
85.04047 476.000
85.06042 465.000
85.08036 473.000
85.10031 487.000
85.12026 444.000
85.14021 455.000
85.16015 473.000
85.18010 462.000
85.20005 433.000
85.21999 465.000
85.23994 451.000
85.25989 461.000
85.27983 465.000
85.29978 450.000
85.31973 466.000
85.33967 459.000
85.35962 470.000
85.37957 445.000
85.39952 471.000
85.41946 489.000
85.43941 460.000
85.45936 399.000
85.47930 467.000
85.49925 451.000
85.51920 505.000
85.53914 468.000
85.55909 480.000
85.57904 474.000
85.59899 460.000
85.61893 455.000
85.63888 428.000
85.65883 452.000
85.67877 500.000
85.69872 451.000
85.71867 490.000
85.73861 441.000
85.75856 462.000
85.77851 458.000
85.79845 455.000
85.81840 470.000
85.83835 467.000
85.85830 484.000
85.87824 475.000
85.89819 447.000
85.91814 442.000
85.93808 460.000
85.95803 428.000
85.97798 455.000
85.99792 456.000
86.01787 496.000
86.03782 511.000
86.05777 482.000
86.07771 438.000
86.09766 464.000
86.11761 475.000
86.13755 466.000
86.15750 472.000
86.17745 470.000
86.19739 481.000
86.21734 461.000
86.23729 477.000
86.25723 486.000
86.27718 461.000
86.29713 463.000
86.31708 444.000
86.33702 455.000
86.35697 463.000
86.37692 440.000
86.39686 444.000
86.41681 480.000
86.43676 455.000
86.45670 463.000
86.47665 465.000
86.49660 467.000
86.51655 548.000
86.53649 469.000
86.55644 485.000
86.57639 426.000
86.59633 490.000
86.61628 484.000
86.63623 476.000
86.65617 491.000
86.67612 496.000
86.69607 489.000
86.71602 492.000
86.73596 489.000
86.75591 511.000
86.77586 523.000
86.79580 495.000
86.81575 521.000
86.83570 481.000
86.85564 477.000
86.87559 505.000
86.89554 472.000
86.91548 525.000
86.93543 488.000
86.95538 463.000
86.97533 509.000
86.99527 497.000
87.01522 497.000
87.03517 500.000
87.05511 564.000
87.07506 505.000
87.09501 502.000
87.11495 465.000
87.13490 492.000
87.15485 483.000
87.17480 479.000
87.19474 487.000
87.21469 496.000
87.23464 506.000
87.25458 487.000
87.27453 500.000
87.29448 500.000
87.31442 481.000
87.33437 511.000
87.35432 502.000
87.37426 514.000
87.39421 528.000
87.41416 517.000
87.43411 478.000
87.45405 490.000
87.47400 495.000
87.49395 516.000
87.51389 492.000
87.53384 506.000
87.55379 497.000
87.57373 477.000
87.59368 512.000
87.61363 501.000
87.63358 478.000
87.65352 486.000
87.67347 447.000
87.69342 488.000
87.71336 445.000
87.73331 461.000
87.75326 500.000
87.77320 547.000
87.79315 505.000
87.81310 489.000
87.83304 486.000
87.85299 473.000
87.87294 494.000
87.89289 449.000
87.91283 440.000
87.93278 481.000
87.95273 517.000
87.97267 484.000
87.99262 457.000
88.01257 458.000
88.03251 461.000
88.05246 513.000
88.07241 456.000
88.09236 472.000
88.11230 460.000
88.13225 474.000
88.15220 458.000
88.17214 438.000
88.19209 456.000
88.21204 487.000
88.23198 495.000
88.25193 426.000
88.27188 453.000
88.29183 477.000
88.31177 453.000
88.33172 484.000
88.35167 454.000
88.37161 454.000
88.39156 477.000
88.41151 424.000
88.43145 510.000
88.45140 448.000
88.47135 456.000
88.49129 482.000
88.51124 475.000
88.53119 464.000
88.55114 496.000
88.57108 465.000
88.59103 454.000
88.61098 450.000
88.63092 460.000
88.65087 435.000
88.67082 446.000
88.69076 460.000
88.71071 480.000
88.73066 481.000
88.75061 468.000
88.77055 465.000
88.79050 453.000
88.81045 536.000
88.83039 414.000
88.85034 463.000
88.87029 467.000
88.89023 490.000
88.91018 462.000
88.93013 492.000
88.95007 484.000
88.97002 509.000
88.98997 481.000
89.00992 496.000
89.02986 460.000
89.04981 479.000
89.06976 449.000
89.08970 452.000
89.10965 492.000
89.12960 448.000
89.14954 477.000
89.16949 474.000
89.18944 498.000
89.20939 502.000
89.22933 479.000
89.24928 474.000
89.26923 477.000
89.28917 510.000
89.30912 476.000
89.32907 515.000
89.34901 504.000
89.36896 528.000
89.38891 491.000
89.40885 543.000
89.42880 529.000
89.44875 499.000
89.46870 529.000
89.48864 544.000
89.50859 514.000
89.52854 505.000
89.54848 513.000
89.56843 520.000
89.58838 539.000
89.60832 528.000
89.62827 503.000
89.64822 528.000
89.66817 552.000
89.68811 586.000
89.70806 562.000
89.72801 554.000
89.74795 550.000
89.76790 575.000
89.78785 551.000
89.80779 567.000
89.82774 542.000
89.84769 544.000
89.86764 561.000
89.88758 578.000
89.90753 543.000
89.92748 571.000
89.94742 591.000
89.96737 548.000
89.98732 533.000
90.00726 550.000
