10.00000 240.000
10.01995 183.000
10.03989 220.000
10.05984 211.000
10.07979 209.000
10.09973 221.000
10.11968 209.000
10.13963 230.000
10.15958 214.000
10.17952 210.000
10.19947 219.000
10.21942 224.000
10.23936 211.000
10.25931 204.000
10.27926 233.000
10.29920 216.000
10.31915 211.000
10.33910 241.000
10.35905 227.000
10.37899 201.000
10.39894 204.000
10.41889 240.000
10.43883 176.000
10.45878 216.000
10.47873 217.000
10.49867 223.000
10.51862 230.000
10.53857 184.000
10.55851 217.000
10.57846 205.000
10.59841 218.000
10.61836 220.000
10.63830 239.000
10.65825 224.000
10.67820 190.000
10.69814 197.000
10.71809 222.000
10.73804 200.000
10.75798 216.000
10.77793 196.000
10.79788 198.000
10.81783 199.000
10.83777 218.000
10.85772 217.000
10.87767 194.000
10.89761 206.000
10.91756 213.000
10.93751 216.000
10.95745 210.000
10.97740 233.000
10.99735 217.000
11.01730 234.000
11.03724 208.000
11.05719 229.000
11.07714 219.000
11.09708 193.000
11.11703 240.000
11.13698 211.000
11.15692 179.000
11.17687 209.000
11.19682 213.000
11.21676 227.000
11.23671 193.000
11.25666 217.000
11.27661 221.000
11.29655 215.000
11.31650 209.000
11.33645 230.000
11.35639 201.000
11.37634 211.000
11.39629 235.000
11.41623 214.000
11.43618 199.000
11.45613 214.000
11.47608 223.000
11.49602 230.000
11.51597 196.000
11.53592 244.000
11.55586 218.000
11.57581 211.000
11.59576 212.000
11.61570 231.000
11.63565 196.000
11.65560 249.000
11.67554 221.000
11.69549 198.000
11.71544 219.000
11.73539 208.000
11.75533 223.000
11.77528 226.000
11.79523 218.000
11.81517 240.000
11.83512 182.000
11.85507 207.000
11.87501 227.000
11.89496 234.000
11.91491 194.000
11.93486 226.000
11.95480 226.000
11.97475 211.000
11.99470 218.000
12.01464 226.000
12.03459 220.000
12.05454 206.000
12.07448 242.000
12.09443 238.000
12.11438 224.000
12.13432 207.000
12.15427 226.000
12.17422 227.000
12.19417 198.000
12.21411 223.000
12.23406 209.000
12.25401 214.000
12.27395 202.000
12.29390 192.000
12.31385 206.000
12.33379 200.000
12.35374 212.000
12.37369 249.000
12.39364 208.000
12.41358 195.000
12.43353 187.000
12.45348 209.000
12.47342 232.000
12.49337 230.000
12.51332 227.000
12.53326 219.000
12.55321 218.000
12.57316 229.000
12.59311 235.000
12.61305 213.000
12.63300 240.000
12.65295 223.000
12.67289 204.000
12.69284 223.000
12.71279 235.000
12.73273 210.000
12.75268 244.000
12.77263 241.000
12.79257 232.000
12.81252 239.000
12.83247 224.000
12.85242 231.000
12.87236 203.000
12.89231 208.000
12.91226 223.000
12.93220 219.000
12.95215 219.000
12.97210 236.000
12.99204 205.000
13.01199 232.000
13.03194 194.000
13.05189 223.000
13.07183 234.000
13.09178 228.000
13.11173 213.000
13.13167 236.000
13.15162 203.000
13.17157 195.000
13.19151 194.000
13.21146 206.000
13.23141 247.000
13.25135 229.000
13.27130 218.000
13.29125 250.000
13.31120 226.000
13.33114 216.000
13.35109 231.000
13.37104 231.000
13.39098 211.000
13.41093 216.000
13.43088 217.000
13.45082 227.000
13.47077 197.000
13.49072 213.000
13.51067 223.000
13.53061 212.000
13.55056 216.000
13.57051 204.000
13.59045 197.000
13.61040 204.000
13.63035 236.000
13.65029 217.000
13.67024 207.000
13.69019 194.000
13.71013 211.000
13.73008 209.000
13.75003 229.000
13.76998 221.000
13.78992 221.000
13.80987 234.000
13.82982 208.000
13.84976 191.000
13.86971 208.000
13.88966 240.000
13.90960 221.000
13.92955 229.000
13.94950 241.000
13.96945 224.000
13.98939 222.000
14.00934 228.000
14.02929 230.000
14.04923 223.000
14.06918 223.000
14.08913 217.000
14.10907 230.000
14.12902 226.000
14.14897 218.000
14.16892 234.000
14.18886 190.000
14.20881 214.000
14.22876 229.000
14.24870 196.000
14.26865 220.000
14.28860 211.000
14.30854 226.000
14.32849 239.000
14.34844 204.000
14.36838 239.000
14.38833 230.000
14.40828 224.000
14.42823 198.000
14.44817 223.000
14.46812 212.000
14.48807 252.000
14.50801 232.000
14.52796 214.000
14.54791 234.000
14.56785 221.000
14.58780 226.000
14.60775 217.000
14.62770 264.000
14.64764 206.000
14.66759 207.000
14.68754 233.000
14.70748 231.000
14.72743 203.000
14.74738 237.000
14.76732 204.000
14.78727 229.000
14.80722 205.000
14.82716 217.000
14.84711 222.000
14.86706 230.000
14.88701 226.000
14.90695 225.000
14.92690 218.000
14.94685 228.000
14.96679 228.000
14.98674 214.000
15.00669 254.000
15.02663 215.000
15.04658 222.000
15.06653 237.000
15.08648 199.000
15.10642 226.000
15.12637 233.000
15.14632 230.000
15.16626 241.000
15.18621 205.000
15.20616 223.000
15.22610 207.000
15.24605 220.000
15.26600 204.000
15.28594 221.000
15.30589 232.000
15.32584 226.000
15.34579 188.000
15.36573 244.000
15.38568 236.000
15.40563 224.000
15.42557 207.000
15.44552 185.000
15.46547 207.000
15.48541 218.000
15.50536 236.000
15.52531 203.000
15.54526 234.000
15.56520 218.000
15.58515 241.000
15.60510 257.000
15.62504 241.000
15.64499 229.000
15.66494 252.000
15.68488 245.000
15.70483 228.000
15.72478 251.000
15.74472 269.000
15.76467 265.000
15.78462 253.000
15.80457 241.000
15.82451 274.000
15.84446 306.000
15.86441 314.000
15.88435 346.000
15.90430 424.000
15.92425 396.000
15.94419 430.000
15.96414 430.000
15.98409 380.000
16.00404 333.000
16.02398 316.000
16.04393 297.000
16.06388 322.000
16.08382 297.000
16.10377 324.000
16.12372 307.000
16.14366 350.000
16.16361 371.000
16.18356 376.000
16.20351 403.000
16.22345 400.000
16.24340 446.000
16.26335 451.000
16.28329 564.000
16.30324 554.000
16.32319 619.000
16.34313 707.000
16.36308 832.000
16.38303 926.000
16.40297 1128.000
16.42292 1453.000
16.44287 1730.000
16.46282 2098.000
16.48276 2185.000
16.50271 2126.000
16.52266 2137.000
16.54260 1963.000
16.56255 1629.000
16.58250 1270.000
16.60244 945.000
16.62239 635.000
16.64234 501.000
16.66229 433.000
16.68223 380.000
16.70218 355.000
16.72213 298.000
16.74207 295.000
16.76202 288.000
16.78197 282.000
16.80191 275.000
16.82186 297.000
16.84181 286.000
16.86175 301.000
16.88170 274.000
16.90165 274.000
16.92160 273.000
16.94154 288.000
16.96149 260.000
16.98144 262.000
17.00138 255.000
17.02133 265.000
17.04128 274.000
17.06122 262.000
17.08117 261.000
17.10112 247.000
17.12107 224.000
17.14101 228.000
17.16096 227.000
17.18091 237.000
17.20085 244.000
17.22080 232.000
17.24075 230.000
17.26069 221.000
17.28064 237.000
17.30059 248.000
17.32053 241.000
17.34048 259.000
17.36043 233.000
17.38038 239.000
17.40032 245.000
17.42027 230.000
17.44022 224.000
17.46016 230.000
17.48011 264.000
17.50006 264.000
17.52000 200.000
17.53995 217.000
17.55990 247.000
17.57985 221.000
17.59979 209.000
17.61974 216.000
17.63969 211.000
17.65963 251.000
17.67958 218.000
17.69953 201.000
17.71947 222.000
17.73942 204.000
17.75937 210.000
17.77932 196.000
17.79926 213.000
17.81921 221.000
17.83916 234.000
17.85910 205.000
17.87905 203.000
17.89900 231.000
17.91894 236.000
17.93889 216.000
17.95884 205.000
17.97878 225.000
17.99873 224.000
18.01868 252.000
18.03863 253.000
18.05857 220.000
18.07852 249.000
18.09847 216.000
18.11841 239.000
18.13836 209.000
18.15831 220.000
18.17825 219.000
18.19820 222.000
18.21815 212.000
18.23810 248.000
18.25804 217.000
18.27799 236.000
18.29794 221.000
18.31788 227.000
18.33783 214.000
18.35778 243.000
18.37772 220.000
18.39767 225.000
18.41762 236.000
18.43756 232.000
18.45751 208.000
18.47746 212.000
18.49741 233.000
18.51735 223.000
18.53730 226.000
18.55725 224.000
18.57719 238.000
18.59714 205.000
18.61709 185.000
18.63703 215.000
18.65698 216.000
18.67693 215.000
18.69688 224.000
18.71682 217.000
18.73677 228.000
18.75672 208.000
18.77666 219.000
18.79661 219.000
18.81656 220.000
18.83650 247.000
18.85645 205.000
18.87640 210.000
18.89634 226.000
18.91629 214.000
18.93624 215.000
18.95619 235.000
18.97613 239.000
18.99608 220.000
19.01603 231.000
19.03597 218.000
19.05592 201.000
19.07587 221.000
19.09581 188.000
19.11576 208.000
19.13571 236.000
19.15566 222.000
19.17560 209.000
19.19555 210.000
19.21550 219.000
19.23544 181.000
19.25539 247.000
19.27534 244.000
19.29528 202.000
19.31523 228.000
19.33518 220.000
19.35513 237.000
19.37507 216.000
19.39502 220.000
19.41497 229.000
19.43491 254.000
19.45486 209.000
19.47481 239.000
19.49475 215.000
19.51470 253.000
19.53465 216.000
19.55459 233.000
19.57454 205.000
19.59449 198.000
19.61444 229.000
19.63438 226.000
19.65433 215.000
19.67428 209.000
19.69422 205.000
19.71417 217.000
19.73412 214.000
19.75406 244.000
19.77401 232.000
19.79396 213.000
19.81391 190.000
19.83385 229.000
19.85380 231.000
19.87375 208.000
19.89369 203.000
19.91364 187.000
19.93359 227.000
19.95353 223.000
19.97348 209.000
19.99343 218.000
20.01337 221.000
20.03332 234.000
20.05327 235.000
20.07322 221.000
20.09316 234.000
20.11311 230.000
20.13306 225.000
20.15300 221.000
20.17295 215.000
20.19290 216.000
20.21284 238.000
20.23279 217.000
20.25274 220.000
20.27269 223.000
20.29263 210.000
20.31258 210.000
20.33253 228.000
20.35247 209.000
20.37242 242.000
20.39237 236.000
20.41231 219.000
20.43226 229.000
20.45221 233.000
20.47215 253.000
20.49210 239.000
20.51205 230.000
20.53200 245.000
20.55194 267.000
20.57189 280.000
20.59184 254.000
20.61178 247.000
20.63173 286.000
20.65168 282.000
20.67162 280.000
20.69157 262.000
20.71152 329.000
20.73147 329.000
20.75141 332.000
20.77136 357.000
20.79131 384.000
20.81125 453.000
20.83120 484.000
20.85115 517.000
20.87109 435.000
20.89104 417.000
20.91099 407.000
20.93094 376.000
20.95088 355.000
20.97083 312.000
20.99078 312.000
21.01072 312.000
21.03067 316.000
21.05062 296.000
21.07056 285.000
21.09051 255.000
21.11046 257.000
21.13040 239.000
21.15035 262.000
21.17030 264.000
21.19025 248.000
21.21019 258.000
21.23014 237.000
21.25009 228.000
21.27003 228.000
21.28998 209.000
21.30993 248.000
21.32987 240.000
21.34982 211.000
21.36977 231.000
21.38972 218.000
21.40966 210.000
21.42961 209.000
21.44956 207.000
21.46950 207.000
21.48945 247.000
21.50940 222.000
21.52934 236.000
21.54929 233.000
21.56924 228.000
21.58918 218.000
21.60913 228.000
21.62908 225.000
21.64903 212.000
21.66897 200.000
21.68892 230.000
21.70887 198.000
21.72881 210.000
21.74876 226.000
21.76871 236.000
21.78865 252.000
21.80860 222.000
21.82855 230.000
21.84850 225.000
21.86844 204.000
21.88839 233.000
21.90834 211.000
21.92828 232.000
21.94823 220.000
21.96818 222.000
21.98812 213.000
22.00807 223.000
22.02802 240.000
22.04796 232.000
22.06791 201.000
22.08786 229.000
22.10781 219.000
22.12775 239.000
22.14770 228.000
22.16765 228.000
22.18759 197.000
22.20754 227.000
22.22749 223.000
22.24743 229.000
22.26738 230.000
22.28733 243.000
22.30728 244.000
22.32722 209.000
22.34717 207.000
22.36712 223.000
22.38706 244.000
22.40701 229.000
22.42696 205.000
22.44690 212.000
22.46685 222.000
22.48680 203.000
22.50675 224.000
22.52669 213.000
22.54664 174.000
22.56659 243.000
22.58653 240.000
22.60648 235.000
22.62643 188.000
22.64637 198.000
22.66632 219.000
22.68627 192.000
22.70621 196.000
22.72616 213.000
22.74611 225.000
22.76606 212.000
22.78600 229.000
22.80595 209.000
22.82590 236.000
22.84584 199.000
22.86579 243.000
22.88574 208.000
22.90568 227.000
22.92563 222.000
22.94558 218.000
22.96553 222.000
22.98547 245.000
23.00542 212.000
23.02537 240.000
23.04531 204.000
23.06526 233.000
23.08521 211.000
23.10515 249.000
23.12510 223.000
23.14505 236.000
23.16499 215.000
23.18494 265.000
23.20489 228.000
23.22484 191.000
23.24478 194.000
23.26473 236.000
23.28468 233.000
23.30462 243.000
23.32457 225.000
23.34452 223.000
23.36446 204.000
23.38441 207.000
23.40436 239.000
23.42431 234.000
23.44425 219.000
23.46420 214.000
23.48415 213.000
23.50409 213.000
23.52404 240.000
23.54399 215.000
23.56393 221.000
23.58388 206.000
23.60383 208.000
23.62377 205.000
23.64372 237.000
23.66367 206.000
23.68362 239.000
23.70356 200.000
23.72351 212.000
23.74346 223.000
23.76340 226.000
23.78335 212.000
23.80330 222.000
23.82324 233.000
23.84319 235.000
23.86314 222.000
23.88309 239.000
23.90303 228.000
23.92298 205.000
23.94293 253.000
23.96287 217.000
23.98282 205.000
24.00277 210.000
24.02271 234.000
24.04266 230.000
24.06261 223.000
24.08256 223.000
24.10250 213.000
24.12245 194.000
24.14240 235.000
24.16234 232.000
24.18229 211.000
24.20224 209.000
24.22218 237.000
24.24213 218.000
24.26208 242.000
24.28202 224.000
24.30197 217.000
24.32192 233.000
24.34187 232.000
24.36181 189.000
24.38176 188.000
24.40171 234.000
24.42165 222.000
24.44160 245.000
24.46155 222.000
24.48149 228.000
24.50144 200.000
24.52139 260.000
24.54134 219.000
24.56128 240.000
24.58123 242.000
24.60118 230.000
24.62112 227.000
24.64107 214.000
24.66102 226.000
24.68096 223.000
24.70091 228.000
24.72086 237.000
24.74080 230.000
24.76075 227.000
24.78070 207.000
24.80065 259.000
24.82059 249.000
24.84054 247.000
24.86049 222.000
24.88043 235.000
24.90038 228.000
24.92033 254.000
24.94027 263.000
24.96022 218.000
24.98017 243.000
25.00012 244.000
25.02006 241.000
25.04001 231.000
25.05996 248.000
25.07990 232.000
25.09985 274.000
25.11980 236.000
25.13974 221.000
25.15969 223.000
25.17964 229.000
25.19958 221.000
25.21953 216.000
25.23948 211.000
25.25943 228.000
25.27937 246.000
25.29932 231.000
25.31927 222.000
25.33921 238.000
25.35916 243.000
25.37911 211.000
25.39905 229.000
25.41900 253.000
25.43895 204.000
25.45890 241.000
25.47884 222.000
25.49879 235.000
25.51874 247.000
25.53868 258.000
25.55863 238.000
25.57858 253.000
25.59852 206.000
25.61847 234.000
25.63842 215.000
25.65837 236.000
25.67831 252.000
25.69826 230.000
25.71821 235.000
25.73815 227.000
25.75810 216.000
25.77805 228.000
25.79799 227.000
25.81794 240.000
25.83789 218.000
25.85783 230.000
25.87778 222.000
25.89773 215.000
25.91768 222.000
25.93762 230.000
25.95757 228.000
25.97752 218.000
25.99746 238.000
26.01741 232.000
26.03736 246.000
26.05730 256.000
26.07725 226.000
26.09720 239.000
26.11715 225.000
26.13709 220.000
26.15704 229.000
26.17699 232.000
26.19693 230.000
26.21688 227.000
26.23683 243.000
26.25677 226.000
26.27672 225.000
26.29667 247.000
26.31661 259.000
26.33656 221.000
26.35651 221.000
26.37646 241.000
26.39640 223.000
26.41635 215.000
26.43630 216.000
26.45624 214.000
26.47619 243.000
26.49614 230.000
26.51608 224.000
26.53603 207.000
26.55598 231.000
26.57593 260.000
26.59587 250.000
26.61582 222.000
26.63577 217.000
26.65571 241.000
26.67566 244.000
26.69561 203.000
26.71555 212.000
26.73550 227.000
26.75545 204.000
26.77539 216.000
26.79534 231.000
26.81529 227.000
26.83524 215.000
26.85518 243.000
26.87513 270.000
26.89508 220.000
26.91502 257.000
26.93497 217.000
26.95492 232.000
26.97486 216.000
26.99481 253.000
27.01476 225.000
27.03471 242.000
27.05465 247.000
27.07460 224.000
27.09455 224.000
27.11449 250.000
27.13444 246.000
27.15439 226.000
27.17433 265.000
27.19428 246.000
27.21423 225.000
27.23417 230.000
27.25412 238.000
27.27407 240.000
27.29402 216.000
27.31396 228.000
27.33391 255.000
27.35386 214.000
27.37380 222.000
27.39375 223.000
27.41370 223.000
27.43364 214.000
27.45359 256.000
27.47354 206.000
27.49349 227.000
27.51343 229.000
27.53338 219.000
27.55333 218.000
27.57327 227.000
27.59322 224.000
27.61317 228.000
27.63311 257.000
27.65306 251.000
27.67301 245.000
27.69296 230.000
27.71290 230.000
27.73285 214.000
27.75280 261.000
27.77274 213.000
27.79269 251.000
27.81264 229.000
27.83258 231.000
27.85253 243.000
27.87248 216.000
27.89242 243.000
27.91237 234.000
27.93232 218.000
27.95227 222.000
27.97221 235.000
27.99216 213.000
28.01211 219.000
28.03205 233.000
28.05200 259.000
28.07195 214.000
28.09189 216.000
28.11184 212.000
28.13179 210.000
28.15174 240.000
28.17168 249.000
28.19163 221.000
28.21158 218.000
28.23152 223.000
28.25147 229.000
28.27142 231.000
28.29136 243.000
28.31131 238.000
28.33126 236.000
28.35120 221.000
28.37115 239.000
28.39110 234.000
28.41105 228.000
28.43099 245.000
28.45094 238.000
28.47089 245.000
28.49083 204.000
28.51078 204.000
28.53073 256.000
28.55067 245.000
28.57062 229.000
28.59057 216.000
28.61052 225.000
28.63046 216.000
28.65041 242.000
28.67036 244.000
28.69030 237.000
28.71025 226.000
28.73020 225.000
28.75014 246.000
28.77009 218.000
28.79004 242.000
28.80998 235.000
28.82993 213.000
28.84988 257.000
28.86983 243.000
28.88977 220.000
28.90972 223.000
28.92967 253.000
28.94961 234.000
28.96956 234.000
28.98951 230.000
29.00945 237.000
29.02940 236.000
29.04935 240.000
29.06930 209.000
29.08924 248.000
29.10919 256.000
29.12914 253.000
29.14908 240.000
29.16903 224.000
29.18898 249.000
29.20892 253.000
29.22887 239.000
29.24882 240.000
29.26877 255.000
29.28871 226.000
29.30866 248.000
29.32861 270.000
29.34855 301.000
29.36850 283.000
29.38845 281.000
29.40839 284.000
29.42834 284.000
29.44829 273.000
29.46823 289.000
29.48818 262.000
29.50813 238.000
29.52808 268.000
29.54802 261.000
29.56797 273.000
29.58792 262.000
29.60786 237.000
29.62781 253.000
29.64776 236.000
29.66770 255.000
29.68765 247.000
29.70760 262.000
29.72755 243.000
29.74749 235.000
29.76744 245.000
29.78739 256.000
29.80733 254.000
29.82728 236.000
29.84723 248.000
29.86717 251.000
29.88712 241.000
29.90707 219.000
29.92701 246.000
29.94696 236.000
29.96691 218.000
29.98686 264.000
30.00680 267.000
30.02675 224.000
30.04670 251.000
30.06664 226.000
30.08659 258.000
30.10654 252.000
30.12648 287.000
30.14643 228.000
30.16638 273.000
30.18633 265.000
30.20627 279.000
30.22622 298.000
30.24617 295.000
30.26611 327.000
30.28606 298.000
30.30601 292.000
30.32595 274.000
30.34590 265.000
30.36585 272.000
30.38579 232.000
30.40574 258.000
30.42569 236.000
30.44564 212.000
30.46558 264.000
30.48553 217.000
30.50548 239.000
30.52542 254.000
30.54537 265.000
30.56532 201.000
30.58526 251.000
30.60521 229.000
30.62516 245.000
30.64511 275.000
30.66505 245.000
30.68500 232.000
30.70495 256.000
30.72489 228.000
30.74484 234.000
30.76479 237.000
30.78473 258.000
30.80468 230.000
30.82463 228.000
30.84458 239.000
30.86452 281.000
30.88447 207.000
30.90442 262.000
30.92436 242.000
30.94431 253.000
30.96426 239.000
30.98420 230.000
31.00415 254.000
31.02410 248.000
31.04404 262.000
31.06399 248.000
31.08394 243.000
31.10389 224.000
31.12383 240.000
31.14378 225.000
31.16373 246.000
31.18367 242.000
31.20362 243.000
31.22357 235.000
31.24351 238.000
31.26346 241.000
31.28341 238.000
31.30336 221.000
31.32330 242.000
31.34325 245.000
31.36320 252.000
31.38314 253.000
31.40309 224.000
31.42304 234.000
31.44298 235.000
31.46293 223.000
31.48288 228.000
31.50282 265.000
31.52277 245.000
31.54272 222.000
31.56267 258.000
31.58261 234.000
31.60256 225.000
31.62251 223.000
31.64245 227.000
31.66240 252.000
31.68235 251.000
31.70229 246.000
31.72224 240.000
31.74219 218.000
31.76214 217.000
31.78208 257.000
31.80203 259.000
31.82198 215.000
31.84192 236.000
31.86187 245.000
31.88182 246.000
31.90176 241.000
31.92171 237.000
31.94166 245.000
31.96160 250.000
31.98155 274.000
32.00150 234.000
32.02145 266.000
32.04139 248.000
32.06134 250.000
32.08129 250.000
32.10123 265.000
32.12118 240.000
32.14113 292.000
32.16107 269.000
32.18102 261.000
32.20097 244.000
32.22092 268.000
32.24086 252.000
32.26081 262.000
32.28076 216.000
32.30070 253.000
32.32065 274.000
32.34060 255.000
32.36054 239.000
32.38049 261.000
32.40044 286.000
32.42039 280.000
32.44033 294.000
32.46028 323.000
32.48023 367.000
32.50017 394.000
32.52012 383.000
32.54007 376.000
32.56001 374.000
32.57996 394.000
32.59991 347.000
32.61985 348.000
32.63980 322.000
32.65975 265.000
32.67970 284.000
32.69964 286.000
32.71959 242.000
32.73954 240.000
32.75948 254.000
32.77943 247.000
32.79938 266.000
32.81932 258.000
32.83927 263.000
32.85922 265.000
32.87917 254.000
32.89911 288.000
32.91906 250.000
32.93901 261.000
32.95895 283.000
32.97890 271.000
32.99885 288.000
33.01879 298.000
33.03874 293.000
33.05869 299.000
33.07863 293.000
33.09858 294.000
33.11853 325.000
33.13848 327.000
33.15842 341.000
33.17837 333.000
33.19832 394.000
33.21826 406.000
33.23821 447.000
33.25816 439.000
33.27810 448.000
33.29805 451.000
33.31800 427.000
33.33795 479.000
33.35789 472.000
33.37784 490.000
33.39779 504.000
33.41773 489.000
33.43768 461.000
33.45763 440.000
33.47757 363.000
33.49752 390.000
33.51747 357.000
33.53741 306.000
33.55736 307.000
33.57731 293.000
33.59726 272.000
33.61720 301.000
33.63715 248.000
33.65710 240.000
33.67704 243.000
33.69699 287.000
33.71694 292.000
33.73688 259.000
33.75683 272.000
33.77678 267.000
33.79673 247.000
33.81667 256.000
33.83662 283.000
33.85657 259.000
33.87651 255.000
33.89646 269.000
33.91641 256.000
33.93635 276.000
33.95630 276.000
33.97625 277.000
33.99620 287.000
34.01614 290.000
34.03609 285.000
34.05604 296.000
34.07598 298.000
34.09593 302.000
34.11588 308.000
34.13582 324.000
34.15577 324.000
34.17572 334.000
34.19566 387.000
34.21561 376.000
34.23556 365.000
34.25551 452.000
34.27545 434.000
34.29540 459.000
34.31535 507.000
34.33529 502.000
34.35524 478.000
34.37519 477.000
34.39513 512.000
34.41508 469.000
34.43503 452.000
34.45498 441.000
34.47492 415.000
34.49487 405.000
34.51482 432.000
34.53476 379.000
34.55471 399.000
34.57466 356.000
34.59460 348.000
34.61455 326.000
34.63450 347.000
34.65444 303.000
34.67439 307.000
34.69434 322.000
34.71429 304.000
34.73423 309.000
34.75418 318.000
34.77413 355.000
34.79407 324.000
34.81402 348.000
34.83397 349.000
34.85391 344.000
34.87386 346.000
34.89381 328.000
34.91376 371.000
34.93370 430.000
34.95365 455.000
34.97360 476.000
34.99354 481.000
35.01349 494.000
35.03344 539.000
35.05338 562.000
35.07333 550.000
35.09328 582.000
35.11322 579.000
35.13317 579.000
35.15312 544.000
35.17307 511.000
35.19301 534.000
35.21296 467.000
35.23291 489.000
35.25285 449.000
35.27280 463.000
35.29275 445.000
35.31269 477.000
35.33264 527.000
35.35259 526.000
35.37254 558.000
35.39248 694.000
35.41243 825.000
35.43238 966.000
35.45232 1171.000
35.47227 1284.000
35.49222 1354.000
35.51216 1455.000
35.53211 1779.000
35.55206 2051.000
35.57201 2091.000
35.59195 1963.000
35.61190 1787.000
35.63185 1634.000
35.65179 1676.000
35.67174 1433.000
35.69169 1201.000
35.71163 974.000
35.73158 820.000
35.75153 730.000
35.77147 629.000
35.79142 562.000
35.81137 483.000
35.83132 418.000
35.85126 421.000
35.87121 369.000
35.89116 385.000
35.91110 364.000
35.93105 343.000
35.95100 311.000
35.97094 367.000
35.99089 331.000
36.01084 313.000
36.03079 325.000
36.05073 343.000
36.07068 314.000
36.09063 341.000
36.11057 288.000
36.13052 302.000
36.15047 308.000
36.17041 334.000
36.19036 361.000
36.21031 364.000
36.23025 313.000
36.25020 392.000
36.27015 473.000
36.29010 490.000
36.31004 551.000
36.32999 662.000
36.34994 716.000
36.36988 769.000
36.38983 793.000
36.40978 803.000
36.42972 844.000
36.44967 735.000
36.46962 794.000
36.48957 710.000
36.50951 688.000
36.52946 599.000
36.54941 514.000
36.56935 497.000
36.58930 478.000
36.60925 407.000
36.62919 390.000
36.64914 362.000
36.66909 315.000
36.68903 322.000
36.70898 369.000
36.72893 332.000
36.74888 332.000
36.76882 335.000
36.78877 338.000
36.80872 335.000
36.82866 328.000
36.84861 316.000
36.86856 346.000
36.88850 327.000
36.90845 323.000
36.92840 343.000
36.94835 350.000
36.96829 345.000
36.98824 363.000
37.00819 366.000
37.02813 385.000
37.04808 337.000
37.06803 365.000
37.08797 370.000
37.10792 351.000
37.12787 381.000
37.14781 374.000
37.16776 361.000
37.18771 349.000
37.20766 338.000
37.22760 354.000
37.24755 324.000
37.26750 321.000
37.28744 331.000
37.30739 330.000
37.32734 294.000
37.34728 319.000
37.36723 289.000
37.38718 272.000
37.40713 287.000
37.42707 292.000
37.44702 265.000
37.46697 243.000
37.48691 243.000
37.50686 289.000
37.52681 239.000
37.54675 261.000
37.56670 255.000
37.58665 246.000
37.60660 270.000
37.62654 238.000
37.64649 258.000
37.66644 247.000
37.68638 257.000
37.70633 258.000
37.72628 285.000
37.74622 264.000
37.76617 259.000
37.78612 267.000
37.80606 284.000
37.82601 267.000
37.84596 267.000
37.86591 289.000
37.88585 262.000
37.90580 269.000
37.92575 257.000
37.94569 262.000
37.96564 302.000
37.98559 252.000
38.00553 291.000
38.02548 294.000
38.04543 259.000
38.06538 259.000
38.08532 287.000
38.10527 290.000
38.12522 276.000
38.14516 292.000
38.16511 310.000
38.18506 319.000
38.20500 280.000
38.22495 292.000
38.24490 328.000
38.26484 313.000
38.28479 311.000
38.30474 354.000
38.32469 337.000
38.34463 356.000
38.36458 341.000
38.38453 325.000
38.40447 368.000
38.42442 365.000
38.44437 371.000
38.46431 421.000
38.48426 441.000
38.50421 476.000
38.52416 538.000
38.54410 547.000
38.56405 578.000
38.58400 632.000
38.60394 855.000
38.62389 915.000
38.64384 1173.000
38.66378 1395.000
38.68373 1746.000
38.70368 1834.000
38.72362 1844.000
38.74357 1766.000
38.76352 1659.000
38.78347 1601.000
38.80341 1427.000
38.82336 1331.000
38.84331 1189.000
38.86325 1028.000
38.88320 882.000
38.90315 792.000
38.92309 708.000
38.94304 756.000
38.96299 679.000
38.98294 668.000
39.00288 721.000
39.02283 702.000
39.04278 657.000
39.06272 661.000
39.08267 587.000
39.10262 530.000
39.12256 519.000
39.14251 461.000
39.16246 458.000
39.18241 406.000
39.20235 356.000
39.22230 363.000
39.24225 323.000
39.26219 317.000
39.28214 290.000
39.30209 333.000
39.32203 322.000
39.34198 298.000
39.36193 290.000
39.38187 319.000
39.40182 283.000
39.42177 286.000
39.44172 251.000
39.46166 256.000
39.48161 265.000
39.50156 275.000
39.52150 273.000
39.54145 257.000
39.56140 255.000
39.58134 282.000
39.60129 270.000
39.62124 290.000
39.64119 257.000
39.66113 294.000
39.68108 260.000
39.70103 275.000
39.72097 239.000
39.74092 268.000
39.76087 255.000
39.78081 267.000
39.80076 218.000
39.82071 266.000
39.84065 252.000
39.86060 259.000
39.88055 248.000
39.90050 262.000
39.92044 254.000
39.94039 235.000
39.96034 256.000
39.98028 275.000
40.00023 245.000
40.02018 243.000
40.04012 251.000
40.06007 263.000
40.08002 255.000
40.09997 277.000
40.11991 250.000
40.13986 252.000
40.15981 240.000
40.17975 263.000
40.19970 241.000
40.21965 253.000
40.23959 261.000
40.25954 261.000
40.27949 257.000
40.29943 266.000
40.31938 271.000
40.33933 243.000
40.35928 242.000
40.37922 238.000
40.39917 251.000
40.41912 258.000
40.43906 257.000
40.45901 280.000
40.47896 242.000
40.49890 248.000
40.51885 244.000
40.53880 249.000
40.55875 278.000
40.57869 252.000
40.59864 244.000
40.61859 271.000
40.63853 251.000
40.65848 269.000
40.67843 291.000
40.69837 249.000
40.71832 282.000
40.73827 266.000
40.75822 245.000
40.77816 249.000
40.79811 254.000
40.81806 245.000
40.83800 285.000
40.85795 264.000
40.87790 236.000
40.89784 236.000
40.91779 295.000
40.93774 274.000
40.95768 294.000
40.97763 271.000
40.99758 263.000
41.01753 303.000
41.03747 300.000
41.05742 331.000
41.07737 309.000
41.09731 358.000
41.11726 356.000
41.13721 351.000
41.15715 366.000
41.17710 403.000
41.19705 441.000
41.21700 462.000
41.23694 509.000
41.25689 592.000
41.27684 768.000
41.29678 888.000
41.31673 1235.000
41.33668 1641.000
41.35662 1963.000
41.37657 2476.000
41.39652 2720.000
41.41646 2599.000
41.43641 2511.000
41.45636 2260.000
41.47631 2119.000
41.49625 1988.000
41.51620 1799.000
41.53615 1520.000
41.55609 1335.000
41.57604 1069.000
41.59599 940.000
41.61593 737.000
41.63588 697.000
41.65583 606.000
41.67578 537.000
41.69572 486.000
41.71567 492.000
41.73562 454.000
41.75556 392.000
41.77551 383.000
41.79546 367.000
41.81540 346.000
41.83535 333.000
41.85530 328.000
41.87524 328.000
41.89519 300.000
41.91514 295.000
41.93509 300.000
41.95503 336.000
41.97498 299.000
41.99493 306.000
42.01487 274.000
42.03482 272.000
42.05477 272.000
42.07471 276.000
42.09466 261.000
42.11461 296.000
42.13456 270.000
42.15450 267.000
42.17445 266.000
42.19440 254.000
42.21434 284.000
42.23429 269.000
42.25424 280.000
42.27418 265.000
42.29413 253.000
42.31408 249.000
42.33403 261.000
42.35397 270.000
42.37392 287.000
42.39387 246.000
42.41381 279.000
42.43376 276.000
42.45371 287.000
42.47365 286.000
42.49360 291.000
42.51355 265.000
42.53349 285.000
42.55344 278.000
42.57339 267.000
42.59334 295.000
42.61328 281.000
42.63323 253.000
42.65318 289.000
42.67312 283.000
42.69307 299.000
42.71302 231.000
42.73296 291.000
42.75291 272.000
42.77286 268.000
42.79281 278.000
42.81275 275.000
42.83270 292.000
42.85265 313.000
42.87259 302.000
42.89254 324.000
42.91249 281.000
42.93243 292.000
42.95238 289.000
42.97233 306.000
42.99227 347.000
43.01222 306.000
43.03217 312.000
43.05212 331.000
43.07206 351.000
43.09201 354.000
43.11196 331.000
43.13190 377.000
43.15185 352.000
43.17180 339.000
43.19174 348.000
43.21169 360.000
43.23164 332.000
43.25159 337.000
43.27153 358.000
43.29148 380.000
43.31143 352.000
43.33137 317.000
43.35132 352.000
43.37127 339.000
43.39121 327.000
43.41116 323.000
43.43111 289.000
43.45105 281.000
43.47100 268.000
43.49095 272.000
43.51090 272.000
43.53084 265.000
43.55079 248.000
43.57074 263.000
43.59068 254.000
43.61063 282.000
43.63058 250.000
43.65052 269.000
43.67047 270.000
43.69042 260.000
43.71037 254.000
43.73031 231.000
43.75026 236.000
43.77021 258.000
43.79015 240.000
43.81010 244.000
43.83005 245.000
43.84999 229.000
43.86994 237.000
43.88989 246.000
43.90984 229.000
43.92978 244.000
43.94973 249.000
43.96968 246.000
43.98962 235.000
44.00957 248.000
44.02952 245.000
44.04946 222.000
44.06941 243.000
44.08936 248.000
44.10930 227.000
44.12925 244.000
44.14920 230.000
44.16915 256.000
44.18909 215.000
44.20904 250.000
44.22899 219.000
44.24893 262.000
44.26888 246.000
44.28883 237.000
44.30877 223.000
44.32872 267.000
44.34867 225.000
44.36862 238.000
44.38856 262.000
44.40851 239.000
44.42846 241.000
44.44840 243.000
44.46835 248.000
44.48830 232.000
44.50824 244.000
44.52819 244.000
44.54814 232.000
44.56808 212.000
44.58803 238.000
44.60798 233.000
44.62793 267.000
44.64787 240.000
44.66782 251.000
44.68777 237.000
44.70771 236.000
44.72766 214.000
44.74761 256.000
44.76755 245.000
44.78750 252.000
44.80745 271.000
44.82740 271.000
44.84734 288.000
44.86729 252.000
44.88724 274.000
44.90718 272.000
44.92713 294.000
44.94708 277.000
44.96702 268.000
44.98697 269.000
45.00692 276.000
45.02686 255.000
45.04681 237.000
45.06676 253.000
45.08671 237.000
45.10665 258.000
45.12660 244.000
45.14655 209.000
45.16649 208.000
45.18644 220.000
45.20639 236.000
45.22633 238.000
45.24628 209.000
45.26623 240.000
45.28618 225.000
45.30612 243.000
45.32607 230.000
45.34602 255.000
45.36596 247.000
45.38591 238.000
45.40586 248.000
45.42580 226.000
45.44575 255.000
45.46570 243.000
45.48565 252.000
45.50559 241.000
45.52554 235.000
45.54549 231.000
45.56543 241.000
45.58538 224.000
45.60533 267.000
45.62527 243.000
45.64522 225.000
45.66517 195.000
45.68511 230.000
45.70506 254.000
45.72501 218.000
45.74496 242.000
45.76490 223.000
45.78485 237.000
45.80480 222.000
45.82474 241.000
45.84469 232.000
45.86464 222.000
45.88458 238.000
45.90453 234.000
45.92448 234.000
45.94443 220.000
45.96437 248.000
45.98432 252.000
46.00427 246.000
46.02421 224.000
46.04416 240.000
46.06411 262.000
46.08405 205.000
46.10400 241.000
46.12395 223.000
46.14389 232.000
46.16384 246.000
46.18379 225.000
46.20374 229.000
46.22368 228.000
46.24363 281.000
46.26358 251.000
46.28352 300.000
46.30347 298.000
46.32342 271.000
46.34336 260.000
46.36331 252.000
46.38326 230.000
46.40321 265.000
46.42315 303.000
46.44310 268.000
46.46305 247.000
46.48299 250.000
46.50294 238.000
46.52289 222.000
46.54283 248.000
46.56278 239.000
46.58273 234.000
46.60267 251.000
46.62262 245.000
46.64257 250.000
46.66252 247.000
46.68246 235.000
46.70241 230.000
46.72236 223.000
46.74230 230.000
46.76225 271.000
46.78220 220.000
46.80214 228.000
46.82209 234.000
46.84204 244.000
46.86199 223.000
46.88193 224.000
46.90188 226.000
46.92183 230.000
46.94177 232.000
46.96172 234.000
46.98167 244.000
47.00161 251.000
47.02156 263.000
47.04151 239.000
47.06146 247.000
47.08140 230.000
47.10135 220.000
47.12130 227.000
47.14124 239.000
47.16119 255.000
47.18114 214.000
47.20108 247.000
47.22103 217.000
47.24098 212.000
47.26092 225.000
47.28087 231.000
47.30082 213.000
47.32077 226.000
47.34071 259.000
47.36066 246.000
47.38061 240.000
47.40055 238.000
47.42050 231.000
47.44045 242.000
47.46039 230.000
47.48034 235.000
47.50029 239.000
47.52024 228.000
47.54018 243.000
47.56013 204.000
47.58008 272.000
47.60002 229.000
47.61997 243.000
47.63992 227.000
47.65986 250.000
47.67981 248.000
47.69976 214.000
47.71970 213.000
47.73965 219.000
47.75960 208.000
47.77955 247.000
47.79949 228.000
47.81944 254.000
47.83939 255.000
47.85933 225.000
47.87928 246.000
47.89923 237.000
47.91917 259.000
47.93912 255.000
47.95907 234.000
47.97902 236.000
47.99896 241.000
48.01891 249.000
48.03886 222.000
48.05880 272.000
48.07875 217.000
48.09870 237.000
48.11864 227.000
48.13859 247.000
48.15854 260.000
48.17848 242.000
48.19843 269.000
48.21838 255.000
48.23833 236.000
48.25827 253.000
48.27822 265.000
48.29817 272.000
48.31811 272.000
48.33806 288.000
48.35801 258.000
48.37795 260.000
48.39790 264.000
48.41785 241.000
48.43780 284.000
48.45774 266.000
48.47769 288.000
48.49764 252.000
48.51758 269.000
48.53753 241.000
48.55748 293.000
48.57742 274.000
48.59737 277.000
48.61732 336.000
48.63726 304.000
48.65721 324.000
48.67716 304.000
48.69711 316.000
48.71705 394.000
48.73700 395.000
48.75695 429.000
48.77689 480.000
48.79684 486.000
48.81679 565.000
48.83673 633.000
48.85668 606.000
48.87663 652.000
48.89658 605.000
48.91652 587.000
48.93647 553.000
48.95642 505.000
48.97636 532.000
48.99631 498.000
49.01626 475.000
49.03620 433.000
49.05615 346.000
49.07610 377.000
49.09605 345.000
49.11599 355.000
49.13594 336.000
49.15589 336.000
49.17583 293.000
49.19578 274.000
49.21573 273.000
49.23567 284.000
49.25562 288.000
49.27557 283.000
49.29551 265.000
49.31546 303.000
49.33541 274.000
49.35536 281.000
49.37530 247.000
49.39525 286.000
49.41520 290.000
49.43514 282.000
49.45509 276.000
49.47504 285.000
49.49498 284.000
49.51493 263.000
49.53488 231.000
49.55483 267.000
49.57477 268.000
49.59472 250.000
49.61467 277.000
49.63461 271.000
49.65456 266.000
49.67451 296.000
49.69445 253.000
49.71440 229.000
49.73435 214.000
49.75429 233.000
49.77424 228.000
49.79419 239.000
49.81414 232.000
49.83408 251.000
49.85403 254.000
49.87398 253.000
49.89392 237.000
49.91387 238.000
49.93382 257.000
49.95376 246.000
49.97371 229.000
49.99366 232.000
50.01361 230.000
50.03355 221.000
50.05350 196.000
50.07345 242.000
50.09339 213.000
50.11334 237.000
50.13329 242.000
50.15323 219.000
50.17318 223.000
50.19313 227.000
50.21307 220.000
50.23302 255.000
50.25297 226.000
50.27292 246.000
50.29286 259.000
50.31281 235.000
50.33276 232.000
50.35270 220.000
50.37265 226.000
50.39260 242.000
50.41254 213.000
50.43249 222.000
50.45244 205.000
50.47239 235.000
50.49233 256.000
50.51228 240.000
50.53223 243.000
50.55217 265.000
50.57212 226.000
50.59207 245.000
50.61201 256.000
50.63196 266.000
50.65191 249.000
50.67186 227.000
50.69180 226.000
50.71175 218.000
50.73170 244.000
50.75164 232.000
50.77159 239.000
50.79154 248.000
50.81148 251.000
50.83143 247.000
50.85138 245.000
50.87132 232.000
50.89127 267.000
50.91122 230.000
50.93117 219.000
50.95111 264.000
50.97106 235.000
50.99101 244.000
51.01095 233.000
51.03090 233.000
51.05085 247.000
51.07079 249.000
51.09074 247.000
51.11069 243.000
51.13064 248.000
51.15058 235.000
51.17053 236.000
51.19048 248.000
51.21042 227.000
51.23037 277.000
51.25032 218.000
51.27026 248.000
51.29021 282.000
51.31016 235.000
51.33010 247.000
51.35005 254.000
51.37000 244.000
51.38995 278.000
51.40989 260.000
51.42984 261.000
51.44979 234.000
51.46973 255.000
51.48968 217.000
51.50963 252.000
51.52957 269.000
51.54952 219.000
51.56947 244.000
51.58942 231.000
51.60936 260.000
51.62931 250.000
51.64926 233.000
51.66920 240.000
51.68915 220.000
51.70910 227.000
51.72904 225.000
51.74899 225.000
51.76894 206.000
51.78888 233.000
51.80883 249.000
51.82878 242.000
51.84873 228.000
51.86867 226.000
51.88862 217.000
51.90857 253.000
51.92851 234.000
51.94846 248.000
51.96841 221.000
51.98835 193.000
52.00830 242.000
52.02825 241.000
52.04820 239.000
52.06814 226.000
52.08809 265.000
52.10804 255.000
52.12798 270.000
52.14793 223.000
52.16788 255.000
52.18782 272.000
52.20777 245.000
52.22772 268.000
52.24767 238.000
52.26761 261.000
52.28756 239.000
52.30751 233.000
52.32745 226.000
52.34740 245.000
52.36735 246.000
52.38729 266.000
52.40724 271.000
52.42719 248.000
52.44713 265.000
52.46708 223.000
52.48703 228.000
52.50698 241.000
52.52692 233.000
52.54687 269.000
52.56682 244.000
52.58676 228.000
52.60671 233.000
52.62666 222.000
52.64660 261.000
52.66655 229.000
52.68650 277.000
52.70645 261.000
52.72639 255.000
52.74634 242.000
52.76629 258.000
52.78623 262.000
52.80618 261.000
52.82613 276.000
52.84607 267.000
52.86602 263.000
52.88597 262.000
52.90591 274.000
52.92586 254.000
52.94581 256.000
52.96576 292.000
52.98570 266.000
53.00565 294.000
53.02560 341.000
53.04554 314.000
53.06549 336.000
53.08544 399.000
53.10538 452.000
53.12533 448.000
53.14528 458.000
53.16523 457.000
53.18517 459.000
53.20512 467.000
53.22507 468.000
53.24501 439.000
53.26496 442.000
53.28491 431.000
53.30485 407.000
53.32480 427.000
53.34475 380.000
53.36469 415.000
53.38464 371.000
53.40459 367.000
53.42454 357.000
53.44448 331.000
53.46443 333.000
53.48438 359.000
53.50432 299.000
53.52427 321.000
53.54422 272.000
53.56416 310.000
53.58411 304.000
53.60406 288.000
53.62401 294.000
53.64395 313.000
53.66390 271.000
53.68385 275.000
53.70379 292.000
53.72374 284.000
53.74369 255.000
53.76363 274.000
53.78358 266.000
53.80353 255.000
53.82348 275.000
53.84342 260.000
53.86337 270.000
53.88332 276.000
53.90326 275.000
53.92321 262.000
53.94316 260.000
53.96310 259.000
53.98305 248.000
54.00300 235.000
54.02294 243.000
54.04289 240.000
54.06284 247.000
54.08279 255.000
54.10273 250.000
54.12268 259.000
54.14263 248.000
54.16257 270.000
54.18252 232.000
54.20247 249.000
54.22241 251.000
54.24236 246.000
54.26231 264.000
54.28226 237.000
54.30220 248.000
54.32215 272.000
54.34210 249.000
54.36204 225.000
54.38199 262.000
54.40194 233.000
54.42188 250.000
54.44183 224.000
54.46178 235.000
54.48172 224.000
54.50167 232.000
54.52162 239.000
54.54157 263.000
54.56151 233.000
54.58146 231.000
54.60141 243.000
54.62135 228.000
54.64130 217.000
54.66125 214.000
54.68119 226.000
54.70114 245.000
54.72109 235.000
54.74104 235.000
54.76098 256.000
54.78093 249.000
54.80088 213.000
54.82082 202.000
54.84077 229.000
54.86072 234.000
54.88066 205.000
54.90061 238.000
54.92056 249.000
54.94050 257.000
54.96045 238.000
54.98040 273.000
55.00035 232.000
55.02029 236.000
55.04024 236.000
55.06019 238.000
55.08013 220.000
55.10008 250.000
55.12003 240.000
55.13997 216.000
55.15992 245.000
55.17987 215.000
55.19982 237.000
55.21976 222.000
55.23971 254.000
55.25966 248.000
55.27960 253.000
55.29955 250.000
55.31950 236.000
55.33944 224.000
55.35939 228.000
55.37934 247.000
55.39929 233.000
55.41923 243.000
55.43918 221.000
55.45913 223.000
55.47907 231.000
55.49902 240.000
55.51897 218.000
55.53891 234.000
55.55886 241.000
55.57881 244.000
55.59875 220.000
55.61870 242.000
55.63865 259.000
55.65860 241.000
55.67854 240.000
55.69849 214.000
55.71844 246.000
55.73838 221.000
55.75833 211.000
55.77828 261.000
55.79822 242.000
55.81817 233.000
55.83812 240.000
55.85807 212.000
55.87801 234.000
55.89796 233.000
55.91791 222.000
55.93785 249.000
55.95780 266.000
55.97775 232.000
55.99769 245.000
56.01764 259.000
56.03759 227.000
56.05753 230.000
56.07748 235.000
56.09743 265.000
56.11738 217.000
56.13732 234.000
56.15727 218.000
56.17722 219.000
56.19716 241.000
56.21711 231.000
56.23706 241.000
56.25700 201.000
56.27695 249.000
56.29690 236.000
56.31685 218.000
56.33679 242.000
56.35674 230.000
56.37669 232.000
56.39663 222.000
56.41658 235.000
56.43653 227.000
56.45647 240.000
56.47642 243.000
56.49637 233.000
56.51631 255.000
56.53626 246.000
56.55621 252.000
56.57616 243.000
56.59610 225.000
56.61605 264.000
56.63600 246.000
56.65594 247.000
56.67589 238.000
56.69584 232.000
56.71578 238.000
56.73573 239.000
56.75568 257.000
56.77563 212.000
56.79557 244.000
56.81552 267.000
56.83547 231.000
56.85541 258.000
56.87536 268.000
56.89531 233.000
56.91525 281.000
56.93520 249.000
56.95515 216.000
56.97510 228.000
56.99504 220.000
57.01499 219.000
57.03494 210.000
57.05488 238.000
57.07483 232.000
57.09478 263.000
57.11472 251.000
57.13467 220.000
57.15462 248.000
57.17456 292.000
57.19451 262.000
57.21446 218.000
57.23441 277.000
57.25435 272.000
57.27430 252.000
57.29425 276.000
57.31419 280.000
57.33414 286.000
57.35409 251.000
57.37403 264.000
57.39398 267.000
57.41393 279.000
57.43388 260.000
57.45382 279.000
57.47377 286.000
57.49372 245.000
57.51366 269.000
57.53361 284.000
57.55356 281.000
57.57350 296.000
57.59345 309.000
57.61340 307.000
57.63334 335.000
57.65329 319.000
57.67324 316.000
57.69319 317.000
57.71313 342.000
57.73308 327.000
57.75303 382.000
57.77297 418.000
57.79292 447.000
57.81287 522.000
57.83281 631.000
57.85276 599.000
57.87271 681.000
57.89266 672.000
57.91260 723.000
57.93255 675.000
57.95250 729.000
57.97244 695.000
57.99239 664.000
58.01234 645.000
58.03228 601.000
58.05223 524.000
58.07218 528.000
58.09212 512.000
58.11207 491.000
58.13202 488.000
58.15197 504.000
58.17191 448.000
58.19186 403.000
58.21181 429.000
58.23175 416.000
58.25170 436.000
58.27165 460.000
58.29159 450.000
58.31154 410.000
58.33149 462.000
58.35144 397.000
58.37138 386.000
58.39133 339.000
58.41128 385.000
58.43122 367.000
58.45117 352.000
58.47112 332.000
58.49106 295.000
58.51101 361.000
58.53096 335.000
58.55090 290.000
58.57085 267.000
58.59080 276.000
58.61075 271.000
58.63069 248.000
58.65064 244.000
58.67059 252.000
58.69053 234.000
58.71048 245.000
58.73043 226.000
58.75037 257.000
58.77032 248.000
58.79027 252.000
58.81022 273.000
58.83016 254.000
58.85011 281.000
58.87006 245.000
58.89000 229.000
58.90995 261.000
58.92990 256.000
58.94984 263.000
58.96979 242.000
58.98974 252.000
59.00969 241.000
59.02963 268.000
59.04958 241.000
59.06953 248.000
59.08947 273.000
59.10942 232.000
59.12937 252.000
59.14931 263.000
59.16926 254.000
59.18921 269.000
59.20915 261.000
59.22910 251.000
59.24905 242.000
59.26900 232.000
59.28894 223.000
59.30889 251.000
59.32884 262.000
59.34878 269.000
59.36873 240.000
59.38868 268.000
59.40862 227.000
59.42857 235.000
59.44852 258.000
59.46847 229.000
59.48841 264.000
59.50836 239.000
59.52831 242.000
59.54825 249.000
59.56820 251.000
59.58815 234.000
59.60809 246.000
59.62804 219.000
59.64799 253.000
59.66793 252.000
59.68788 258.000
59.70783 237.000
59.72778 245.000
59.74772 221.000
59.76767 271.000
59.78762 274.000
59.80756 229.000
59.82751 273.000
59.84746 237.000
59.86740 226.000
59.88735 221.000
59.90730 250.000
59.92725 217.000
59.94719 244.000
59.96714 239.000
59.98709 262.000
60.00703 253.000
60.02698 222.000
60.04693 262.000
60.06687 263.000
60.08682 241.000
60.10677 239.000
60.12671 232.000
60.14666 252.000
60.16661 233.000
60.18656 265.000
60.20650 222.000
60.22645 251.000
60.24640 261.000
60.26634 237.000
60.28629 236.000
60.30624 221.000
60.32618 236.000
60.34613 231.000
60.36608 293.000
60.38603 258.000
60.40597 261.000
60.42592 232.000
60.44587 236.000
60.46581 251.000
60.48576 269.000
60.50571 251.000
60.52565 251.000
60.54560 243.000
60.56555 288.000
60.58550 253.000
60.60544 231.000
60.62539 246.000
60.64534 268.000
60.66528 245.000
60.68523 246.000
60.70518 222.000
60.72512 246.000
60.74507 261.000
60.76502 259.000
60.78496 234.000
60.80491 245.000
60.82486 253.000
60.84481 264.000
60.86475 247.000
60.88470 281.000
60.90465 266.000
60.92459 250.000
60.94454 256.000
60.96449 254.000
60.98443 247.000
61.00438 249.000
61.02433 254.000
61.04428 227.000
61.06422 235.000
61.08417 277.000
61.10412 242.000
61.12406 262.000
61.14401 279.000
61.16396 278.000
61.18390 287.000
61.20385 286.000
61.22380 294.000
61.24374 270.000
61.26369 295.000
61.28364 291.000
61.30359 302.000
61.32353 326.000
61.34348 285.000
61.36343 301.000
61.38337 292.000
61.40332 316.000
61.42327 356.000
61.44321 373.000
61.46316 361.000
61.48311 388.000
61.50306 406.000
61.52300 458.000
61.54295 472.000
61.56290 548.000
61.58284 472.000
61.60279 487.000
61.62274 471.000
61.64268 455.000
61.66263 478.000
61.68258 479.000
61.70252 472.000
61.72247 513.000
61.74242 547.000
61.76237 553.000
61.78231 556.000
61.80226 555.000
61.82221 537.000
61.84215 575.000
61.86210 559.000
61.88205 538.000
61.90199 592.000
61.92194 529.000
61.94189 537.000
61.96184 559.000
61.98178 560.000
62.00173 532.000
62.02168 565.000
62.04162 521.000
62.06157 548.000
62.08152 539.000
62.10146 547.000
62.12141 502.000
62.14136 492.000
62.16131 466.000
62.18125 408.000
62.20120 463.000
62.22115 436.000
62.24109 467.000
62.26104 411.000
62.28099 396.000
62.30093 377.000
62.32088 358.000
62.34083 373.000
62.36077 334.000
62.38072 358.000
62.40067 357.000
62.42062 328.000
62.44056 324.000
62.46051 370.000
62.48046 317.000
62.50040 325.000
62.52035 330.000
62.54030 325.000
62.56024 333.000
62.58019 328.000
62.60014 335.000
62.62009 322.000
62.64003 288.000
62.65998 341.000
62.67993 320.000
62.69987 303.000
62.71982 299.000
62.73977 326.000
62.75971 323.000
62.77966 317.000
62.79961 311.000
62.81955 312.000
62.83950 315.000
62.85945 298.000
62.87940 302.000
62.89934 340.000
62.91929 322.000
62.93924 326.000
62.95918 334.000
62.97913 325.000
62.99908 260.000
63.01902 304.000
63.03897 295.000
63.05892 321.000
63.07887 275.000
63.09881 284.000
63.11876 281.000
63.13871 288.000
63.15865 267.000
63.17860 284.000
63.19855 261.000
63.21849 265.000
63.23844 246.000
63.25839 267.000
63.27833 235.000
63.29828 243.000
63.31823 251.000
63.33818 233.000
63.35812 270.000
63.37807 264.000
63.39802 267.000
63.41796 248.000
63.43791 258.000
63.45786 227.000
63.47780 249.000
63.49775 236.000
63.51770 256.000
63.53765 233.000
63.55759 261.000
63.57754 243.000
63.59749 245.000
63.61743 228.000
63.63738 249.000
63.65733 233.000
63.67727 262.000
63.69722 254.000
63.71717 239.000
63.73712 234.000
63.75706 266.000
63.77701 250.000
63.79696 261.000
63.81690 247.000
63.83685 280.000
63.85680 237.000
63.87674 270.000
63.89669 244.000
63.91664 258.000
63.93658 263.000
63.95653 260.000
63.97648 209.000
63.99643 236.000
64.01637 235.000
64.03632 266.000
64.05627 253.000
64.07621 280.000
64.09616 271.000
64.11611 250.000
64.13605 245.000
64.15600 269.000
64.17595 231.000
64.19590 251.000
64.21584 261.000
64.23579 262.000
64.25574 255.000
64.27568 250.000
64.29563 264.000
64.31558 270.000
64.33552 284.000
64.35547 290.000
64.37542 285.000
64.39536 277.000
64.41531 273.000
64.43526 304.000
64.45521 309.000
64.47515 298.000
64.49510 305.000
64.51505 334.000
64.53499 305.000
64.55494 330.000
64.57489 326.000
64.59483 322.000
64.61478 348.000
64.63473 338.000
64.65468 327.000
64.67462 327.000
64.69457 324.000
64.71452 304.000
64.73446 314.000
64.75441 334.000
64.77436 274.000
64.79430 289.000
64.81425 311.000
64.83420 287.000
64.85414 277.000
64.87409 292.000
64.89404 260.000
64.91399 289.000
64.93393 280.000
64.95388 300.000
64.97383 275.000
64.99377 281.000
65.01372 287.000
65.03367 255.000
65.05361 256.000
65.07356 273.000
65.09351 277.000
65.11346 275.000
65.13340 258.000
65.15335 263.000
65.17330 239.000
65.19324 303.000
65.21319 278.000
65.23314 287.000
65.25308 258.000
65.27303 260.000
65.29298 264.000
65.31293 279.000
65.33287 289.000
65.35282 267.000
65.37277 278.000
65.39271 301.000
65.41266 317.000
65.43261 307.000
65.45255 279.000
65.47250 286.000
65.49245 296.000
65.51239 335.000
65.53234 318.000
65.55229 297.000
65.57224 339.000
65.59218 360.000
65.61213 386.000
65.63208 354.000
65.65202 385.000
65.67197 397.000
65.69192 405.000
65.71186 375.000
65.73181 442.000
65.75176 392.000
65.77171 378.000
65.79165 362.000
65.81160 429.000
65.83155 427.000
65.85149 404.000
65.87144 387.000
65.89139 379.000
65.91133 362.000
65.93128 352.000
65.95123 353.000
65.97117 341.000
65.99112 378.000
66.01107 319.000
66.03102 292.000
66.05096 332.000
66.07091 345.000
66.09086 312.000
66.11080 304.000
66.13075 301.000
66.15070 315.000
66.17064 300.000
66.19059 332.000
66.21054 340.000
66.23049 348.000
66.25043 353.000
66.27038 354.000
66.29033 430.000
66.31027 396.000
66.33022 436.000
66.35017 431.000
66.37011 419.000
66.39006 407.000
66.41001 417.000
66.42995 385.000
66.44990 389.000
66.46985 371.000
66.48980 371.000
66.50974 385.000
66.52969 365.000
66.54964 385.000
66.56958 343.000
66.58953 345.000
66.60948 329.000
66.62942 343.000
66.64937 313.000
66.66932 279.000
66.68927 296.000
66.70921 254.000
66.72916 255.000
66.74911 282.000
66.76905 279.000
66.78900 268.000
66.80895 254.000
66.82889 276.000
66.84884 292.000
66.86879 253.000
66.88874 245.000
66.90868 293.000
66.92863 262.000
66.94858 250.000
66.96852 293.000
66.98847 281.000
67.00842 240.000
67.02836 262.000
67.04831 228.000
67.06826 263.000
67.08820 253.000
67.10815 242.000
67.12810 256.000
67.14805 255.000
67.16799 253.000
67.18794 230.000
67.20789 247.000
67.22783 262.000
67.24778 260.000
67.26773 250.000
67.28767 234.000
67.30762 253.000
67.32757 232.000
67.34752 233.000
67.36746 251.000
67.38741 269.000
67.40736 269.000
67.42730 251.000
67.44725 276.000
67.46720 262.000
67.48714 281.000
67.50709 247.000
67.52704 232.000
67.54698 262.000
67.56693 275.000
67.58688 268.000
67.60683 282.000
67.62677 292.000
67.64672 263.000
67.66667 280.000
67.68661 268.000
67.70656 288.000
67.72651 290.000
67.74645 292.000
67.76640 320.000
67.78635 321.000
67.80630 340.000
67.82624 371.000
67.84619 366.000
67.86614 347.000
67.88608 386.000
67.90603 383.000
67.92598 375.000
67.94592 363.000
67.96587 422.000
67.98582 421.000
68.00576 487.000
68.02571 485.000
68.04566 458.000
68.06561 469.000
68.08555 476.000
68.10550 425.000
68.12545 450.000
68.14539 403.000
68.16534 390.000
68.18529 398.000
68.20523 410.000
68.22518 392.000
68.24513 427.000
68.26508 416.000
68.28502 403.000
68.30497 409.000
68.32492 408.000
68.34486 382.000
68.36481 345.000
68.38476 380.000
68.40470 359.000
68.42465 354.000
68.44460 354.000
68.46455 354.000
68.48449 332.000
68.50444 360.000
68.52439 357.000
68.54433 351.000
68.56428 357.000
68.58423 366.000
68.60417 362.000
68.62412 340.000
68.64407 327.000
68.66401 289.000
68.68396 290.000
68.70391 285.000
68.72386 301.000
68.74380 302.000
68.76375 269.000
68.78370 294.000
68.80364 285.000
68.82359 233.000
68.84354 251.000
68.86348 253.000
68.88343 251.000
68.90338 229.000
68.92333 261.000
68.94327 267.000
68.96322 273.000
68.98317 254.000
69.00311 248.000
69.02306 243.000
69.04301 233.000
69.06295 229.000
69.08290 222.000
69.10285 250.000
69.12279 246.000
69.14274 243.000
69.16269 234.000
69.18264 247.000
69.20258 236.000
69.22253 234.000
69.24248 248.000
69.26242 241.000
69.28237 235.000
69.30232 246.000
69.32226 208.000
69.34221 232.000
69.36216 237.000
69.38211 266.000
69.40205 245.000
69.42200 266.000
69.44195 238.000
69.46189 228.000
69.48184 220.000
69.50179 214.000
69.52173 222.000
69.54168 265.000
69.56163 274.000
69.58157 257.000
69.60152 260.000
69.62147 243.000
69.64142 237.000
69.66136 227.000
69.68131 258.000
69.70126 259.000
69.72120 224.000
69.74115 266.000
69.76110 248.000
69.78104 270.000
69.80099 219.000
69.82094 221.000
69.84089 250.000
69.86083 251.000
69.88078 262.000
69.90073 259.000
69.92067 290.000
69.94062 249.000
69.96057 250.000
69.98051 265.000
70.00046 255.000
70.02041 246.000
70.04035 268.000
70.06030 237.000
70.08025 304.000
70.10020 271.000
70.12014 265.000
70.14009 254.000
70.16004 249.000
70.17998 297.000
70.19993 251.000
70.21988 249.000
70.23982 251.000
70.25977 258.000
70.27972 276.000
70.29967 254.000
70.31961 266.000
70.33956 237.000
70.35951 282.000
70.37945 234.000
70.39940 226.000
70.41935 258.000
70.43929 234.000
70.45924 255.000
70.47919 218.000
70.49914 246.000
70.51908 235.000
70.53903 242.000
70.55898 225.000
70.57892 269.000
70.59887 240.000
70.61882 257.000
70.63876 227.000
70.65871 213.000
70.67866 223.000
70.69860 232.000
70.71855 231.000
70.73850 241.000
70.75845 234.000
70.77839 221.000
70.79834 244.000
70.81829 239.000
70.83823 249.000
70.85818 229.000
70.87813 219.000
70.89807 215.000
70.91802 230.000
70.93797 214.000
70.95792 239.000
70.97786 208.000
70.99781 260.000
71.01776 234.000
71.03770 244.000
71.05765 232.000
71.07760 243.000
71.09754 238.000
71.11749 261.000
71.13744 236.000
71.15738 227.000
71.17733 218.000
71.19728 239.000
71.21723 248.000
71.23717 225.000
71.25712 244.000
71.27707 254.000
71.29701 258.000
71.31696 239.000
71.33691 234.000
71.35685 219.000
71.37680 234.000
71.39675 222.000
71.41670 266.000
71.43664 227.000
71.45659 241.000
71.47654 229.000
71.49648 245.000
71.51643 230.000
71.53638 240.000
71.55632 239.000
71.57627 257.000
71.59622 234.000
71.61616 223.000
71.63611 256.000
71.65606 237.000
71.67601 233.000
71.69595 228.000
71.71590 247.000
71.73585 258.000
71.75579 244.000
71.77574 253.000
71.79569 238.000
71.81563 301.000
71.83558 236.000
71.85553 278.000
71.87548 259.000
71.89542 223.000
71.91537 253.000
71.93532 271.000
71.95526 250.000
71.97521 264.000
71.99516 293.000
72.01510 289.000
72.03505 282.000
72.05500 303.000
72.07495 339.000
72.09489 309.000
72.11484 354.000
72.13479 299.000
72.15473 358.000
72.17468 347.000
72.19463 342.000
72.21457 378.000
72.23452 372.000
72.25447 398.000
72.27441 361.000
72.29436 372.000
72.31431 362.000
72.33426 373.000
72.35420 408.000
72.37415 353.000
72.39410 390.000
72.41404 394.000
72.43399 377.000
72.45394 384.000
72.47388 372.000
72.49383 344.000
72.51378 388.000
72.53373 335.000
72.55367 336.000
72.57362 328.000
72.59357 318.000
72.61351 252.000
72.63346 339.000
72.65341 327.000
72.67335 318.000
72.69330 287.000
72.71325 289.000
72.73319 289.000
72.75314 269.000
72.77309 274.000
72.79304 246.000
72.81298 241.000
72.83293 240.000
72.85288 269.000
72.87282 252.000
72.89277 218.000
72.91272 245.000
72.93266 266.000
72.95261 248.000
72.97256 244.000
72.99251 261.000
73.01245 262.000
73.03240 242.000
73.05235 258.000
73.07229 250.000
73.09224 274.000
73.11219 246.000
73.13213 279.000
73.15208 224.000
73.17203 258.000
73.19197 258.000
73.21192 261.000
73.23187 261.000
73.25182 271.000
73.27176 259.000
73.29171 257.000
73.31166 272.000
73.33160 258.000
73.35155 237.000
73.37150 251.000
73.39144 242.000
73.41139 247.000
73.43134 267.000
73.45129 250.000
73.47123 284.000
73.49118 240.000
73.51113 280.000
73.53107 250.000
73.55102 261.000
73.57097 232.000
73.59091 267.000
73.61086 237.000
73.63081 245.000
73.65076 252.000
73.67070 248.000
73.69065 263.000
73.71060 268.000
73.73054 222.000
73.75049 260.000
73.77044 238.000
73.79038 287.000
73.81033 241.000
73.83028 253.000
73.85022 249.000
73.87017 283.000
73.89012 303.000
73.91007 236.000
73.93001 322.000
73.94996 289.000
73.96991 309.000
73.98985 290.000
74.00980 305.000
74.02975 255.000
74.04969 299.000
74.06964 285.000
74.08959 335.000
74.10954 310.000
74.12948 309.000
74.14943 313.000
74.16938 322.000
74.18932 298.000
74.20927 301.000
74.22922 280.000
74.24916 258.000
74.26911 301.000
74.28906 319.000
74.30900 305.000
74.32895 305.000
74.34890 299.000
74.36885 265.000
74.38879 317.000
74.40874 294.000
74.42869 292.000
74.44863 305.000
74.46858 291.000
74.48853 290.000
74.50847 285.000
74.52842 293.000
74.54837 269.000
74.56832 276.000
74.58826 265.000
74.60821 302.000
74.62816 295.000
74.64810 286.000
74.66805 284.000
74.68800 274.000
74.70794 292.000
74.72789 276.000
74.74784 282.000
74.76778 271.000
74.78773 259.000
74.80768 229.000
74.82763 280.000
74.84757 280.000
74.86752 279.000
74.88747 278.000
74.90741 288.000
74.92736 305.000
74.94731 339.000
74.96725 329.000
74.98720 332.000
75.00715 356.000
75.02710 287.000
75.04704 348.000
75.06699 276.000
75.08694 311.000
75.10688 330.000
75.12683 323.000
75.14678 321.000
75.16672 333.000
75.18667 343.000
75.20662 317.000
75.22657 361.000
75.24651 336.000
75.26646 314.000
75.28641 352.000
75.30635 328.000
75.32630 322.000
75.34625 300.000
75.36619 296.000
75.38614 329.000
75.40609 333.000
75.42603 329.000
75.44598 321.000
75.46593 296.000
75.48588 282.000
75.50582 272.000
75.52577 260.000
75.54572 302.000
75.56566 279.000
75.58561 284.000
75.60556 275.000
75.62550 285.000
75.64545 270.000
75.66540 263.000
75.68535 256.000
75.70529 259.000
75.72524 261.000
75.74519 258.000
75.76513 228.000
75.78508 256.000
75.80503 268.000
75.82497 228.000
75.84492 225.000
75.86487 243.000
75.88481 218.000
75.90476 270.000
75.92471 229.000
75.94466 246.000
75.96460 230.000
75.98455 219.000
76.00450 237.000
76.02444 238.000
76.04439 268.000
76.06434 223.000
76.08428 254.000
76.10423 253.000
76.12418 234.000
76.14413 286.000
76.16407 245.000
76.18402 226.000
76.20397 272.000
76.22391 255.000
76.24386 247.000
76.26381 227.000
76.28375 239.000
76.30370 210.000
76.32365 226.000
76.34359 255.000
76.36354 225.000
76.38349 237.000
76.40344 241.000
76.42338 257.000
76.44333 251.000
76.46328 259.000
76.48322 224.000
76.50317 229.000
76.52312 245.000
76.54306 246.000
76.56301 224.000
76.58296 248.000
76.60291 230.000
76.62285 212.000
76.64280 257.000
76.66275 236.000
76.68269 232.000
76.70264 224.000
76.72259 247.000
76.74253 249.000
76.76248 230.000
76.78243 239.000
76.80238 230.000
76.82232 244.000
76.84227 225.000
76.86222 254.000
76.88216 236.000
76.90211 246.000
76.92206 247.000
76.94200 232.000
76.96195 247.000
76.98190 270.000
77.00184 294.000
77.02179 275.000
77.04174 283.000
77.06169 279.000
77.08163 296.000
77.10158 320.000
77.12153 293.000
77.14147 359.000
77.16142 332.000
77.18137 347.000
77.20131 303.000
77.22126 358.000
77.24121 328.000
77.26116 326.000
77.28110 315.000
77.30105 303.000
77.32100 327.000
77.34094 325.000
77.36089 320.000
77.38084 340.000
77.40078 315.000
77.42073 327.000
77.44068 301.000
77.46062 289.000
77.48057 284.000
77.50052 314.000
77.52047 276.000
77.54041 295.000
77.56036 306.000
77.58031 271.000
77.60025 275.000
77.62020 320.000
77.64015 259.000
77.66009 264.000
77.68004 258.000
77.69999 260.000
77.71994 266.000
77.73988 247.000
77.75983 242.000
77.77978 259.000
77.79972 262.000
77.81967 263.000
77.83962 266.000
77.85956 247.000
77.87951 234.000
77.89946 290.000
77.91940 230.000
77.93935 255.000
77.95930 230.000
77.97925 246.000
77.99919 248.000
78.01914 282.000
78.03909 243.000
78.05903 225.000
78.07898 217.000
78.09893 239.000
78.11887 236.000
78.13882 273.000
78.15877 222.000
78.17872 259.000
78.19866 252.000
78.21861 256.000
78.23856 228.000
78.25850 248.000
78.27845 263.000
78.29840 269.000
78.31834 255.000
78.33829 250.000
78.35824 236.000
78.37819 233.000
78.39813 230.000
78.41808 254.000
78.43803 245.000
78.45797 271.000
78.47792 244.000
78.49787 254.000
78.51781 255.000
78.53776 261.000
78.55771 247.000
78.57765 240.000
78.59760 228.000
78.61755 248.000
78.63750 228.000
78.65744 243.000
78.67739 238.000
78.69734 262.000
78.71728 238.000
78.73723 225.000
78.75718 255.000
78.77712 236.000
78.79707 248.000
78.81702 244.000
78.83697 243.000
78.85691 227.000
78.87686 234.000
78.89681 256.000
78.91675 248.000
78.93670 239.000
78.95665 243.000
78.97659 262.000
78.99654 280.000
79.01649 252.000
79.03643 268.000
79.05638 233.000
79.07633 234.000
79.09628 255.000
79.11622 225.000
79.13617 240.000
79.15612 242.000
79.17606 231.000
79.19601 240.000
79.21596 249.000
79.23590 247.000
79.25585 232.000
79.27580 240.000
79.29575 259.000
79.31569 226.000
79.33564 249.000
79.35559 267.000
79.37553 266.000
79.39548 263.000
79.41543 226.000
79.43537 229.000
79.45532 249.000
79.47527 241.000
79.49521 234.000
79.51516 247.000
79.53511 229.000
79.55506 251.000
79.57500 247.000
79.59495 265.000
79.61490 232.000
79.63484 235.000
79.65479 231.000
79.67474 212.000
79.69468 242.000
79.71463 242.000
79.73458 250.000
79.75453 247.000
79.77447 239.000
79.79442 236.000
79.81437 226.000
79.83431 258.000
79.85426 214.000
79.87421 231.000
79.89415 244.000
79.91410 242.000
79.93405 256.000
79.95399 221.000
79.97394 226.000
79.99389 239.000
80.01384 242.000
80.03378 213.000
80.05373 258.000
80.07368 248.000
80.09362 226.000
80.11357 254.000
80.13352 243.000
80.15346 246.000
80.17341 261.000
80.19336 258.000
80.21331 230.000
80.23325 254.000
80.25320 256.000
80.27315 256.000
80.29309 271.000
80.31304 258.000
80.33299 267.000
80.35293 261.000
80.37288 261.000
80.39283 268.000
80.41278 241.000
80.43272 251.000
80.45267 236.000
80.47262 246.000
80.49256 262.000
80.51251 235.000
80.53246 241.000
80.55240 242.000
80.57235 255.000
80.59230 220.000
80.61224 266.000
80.63219 247.000
80.65214 265.000
80.67209 268.000
80.69203 255.000
80.71198 240.000
80.73193 237.000
80.75187 228.000
80.77182 229.000
80.79177 226.000
80.81171 270.000
80.83166 202.000
80.85161 259.000
80.87156 218.000
80.89150 233.000
80.91145 211.000
80.93140 233.000
80.95134 226.000
80.97129 228.000
80.99124 224.000
81.01118 221.000
81.03113 259.000
81.05108 209.000
81.07102 252.000
81.09097 221.000
81.11092 254.000
81.13087 237.000
81.15081 250.000
81.17076 241.000
81.19071 242.000
81.21065 268.000
81.23060 238.000
81.25055 257.000
81.27049 225.000
81.29044 240.000
81.31039 223.000
81.33034 244.000
81.35028 219.000
81.37023 264.000
81.39018 247.000
81.41012 249.000
81.43007 216.000
81.45002 233.000
81.46996 241.000
81.48991 233.000
81.50986 248.000
81.52980 242.000
81.54975 245.000
81.56970 216.000
81.58965 232.000
81.60959 249.000
81.62954 262.000
81.64949 218.000
81.66943 224.000
81.68938 224.000
81.70933 226.000
81.72927 230.000
81.74922 224.000
81.76917 225.000
81.78912 253.000
81.80906 215.000
81.82901 220.000
81.84896 203.000
81.86890 248.000
81.88885 230.000
81.90880 242.000
81.92874 236.000
81.94869 223.000
81.96864 242.000
81.98859 264.000
82.00853 250.000
82.02848 237.000
82.04843 251.000
82.06837 255.000
82.08832 243.000
82.10827 236.000
82.12821 229.000
82.14816 231.000
82.16811 217.000
82.18805 238.000
82.20800 249.000
82.22795 234.000
82.24790 248.000
82.26784 265.000
82.28779 247.000
82.30774 251.000
82.32768 233.000
82.34763 247.000
82.36758 273.000
82.38752 258.000
82.40747 260.000
82.42742 283.000
82.44737 291.000
82.46731 267.000
82.48726 247.000
82.50721 295.000
82.52715 292.000
82.54710 345.000
82.56705 296.000
82.58699 267.000
82.60694 268.000
82.62689 328.000
82.64683 278.000
82.66678 271.000
82.68673 255.000
82.70668 261.000
82.72662 296.000
82.74657 286.000
82.76652 253.000
82.78646 276.000
82.80641 285.000
82.82636 300.000
82.84630 234.000
82.86625 278.000
82.88620 264.000
82.90615 240.000
82.92609 260.000
82.94604 264.000
82.96599 289.000
82.98593 322.000
83.00588 285.000
83.02583 288.000
83.04577 245.000
83.06572 270.000
83.08567 264.000
83.10561 238.000
83.12556 252.000
83.14551 275.000
83.16546 252.000
83.18540 272.000
83.20535 239.000
83.22530 269.000
83.24524 234.000
83.26519 271.000
83.28514 290.000
83.30508 261.000
83.32503 225.000
83.34498 262.000
83.36493 249.000
83.38487 247.000
83.40482 256.000
83.42477 265.000
83.44471 236.000
83.46466 253.000
83.48461 256.000
83.50455 267.000
83.52450 273.000
83.54445 275.000
83.56440 249.000
83.58434 254.000
83.60429 259.000
83.62424 228.000
83.64418 264.000
83.66413 263.000
83.68408 251.000
83.70402 268.000
83.72397 275.000
83.74392 251.000
83.76386 282.000
83.78381 282.000
83.80376 271.000
83.82371 275.000
83.84365 284.000
83.86360 269.000
83.88355 238.000
83.90349 282.000
83.92344 256.000
83.94339 214.000
83.96333 233.000
83.98328 250.000
84.00323 291.000
84.02318 241.000
84.04312 247.000
84.06307 275.000
84.08302 255.000
84.10296 240.000
84.12291 254.000
84.14286 263.000
84.16280 249.000
84.18275 242.000
84.20270 237.000
84.22264 259.000
84.24259 230.000
84.26254 268.000
84.28249 253.000
84.30243 247.000
84.32238 246.000
84.34233 256.000
84.36227 261.000
84.38222 244.000
84.40217 235.000
84.42211 274.000
84.44206 226.000
84.46201 251.000
84.48196 251.000
84.50190 240.000
84.52185 237.000
84.54180 250.000
84.56174 209.000
84.58169 256.000
84.60164 265.000
84.62158 243.000
84.64153 229.000
84.66148 238.000
84.68142 227.000
84.70137 222.000
84.72132 213.000
84.74127 244.000
84.76121 227.000
84.78116 233.000
84.80111 265.000
84.82105 239.000
84.84100 224.000
84.86095 245.000
84.88089 238.000
84.90084 243.000
84.92079 207.000
84.94074 253.000
84.96068 165.000
84.98063 257.000
85.00058 238.000
85.02052 230.000
85.04047 231.000
85.06042 225.000
85.08036 253.000
85.10031 256.000
85.12026 262.000
85.14021 239.000
85.16015 247.000
85.18010 211.000
85.20005 239.000
85.21999 233.000
85.23994 221.000
85.25989 234.000
85.27983 253.000
85.29978 234.000
85.31973 244.000
85.33967 255.000
85.35962 239.000
85.37957 235.000
85.39952 213.000
85.41946 191.000
85.43941 244.000
85.45936 221.000
85.47930 225.000
85.49925 232.000
85.51920 242.000
85.53914 221.000
85.55909 236.000
85.57904 244.000
85.59899 258.000
85.61893 214.000
85.63888 231.000
85.65883 234.000
85.67877 235.000
85.69872 236.000
85.71867 264.000
85.73861 255.000
85.75856 236.000
85.77851 266.000
85.79845 230.000
85.81840 264.000
85.83835 234.000
85.85830 237.000
85.87824 253.000
85.89819 233.000
85.91814 234.000
85.93808 250.000
85.95803 251.000
85.97798 261.000
85.99792 238.000
86.01787 263.000
86.03782 259.000
86.05777 264.000
86.07771 265.000
86.09766 259.000
86.11761 246.000
86.13755 257.000
86.15750 259.000
86.17745 241.000
86.19739 255.000
86.21734 216.000
86.23729 269.000
86.25723 275.000
86.27718 217.000
86.29713 238.000
86.31708 262.000
86.33702 236.000
86.35697 268.000
86.37692 233.000
86.39686 235.000
86.41681 252.000
86.43676 256.000
86.45670 245.000
86.47665 214.000
86.49660 250.000
86.51655 230.000
86.53649 276.000
86.55644 240.000
86.57639 252.000
86.59633 233.000
86.61628 257.000
86.63623 256.000
86.65617 244.000
86.67612 213.000
86.69607 249.000
86.71602 248.000
86.73596 263.000
86.75591 275.000
86.77586 249.000
86.79580 264.000
86.81575 248.000
86.83570 195.000
86.85564 248.000
86.87559 225.000
86.89554 253.000
86.91548 248.000
86.93543 223.000
86.95538 233.000
86.97533 227.000
86.99527 240.000
87.01522 259.000
87.03517 222.000
87.05511 241.000
87.07506 244.000
87.09501 265.000
87.11495 274.000
87.13490 252.000
87.15485 280.000
87.17480 262.000
87.19474 232.000
87.21469 256.000
87.23464 251.000
87.25458 277.000
87.27453 228.000
87.29448 240.000
87.31442 241.000
87.33437 221.000
87.35432 208.000
87.37426 226.000
87.39421 237.000
87.41416 244.000
87.43411 243.000
87.45405 253.000
87.47400 212.000
87.49395 233.000
87.51389 237.000
87.53384 227.000
87.55379 274.000
87.57373 242.000
87.59368 259.000
87.61363 259.000
87.63358 218.000
87.65352 231.000
87.67347 238.000
87.69342 236.000
87.71336 197.000
87.73331 250.000
87.75326 251.000
87.77320 248.000
87.79315 230.000
87.81310 224.000
87.83304 245.000
87.85299 244.000
87.87294 232.000
87.89289 232.000
87.91283 253.000
87.93278 228.000
87.95273 232.000
87.97267 255.000
87.99262 230.000
88.01257 222.000
88.03251 232.000
88.05246 237.000
88.07241 230.000
88.09236 232.000
88.11230 229.000
88.13225 209.000
88.15220 221.000
88.17214 246.000
88.19209 244.000
88.21204 238.000
88.23198 212.000
88.25193 217.000
88.27188 234.000
88.29183 233.000
88.31177 225.000
88.33172 226.000
88.35167 233.000
88.37161 225.000
88.39156 267.000
88.41151 214.000
88.43145 238.000
88.45140 227.000
88.47135 241.000
88.49129 224.000
88.51124 232.000
88.53119 246.000
88.55114 236.000
88.57108 242.000
88.59103 257.000
88.61098 251.000
88.63092 261.000
88.65087 246.000
88.67082 252.000
88.69076 231.000
88.71071 247.000
88.73066 212.000
88.75061 244.000
88.77055 219.000
88.79050 230.000
88.81045 241.000
88.83039 254.000
88.85034 264.000
88.87029 229.000
88.89023 238.000
88.91018 258.000
88.93013 226.000
88.95007 242.000
88.97002 269.000
88.98997 251.000
89.00992 277.000
89.02986 240.000
89.04981 250.000
89.06976 240.000
89.08970 248.000
89.10965 256.000
89.12960 242.000
89.14954 210.000
89.16949 234.000
89.18944 260.000
89.20939 268.000
89.22933 242.000
89.24928 229.000
89.26923 234.000
89.28917 257.000
89.30912 245.000
89.32907 256.000
89.34901 243.000
89.36896 243.000
89.38891 265.000
89.40885 274.000
89.42880 242.000
89.44875 243.000
89.46870 253.000
89.48864 253.000
89.50859 249.000
89.52854 270.000
89.54848 280.000
89.56843 250.000
89.58838 277.000
89.60832 261.000
89.62827 273.000
89.64822 279.000
89.66817 285.000
89.68811 273.000
89.70806 287.000
89.72801 246.000
89.74795 267.000
89.76790 326.000
89.78785 278.000
89.80779 300.000
89.82774 294.000
89.84769 344.000
89.86764 325.000
89.88758 320.000
89.90753 323.000
89.92748 289.000
89.94742 304.000
89.96737 310.000
89.98732 307.000
90.00726 302.000
