10.00000 75.000
10.01995 95.000
10.03989 76.000
10.05984 75.000
10.07979 85.000
10.09973 93.000
10.11968 71.000
10.13963 89.000
10.15958 72.000
10.17952 77.000
10.19947 71.000
10.21942 77.000
10.23936 69.000
10.25931 79.000
10.27926 69.000
10.29920 73.000
10.31915 80.000
10.33910 66.000
10.35905 71.000
10.37899 73.000
10.39894 70.000
10.41889 62.000
10.43883 74.000
10.45878 82.000
10.47873 86.000
10.49867 84.000
10.51862 80.000
10.53857 73.000
10.55851 99.000
10.57846 74.000
10.59841 81.000
10.61836 86.000
10.63830 81.000
10.65825 83.000
10.67820 70.000
10.69814 81.000
10.71809 59.000
10.73804 76.000
10.75798 72.000
10.77793 58.000
10.79788 73.000
10.81783 84.000
10.83777 64.000
10.85772 66.000
10.87767 81.000
10.89761 79.000
10.91756 81.000
10.93751 93.000
10.95745 74.000
10.97740 87.000
10.99735 63.000
11.01730 84.000
11.03724 75.000
11.05719 83.000
11.07714 85.000
11.09708 63.000
11.11703 83.000
11.13698 82.000
11.15692 104.000
11.17687 82.000
11.19682 100.000
11.21676 75.000
11.23671 78.000
11.25666 86.000
11.27661 84.000
11.29655 77.000
11.31650 75.000
11.33645 76.000
11.35639 78.000
11.37634 83.000
11.39629 79.000
11.41623 88.000
11.43618 79.000
11.45613 83.000
11.47608 70.000
11.49602 88.000
11.51597 79.000
11.53592 92.000
11.55586 80.000
11.57581 72.000
11.59576 82.000
11.61570 75.000
11.63565 92.000
11.65560 69.000
11.67554 66.000
11.69549 87.000
11.71544 78.000
11.73539 83.000
11.75533 75.000
11.77528 84.000
11.79523 89.000
11.81517 73.000
11.83512 73.000
11.85507 84.000
11.87501 74.000
11.89496 98.000
11.91491 86.000
11.93486 79.000
11.95480 79.000
11.97475 82.000
11.99470 91.000
12.01464 78.000
12.03459 102.000
12.05454 73.000
12.07448 79.000
12.09443 96.000
12.11438 86.000
12.13432 97.000
12.15427 76.000
12.17422 88.000
12.19417 92.000
12.21411 74.000
12.23406 100.000
12.25401 91.000
12.27395 71.000
12.29390 81.000
12.31385 95.000
12.33379 83.000
12.35374 84.000
12.37369 89.000
12.39364 87.000
12.41358 91.000
12.43353 68.000
12.45348 116.000
12.47342 102.000
12.49337 105.000
12.51332 108.000
12.53326 93.000
12.55321 102.000
12.57316 122.000
12.59311 118.000
12.61305 98.000
12.63300 123.000
12.65295 130.000
12.67289 137.000
12.69284 136.000
12.71279 147.000
12.73273 126.000
12.75268 116.000
12.77263 119.000
12.79257 129.000
12.81252 123.000
12.83247 116.000
12.85242 129.000
12.87236 118.000
12.89231 139.000
12.91226 120.000
12.93220 107.000
12.95215 114.000
12.97210 117.000
12.99204 122.000
13.01199 100.000
13.03194 137.000
13.05189 119.000
13.07183 113.000
13.09178 121.000
13.11173 107.000
13.13167 108.000
13.15162 106.000
13.17157 110.000
13.19151 111.000
13.21146 100.000
13.23141 101.000
13.25135 112.000
13.27130 127.000
13.29125 94.000
13.31120 103.000
13.33114 99.000
13.35109 120.000
13.37104 108.000
13.39098 129.000
13.41093 117.000
13.43088 115.000
13.45082 124.000
13.47077 114.000
13.49072 133.000
13.51067 122.000
13.53061 130.000
13.55056 126.000
13.57051 153.000
13.59045 125.000
13.61040 115.000
13.63035 118.000
13.65029 106.000
13.67024 116.000
13.69019 122.000
13.71013 124.000
13.73008 143.000
13.75003 109.000
13.76998 129.000
13.78992 124.000
13.80987 123.000
13.82982 108.000
13.84976 127.000
13.86971 116.000
13.88966 110.000
13.90960 124.000
13.92955 132.000
13.94950 143.000
13.96945 128.000
13.98939 134.000
14.00934 137.000
14.02929 136.000
14.04923 134.000
14.06918 127.000
14.08913 134.000
14.10907 120.000
14.12902 123.000
14.14897 133.000
14.16892 140.000
14.18886 164.000
14.20881 152.000
14.22876 141.000
14.24870 127.000
14.26865 133.000
14.28860 117.000
14.30854 131.000
14.32849 115.000
14.34844 122.000
14.36838 146.000
14.38833 135.000
14.40828 133.000
14.42823 129.000
14.44817 157.000
14.46812 133.000
14.48807 131.000
14.50801 125.000
14.52796 152.000
14.54791 130.000
14.56785 150.000
14.58780 137.000
14.60775 129.000
14.62770 124.000
14.64764 150.000
14.66759 135.000
14.68754 142.000
14.70748 148.000
14.72743 134.000
14.74738 134.000
14.76732 152.000
14.78727 155.000
14.80722 135.000
14.82716 161.000
14.84711 128.000
14.86706 139.000
14.88701 158.000
14.90695 159.000
14.92690 154.000
14.94685 170.000
14.96679 152.000
14.98674 159.000
15.00669 173.000
15.02663 209.000
15.04658 222.000
15.06653 215.000
15.08648 192.000
15.10642 161.000
15.12637 173.000
15.14632 167.000
15.16626 191.000
15.18621 199.000
15.20616 185.000
15.22610 206.000
15.24605 202.000
15.26600 190.000
15.28594 193.000
15.30589 188.000
15.32584 236.000
15.34579 225.000
15.36573 226.000
15.38568 252.000
15.40563 245.000
15.42557 278.000
15.44552 301.000
15.46547 306.000
15.48541 309.000
15.50536 399.000
15.52531 472.000
15.54526 537.000
15.56520 701.000
15.58515 947.000
15.60510 1361.000
15.62504 2060.000
15.64499 3100.000
15.66494 5011.000
15.68488 7459.000
15.70483 9654.000
15.72478 10004.000
15.74472 8197.000
15.76467 5467.000
15.78462 3020.000
15.80457 1431.000
15.82451 719.000
15.84446 519.000
15.86441 383.000
15.88435 361.000
15.90430 270.000
15.92425 217.000
15.94419 239.000
15.96414 200.000
15.98409 175.000
16.00404 170.000
16.02398 163.000
16.04393 148.000
16.06388 150.000
16.08382 143.000
16.10377 133.000
16.12372 128.000
16.14366 122.000
16.16361 133.000
16.18356 122.000
16.20351 98.000
16.22345 92.000
16.24340 102.000
16.26335 114.000
16.28329 85.000
16.30324 106.000
16.32319 96.000
16.34313 113.000
16.36308 117.000
16.38303 102.000
16.40297 109.000
16.42292 98.000
16.44287 77.000
16.46282 101.000
16.48276 88.000
16.50271 88.000
16.52266 100.000
16.54260 91.000
16.56255 87.000
16.58250 88.000
16.60244 75.000
16.62239 84.000
16.64234 71.000
16.66229 95.000
16.68223 88.000
16.70218 107.000
16.72213 83.000
16.74207 103.000
16.76202 85.000
16.78197 97.000
16.80191 71.000
16.82186 77.000
16.84181 92.000
16.86175 92.000
16.88170 108.000
16.90165 81.000
16.92160 82.000
16.94154 80.000
16.96149 82.000
16.98144 76.000
17.00138 82.000
17.02133 83.000
17.04128 79.000
17.06122 88.000
17.08117 90.000
17.10112 75.000
17.12107 87.000
17.14101 80.000
17.16096 74.000
17.18091 87.000
17.20085 63.000
17.22080 75.000
17.24075 79.000
17.26069 70.000
17.28064 82.000
17.30059 87.000
17.32053 78.000
17.34048 62.000
17.36043 70.000
17.38038 85.000
17.40032 93.000
17.42027 91.000
17.44022 68.000
17.46016 74.000
17.48011 64.000
17.50006 85.000
17.52000 75.000
17.53995 86.000
17.55990 75.000
17.57985 77.000
17.59979 81.000
17.61974 70.000
17.63969 87.000
17.65963 67.000
17.67958 89.000
17.69953 90.000
17.71947 76.000
17.73942 73.000
17.75937 77.000
17.77932 68.000
17.79926 84.000
17.81921 78.000
17.83916 77.000
17.85910 75.000
17.87905 86.000
17.89900 63.000
17.91894 73.000
17.93889 83.000
17.95884 58.000
17.97878 74.000
17.99873 75.000
18.01868 59.000
18.03863 73.000
18.05857 75.000
18.07852 91.000
18.09847 80.000
18.11841 98.000
18.13836 72.000
18.15831 97.000
18.17825 84.000
18.19820 89.000
18.21815 98.000
18.23810 59.000
18.25804 73.000
18.27799 62.000
18.29794 70.000
18.31788 72.000
18.33783 71.000
18.35778 80.000
18.37772 80.000
18.39767 76.000
18.41762 58.000
18.43756 81.000
18.45751 71.000
18.47746 67.000
18.49741 72.000
18.51735 74.000
18.53730 82.000
18.55725 54.000
18.57719 59.000
18.59714 87.000
18.61709 73.000
18.63703 74.000
18.65698 93.000
18.67693 71.000
18.69688 87.000
18.71682 83.000
18.73677 79.000
18.75672 72.000
18.77666 97.000
18.79661 83.000
18.81656 80.000
18.83650 77.000
18.85645 72.000
18.87640 68.000
18.89634 83.000
18.91629 72.000
18.93624 70.000
18.95619 78.000
18.97613 72.000
18.99608 74.000
19.01603 86.000
19.03597 77.000
19.05592 71.000
19.07587 86.000
19.09581 68.000
19.11576 80.000
19.13571 83.000
19.15566 74.000
19.17560 72.000
19.19555 62.000
19.21550 77.000
19.23544 94.000
19.25539 82.000
19.27534 83.000
19.29528 76.000
19.31523 77.000
19.33518 78.000
19.35513 75.000
19.37507 82.000
19.39502 84.000
19.41497 69.000
19.43491 67.000
19.45486 77.000
19.47481 75.000
19.49475 79.000
19.51470 65.000
19.53465 73.000
19.55459 67.000
19.57454 70.000
19.59449 91.000
19.61444 78.000
19.63438 71.000
19.65433 75.000
19.67428 80.000
19.69422 65.000
19.71417 74.000
19.73412 61.000
19.75406 68.000
19.77401 71.000
19.79396 79.000
19.81391 78.000
19.83385 78.000
19.85380 79.000
19.87375 76.000
19.89369 69.000
19.91364 75.000
19.93359 78.000
19.95353 72.000
19.97348 78.000
19.99343 75.000
20.01337 78.000
20.03332 62.000
20.05327 65.000
20.07322 71.000
20.09316 90.000
20.11311 74.000
20.13306 84.000
20.15300 68.000
20.17295 91.000
20.19290 76.000
20.21284 83.000
20.23279 66.000
20.25274 81.000
20.27269 90.000
20.29263 70.000
20.31258 74.000
20.33253 70.000
20.35247 65.000
20.37242 85.000
20.39237 93.000
20.41231 86.000
20.43226 64.000
20.45221 84.000
20.47215 71.000
20.49210 60.000
20.51205 82.000
20.53200 60.000
20.55194 79.000
20.57189 80.000
20.59184 86.000
20.61178 61.000
20.63173 70.000
20.65168 72.000
20.67162 75.000
20.69157 76.000
20.71152 70.000
20.73147 79.000
20.75141 67.000
20.77136 60.000
20.79131 79.000
20.81125 74.000
20.83120 66.000
20.85115 70.000
20.87109 78.000
20.89104 76.000
20.91099 84.000
20.93094 93.000
20.95088 96.000
20.97083 77.000
20.99078 82.000
21.01072 82.000
21.03067 76.000
21.05062 79.000
21.07056 78.000
21.09051 103.000
21.11046 93.000
21.13040 100.000
21.15035 91.000
21.17030 81.000
21.19025 96.000
21.21019 83.000
21.23014 85.000
21.25009 91.000
21.27003 71.000
21.28998 65.000
21.30993 70.000
21.32987 82.000
21.34982 80.000
21.36977 87.000
21.38972 76.000
21.40966 76.000
21.42961 82.000
21.44956 79.000
21.46950 66.000
21.48945 74.000
21.50940 80.000
21.52934 92.000
21.54929 96.000
21.56924 75.000
21.58918 63.000
21.60913 72.000
21.62908 74.000
21.64903 71.000
21.66897 61.000
21.68892 86.000
21.70887 93.000
21.72881 81.000
21.74876 76.000
21.76871 84.000
21.78865 66.000
21.80860 84.000
21.82855 94.000
21.84850 86.000
21.86844 84.000
21.88839 89.000
21.90834 59.000
21.92828 106.000
21.94823 88.000
21.96818 64.000
21.98812 77.000
22.00807 78.000
22.02802 79.000
22.04796 66.000
22.06791 70.000
22.08786 91.000
22.10781 87.000
22.12775 91.000
22.14770 66.000
22.16765 91.000
22.18759 82.000
22.20754 79.000
22.22749 70.000
22.24743 72.000
22.26738 87.000
22.28733 72.000
22.30728 71.000
22.32722 82.000
22.34717 91.000
22.36712 91.000
22.38706 77.000
22.40701 73.000
22.42696 73.000
22.44690 87.000
22.46685 81.000
22.48680 88.000
22.50675 85.000
22.52669 70.000
22.54664 77.000
22.56659 81.000
22.58653 65.000
22.60648 68.000
22.62643 81.000
22.64637 85.000
22.66632 62.000
22.68627 90.000
22.70621 81.000
22.72616 83.000
22.74611 64.000
22.76606 76.000
22.78600 85.000
22.80595 82.000
22.82590 78.000
22.84584 90.000
22.86579 89.000
22.88574 88.000
22.90568 77.000
22.92563 87.000
22.94558 78.000
22.96553 79.000
22.98547 84.000
23.00542 77.000
23.02537 100.000
23.04531 74.000
23.06526 79.000
23.08521 96.000
23.10515 88.000
23.12510 77.000
23.14505 82.000
23.16499 94.000
23.18494 74.000
23.20489 85.000
23.22484 71.000
23.24478 84.000
23.26473 83.000
23.28468 81.000
23.30462 90.000
23.32457 90.000
23.34452 92.000
23.36446 72.000
23.38441 71.000
23.40436 85.000
23.42431 96.000
23.44425 70.000
23.46420 71.000
23.48415 82.000
23.50409 80.000
23.52404 74.000
23.54399 73.000
23.56393 80.000
23.58388 75.000
23.60383 78.000
23.62377 79.000
23.64372 79.000
23.66367 73.000
23.68362 80.000
23.70356 86.000
23.72351 74.000
23.74346 79.000
23.76340 62.000
23.78335 84.000
23.80330 79.000
23.82324 80.000
23.84319 95.000
23.86314 77.000
23.88309 74.000
23.90303 79.000
23.92298 67.000
23.94293 86.000
23.96287 74.000
23.98282 81.000
24.00277 87.000
24.02271 82.000
24.04266 79.000
24.06261 76.000
24.08256 91.000
24.10250 70.000
24.12245 79.000
24.14240 103.000
24.16234 96.000
24.18229 69.000
24.20224 100.000
24.22218 84.000
24.24213 81.000
24.26208 79.000
24.28202 75.000
24.30197 81.000
24.32192 83.000
24.34187 89.000
24.36181 98.000
24.38176 96.000
24.40171 93.000
24.42165 79.000
24.44160 61.000
24.46155 78.000
24.48149 82.000
24.50144 69.000
24.52139 95.000
24.54134 72.000
24.56128 78.000
24.58123 73.000
24.60118 72.000
24.62112 95.000
24.64107 72.000
24.66102 96.000
24.68096 77.000
24.70091 82.000
24.72086 96.000
24.74080 80.000
24.76075 78.000
24.78070 81.000
24.80065 81.000
24.82059 86.000
24.84054 86.000
24.86049 124.000
24.88043 92.000
24.90038 95.000
24.92033 88.000
24.94027 69.000
24.96022 85.000
24.98017 90.000
25.00012 75.000
25.02006 66.000
25.04001 66.000
25.05996 90.000
25.07990 92.000
25.09985 82.000
25.11980 109.000
25.13974 79.000
25.15969 67.000
25.17964 83.000
25.19958 77.000
25.21953 83.000
25.23948 76.000
25.25943 88.000
25.27937 82.000
25.29932 90.000
25.31927 73.000
25.33921 98.000
25.35916 101.000
25.37911 95.000
25.39905 92.000
25.41900 97.000
25.43895 92.000
25.45890 97.000
25.47884 79.000
25.49879 107.000
25.51874 104.000
25.53868 96.000
25.55863 102.000
25.57858 84.000
25.59852 104.000
25.61847 76.000
25.63842 92.000
25.65837 106.000
25.67831 91.000
25.69826 90.000
25.71821 92.000
25.73815 86.000
25.75810 76.000
25.77805 89.000
25.79799 91.000
25.81794 101.000
25.83789 104.000
25.85783 78.000
25.87778 103.000
25.89773 100.000
25.91768 91.000
25.93762 87.000
25.95757 90.000
25.97752 72.000
25.99746 78.000
26.01741 96.000
26.03736 103.000
26.05730 81.000
26.07725 94.000
26.09720 94.000
26.11715 94.000
26.13709 88.000
26.15704 89.000
26.17699 94.000
26.19693 93.000
26.21688 96.000
26.23683 81.000
26.25677 89.000
26.27672 75.000
26.29667 94.000
26.31661 91.000
26.33656 92.000
26.35651 91.000
26.37646 92.000
26.39640 100.000
26.41635 80.000
26.43630 77.000
26.45624 78.000
26.47619 91.000
26.49614 95.000
26.51608 83.000
26.53603 87.000
26.55598 79.000
26.57593 96.000
26.59587 84.000
26.61582 93.000
26.63577 84.000
26.65571 102.000
26.67566 80.000
26.69561 90.000
26.71555 84.000
26.73550 86.000
26.75545 79.000
26.77539 84.000
26.79534 77.000
26.81529 91.000
26.83524 100.000
26.85518 99.000
26.87513 89.000
26.89508 82.000
26.91502 86.000
26.93497 85.000
26.95492 76.000
26.97486 84.000
26.99481 103.000
27.01476 84.000
27.03471 96.000
27.05465 82.000
27.07460 99.000
27.09455 90.000
27.11449 75.000
27.13444 91.000
27.15439 94.000
27.17433 84.000
27.19428 87.000
27.21423 92.000
27.23417 85.000
27.25412 81.000
27.27407 102.000
27.29402 80.000
27.31396 92.000
27.33391 88.000
27.35386 86.000
27.37380 98.000
27.39375 80.000
27.41370 91.000
27.43364 85.000
27.45359 86.000
27.47354 80.000
27.49349 85.000
27.51343 99.000
27.53338 95.000
27.55333 89.000
27.57327 70.000
27.59322 103.000
27.61317 98.000
27.63311 80.000
27.65306 91.000
27.67301 84.000
27.69296 97.000
27.71290 91.000
27.73285 109.000
27.75280 97.000
27.77274 100.000
27.79269 103.000
27.81264 88.000
27.83258 81.000
27.85253 89.000
27.87248 88.000
27.89242 91.000
27.91237 73.000
27.93232 91.000
27.95227 90.000
27.97221 100.000
27.99216 96.000
28.01211 102.000
28.03205 97.000
28.05200 91.000
28.07195 98.000
28.09189 97.000
28.11184 98.000
28.13179 111.000
28.15174 81.000
28.17168 77.000
28.19163 88.000
28.21158 71.000
28.23152 76.000
28.25147 107.000
28.27142 102.000
28.29136 97.000
28.31131 93.000
28.33126 76.000
28.35120 76.000
28.37115 94.000
28.39110 92.000
28.41105 89.000
28.43099 100.000
28.45094 92.000
28.47089 96.000
28.49083 63.000
28.51078 81.000
28.53073 74.000
28.55067 83.000
28.57062 87.000
28.59057 106.000
28.61052 86.000
28.63046 90.000
28.65041 98.000
28.67036 94.000
28.69030 88.000
28.71025 80.000
28.73020 76.000
28.75014 104.000
28.77009 87.000
28.79004 79.000
28.80998 76.000
28.82993 80.000
28.84988 73.000
28.86983 83.000
28.88977 88.000
28.90972 88.000
28.92967 78.000
28.94961 90.000
28.96956 90.000
28.98951 84.000
29.00945 85.000
29.02940 100.000
29.04935 87.000
29.06930 83.000
29.08924 74.000
29.10919 90.000
29.12914 76.000
29.14908 84.000
29.16903 87.000
29.18898 85.000
29.20892 112.000
29.22887 89.000
29.24882 92.000
29.26877 106.000
29.28871 96.000
29.30866 90.000
29.32861 78.000
29.34855 86.000
29.36850 81.000
29.38845 97.000
29.40839 83.000
29.42834 89.000
29.44829 96.000
29.46823 89.000
29.48818 93.000
29.50813 99.000
29.52808 89.000
29.54802 95.000
29.56797 89.000
29.58792 86.000
29.60786 96.000
29.62781 98.000
29.64776 86.000
29.66770 95.000
29.68765 99.000
29.70760 87.000
29.72755 72.000
29.74749 88.000
29.76744 70.000
29.78739 93.000
29.80733 96.000
29.82728 70.000
29.84723 90.000
29.86717 88.000
29.88712 111.000
29.90707 105.000
29.92701 86.000
29.94696 105.000
29.96691 106.000
29.98686 106.000
30.00680 89.000
30.02675 98.000
30.04670 111.000
30.06664 107.000
30.08659 106.000
30.10654 113.000
30.12648 128.000
30.14643 105.000
30.16638 113.000
30.18633 116.000
30.20627 106.000
30.22622 88.000
30.24617 116.000
30.26611 87.000
30.28606 113.000
30.30601 85.000
30.32595 104.000
30.34590 109.000
30.36585 73.000
30.38579 106.000
30.40574 107.000
30.42569 96.000
30.44564 96.000
30.46558 100.000
30.48553 102.000
30.50548 82.000
30.52542 88.000
30.54537 82.000
30.56532 83.000
30.58526 95.000
30.60521 96.000
30.62516 105.000
30.64511 89.000
30.66505 105.000
30.68500 103.000
30.70495 88.000
30.72489 103.000
30.74484 97.000
30.76479 95.000
30.78473 88.000
30.80468 89.000
30.82463 92.000
30.84458 101.000
30.86452 84.000
30.88447 100.000
30.90442 77.000
30.92436 97.000
30.94431 93.000
30.96426 98.000
30.98420 98.000
31.00415 93.000
31.02410 92.000
31.04404 87.000
31.06399 91.000
31.08394 82.000
31.10389 101.000
31.12383 100.000
31.14378 89.000
31.16373 95.000
31.18367 84.000
31.20362 88.000
31.22357 102.000
31.24351 87.000
31.26346 98.000
31.28341 97.000
31.30336 100.000
31.32330 111.000
31.34325 100.000
31.36320 111.000
31.38314 121.000
31.40309 103.000
31.42304 108.000
31.44298 106.000
31.46293 111.000
31.48288 109.000
31.50282 123.000
31.52277 151.000
31.54272 141.000
31.56267 166.000
31.58261 194.000
31.60256 242.000
31.62251 337.000
31.64245 403.000
31.66240 570.000
31.68235 637.000
31.70229 737.000
31.72224 770.000
31.74219 747.000
31.76214 600.000
31.78208 577.000
31.80203 424.000
31.82198 393.000
31.84192 282.000
31.86187 176.000
31.88182 165.000
31.90176 134.000
31.92171 116.000
31.94166 109.000
31.96160 88.000
31.98155 103.000
32.00150 106.000
32.02145 85.000
32.04139 105.000
32.06134 83.000
32.08129 84.000
32.10123 76.000
32.12118 94.000
32.14113 91.000
32.16107 85.000
32.18102 91.000
32.20097 99.000
32.22092 92.000
32.24086 96.000
32.26081 97.000
32.28076 70.000
32.30070 90.000
32.32065 75.000
32.34060 97.000
32.36054 83.000
32.38049 101.000
32.40044 92.000
32.42039 97.000
32.44033 91.000
32.46028 80.000
32.48023 105.000
32.50017 98.000
32.52012 109.000
32.54007 105.000
32.56001 110.000
32.57996 86.000
32.59991 94.000
32.61985 107.000
32.63980 113.000
32.65975 98.000
32.67970 98.000
32.69964 87.000
32.71959 100.000
32.73954 73.000
32.75948 82.000
32.77943 85.000
32.79938 101.000
32.81932 85.000
32.83927 94.000
32.85922 94.000
32.87917 98.000
32.89911 92.000
32.91906 86.000
32.93901 86.000
32.95895 82.000
32.97890 73.000
32.99885 90.000
33.01879 111.000
33.03874 89.000
33.05869 102.000
33.07863 101.000
33.09858 92.000
33.11853 87.000
33.13848 80.000
33.15842 86.000
33.17837 94.000
33.19832 93.000
33.21826 87.000
33.23821 90.000
33.25816 97.000
33.27810 72.000
33.29805 101.000
33.31800 85.000
33.33795 87.000
33.35789 76.000
33.37784 82.000
33.39779 101.000
33.41773 76.000
33.43768 98.000
33.45763 88.000
33.47757 86.000
33.49752 64.000
33.51747 107.000
33.53741 87.000
33.55736 80.000
33.57731 90.000
33.59726 86.000
33.61720 91.000
33.63715 114.000
33.65710 110.000
33.67704 113.000
33.69699 87.000
33.71694 100.000
33.73688 79.000
33.75683 90.000
33.77678 97.000
33.79673 85.000
33.81667 102.000
33.83662 85.000
33.85657 91.000
33.87651 83.000
33.89646 74.000
33.91641 92.000
33.93635 78.000
33.95630 71.000
33.97625 99.000
33.99620 89.000
34.01614 83.000
34.03609 96.000
34.05604 95.000
34.07598 84.000
34.09593 95.000
34.11588 78.000
34.13582 94.000
34.15577 84.000
34.17572 101.000
34.19566 93.000
34.21561 101.000
34.23556 90.000
34.25551 103.000
34.27545 104.000
34.29540 88.000
34.31535 101.000
34.33529 90.000
34.35524 85.000
34.37519 95.000
34.39513 94.000
34.41508 97.000
34.43503 87.000
34.45498 102.000
34.47492 101.000
34.49487 81.000
34.51482 95.000
34.53476 101.000
34.55471 92.000
34.57466 85.000
34.59460 82.000
34.61455 110.000
34.63450 83.000
34.65444 107.000
34.67439 101.000
34.69434 117.000
34.71429 89.000
34.73423 109.000
34.75418 109.000
34.77413 111.000
34.79407 82.000
34.81402 112.000
34.83397 90.000
34.85391 85.000
34.87386 84.000
34.89381 104.000
34.91376 119.000
34.93370 114.000
34.95365 102.000
34.97360 100.000
34.99354 111.000
35.01349 102.000
35.03344 99.000
35.05338 95.000
35.07333 109.000
35.09328 111.000
35.11322 124.000
35.13317 106.000
35.15312 115.000
35.17307 124.000
35.19301 148.000
35.21296 147.000
35.23291 146.000
35.25285 141.000
35.27280 144.000
35.29275 132.000
35.31269 151.000
35.33264 138.000
35.35259 136.000
35.37254 133.000
35.39248 115.000
35.41243 176.000
35.43238 155.000
35.45232 173.000
35.47227 194.000
35.49222 181.000
35.51216 209.000
35.53211 256.000
35.55206 279.000
35.57201 309.000
35.59195 317.000
35.61190 383.000
35.63185 437.000
35.65179 596.000
35.67174 754.000
35.69169 873.000
35.71163 1043.000
35.73158 1051.000
35.75153 998.000
35.77147 866.000
35.79142 771.000
35.81137 664.000
35.83132 644.000
35.85126 503.000
35.87121 395.000
35.89116 312.000
35.91110 230.000
35.93105 206.000
35.95100 174.000
35.97094 159.000
35.99089 146.000
36.01084 133.000
36.03079 113.000
36.05073 137.000
36.07068 115.000
36.09063 109.000
36.11057 115.000
36.13052 116.000
36.15047 100.000
36.17041 118.000
36.19036 102.000
36.21031 100.000
36.23025 105.000
36.25020 96.000
36.27015 119.000
36.29010 84.000
36.31004 110.000
36.32999 99.000
36.34994 106.000
36.36988 96.000
36.38983 99.000
36.40978 121.000
36.42972 107.000
36.44967 110.000
36.46962 111.000
36.48957 108.000
36.50951 118.000
36.52946 104.000
36.54941 150.000
36.56935 147.000
36.58930 149.000
36.60925 194.000
36.62919 200.000
36.64914 174.000
36.66909 157.000
36.68903 168.000
36.70898 141.000
36.72893 159.000
36.74888 141.000
36.76882 117.000
36.78877 122.000
36.80872 121.000
36.82866 120.000
36.84861 90.000
36.86856 81.000
36.88850 105.000
36.90845 88.000
36.92840 97.000
36.94835 92.000
36.96829 79.000
36.98824 101.000
37.00819 96.000
37.02813 111.000
37.04808 82.000
37.06803 98.000
37.08797 77.000
37.10792 94.000
37.12787 79.000
37.14781 99.000
37.16776 92.000
37.18771 77.000
37.20766 107.000
37.22760 107.000
37.24755 84.000
37.26750 100.000
37.28744 96.000
37.30739 101.000
37.32734 89.000
37.34728 90.000
37.36723 93.000
37.38718 95.000
37.40713 83.000
37.42707 106.000
37.44702 89.000
37.46697 92.000
37.48691 100.000
37.50686 122.000
37.52681 117.000
37.54675 117.000
37.56670 100.000
37.58665 101.000
37.60660 85.000
37.62654 100.000
37.64649 101.000
37.66644 101.000
37.68638 106.000
37.70633 88.000
37.72628 93.000
37.74622 115.000
37.76617 88.000
37.78612 101.000
37.80606 103.000
37.82601 108.000
37.84596 126.000
37.86591 122.000
37.88585 103.000
37.90580 114.000
37.92575 131.000
37.94569 104.000
37.96564 133.000
37.98559 121.000
38.00553 119.000
38.02548 118.000
38.04543 115.000
38.06538 123.000
38.08532 133.000
38.10527 104.000
38.12522 124.000
38.14516 103.000
38.16511 131.000
38.18506 118.000
38.20500 108.000
38.22495 109.000
38.24490 112.000
38.26484 134.000
38.28479 125.000
38.30474 124.000
38.32469 109.000
38.34463 105.000
38.36458 120.000
38.38453 123.000
38.40447 119.000
38.42442 116.000
38.44437 135.000
38.46431 114.000
38.48426 132.000
38.50421 135.000
38.52416 150.000
38.54410 122.000
38.56405 121.000
38.58400 143.000
38.60394 126.000
38.62389 158.000
38.64384 150.000
38.66378 160.000
38.68373 179.000
38.70368 231.000
38.72362 230.000
38.74357 242.000
38.76352 290.000
38.78347 322.000
38.80341 274.000
38.82336 245.000
38.84331 255.000
38.86325 244.000
38.88320 240.000
38.90315 226.000
38.92309 216.000
38.94304 211.000
38.96299 257.000
38.98294 228.000
39.00288 269.000
39.02283 274.000
39.04278 280.000
39.06272 307.000
39.08267 372.000
39.10262 405.000
39.12256 449.000
39.14251 628.000
39.16246 914.000
39.18241 1282.000
39.20235 1765.000
39.22230 1987.000
39.24225 1877.000
39.26219 1604.000
39.28214 1458.000
39.30209 1425.000
39.32203 1389.000
39.34198 1177.000
39.36193 992.000
39.38187 741.000
39.40182 520.000
39.42177 443.000
39.44172 332.000
39.46166 286.000
39.48161 249.000
39.50156 191.000
39.52150 209.000
39.54145 176.000
39.56140 172.000
39.58134 127.000
39.60129 136.000
39.62124 135.000
39.64119 115.000
39.66113 124.000
39.68108 111.000
39.70103 119.000
39.72097 125.000
39.74092 104.000
39.76087 107.000
39.78081 102.000
39.80076 123.000
39.82071 115.000
39.84065 105.000
39.86060 112.000
39.88055 119.000
39.90050 127.000
39.92044 125.000
39.94039 111.000
39.96034 106.000
39.98028 113.000
40.00023 104.000
40.02018 109.000
40.04012 106.000
40.06007 96.000
40.08002 93.000
40.09997 85.000
40.11991 94.000
40.13986 112.000
40.15981 119.000
40.17975 88.000
40.19970 96.000
40.21965 105.000
40.23959 99.000
40.25954 105.000
40.27949 78.000
40.29943 67.000
40.31938 92.000
40.33933 94.000
40.35928 88.000
40.37922 83.000
40.39917 98.000
40.41912 90.000
40.43906 93.000
40.45901 85.000
40.47896 92.000
40.49890 97.000
40.51885 117.000
40.53880 93.000
40.55875 94.000
40.57869 85.000
40.59864 95.000
40.61859 88.000
40.63853 86.000
40.65848 85.000
40.67843 85.000
40.69837 83.000
40.71832 91.000
40.73827 94.000
40.75822 78.000
40.77816 91.000
40.79811 83.000
40.81806 77.000
40.83800 86.000
40.85795 94.000
40.87790 89.000
40.89784 86.000
40.91779 92.000
40.93774 91.000
40.95768 99.000
40.97763 95.000
40.99758 81.000
41.01753 98.000
41.03747 90.000
41.05742 88.000
41.07737 96.000
41.09731 98.000
41.11726 97.000
41.13721 91.000
41.15715 107.000
41.17710 84.000
41.19705 89.000
41.21700 85.000
41.23694 96.000
41.25689 91.000
41.27684 91.000
41.29678 91.000
41.31673 86.000
41.33668 83.000
41.35662 93.000
41.37657 98.000
41.39652 95.000
41.41646 94.000
41.43641 103.000
41.45636 104.000
41.47631 98.000
41.49625 98.000
41.51620 94.000
41.53615 112.000
41.55609 90.000
41.57604 100.000
41.59599 103.000
41.61593 98.000
41.63588 95.000
41.65583 89.000
41.67578 74.000
41.69572 75.000
41.71567 101.000
41.73562 83.000
41.75556 81.000
41.77551 88.000
41.79546 66.000
41.81540 89.000
41.83535 96.000
41.85530 86.000
41.87524 101.000
41.89519 86.000
41.91514 86.000
41.93509 81.000
41.95503 82.000
41.97498 87.000
41.99493 95.000
42.01487 91.000
42.03482 94.000
42.05477 73.000
42.07471 79.000
42.09466 84.000
42.11461 82.000
42.13456 84.000
42.15450 92.000
42.17445 84.000
42.19440 89.000
42.21434 85.000
42.23429 92.000
42.25424 87.000
42.27418 90.000
42.29413 96.000
42.31408 81.000
42.33403 101.000
42.35397 75.000
42.37392 77.000
42.39387 97.000
42.41381 78.000
42.43376 100.000
42.45371 94.000
42.47365 88.000
42.49360 105.000
42.51355 99.000
42.53349 88.000
42.55344 114.000
42.57339 95.000
42.59334 85.000
42.61328 93.000
42.63323 101.000
42.65318 92.000
42.67312 87.000
42.69307 95.000
42.71302 119.000
42.73296 96.000
42.75291 105.000
42.77286 88.000
42.79281 97.000
42.81275 103.000
42.83270 101.000
42.85265 116.000
42.87259 105.000
42.89254 111.000
42.91249 103.000
42.93243 97.000
42.95238 115.000
42.97233 123.000
42.99227 114.000
43.01222 115.000
43.03217 122.000
43.05212 148.000
43.07206 128.000
43.09201 147.000
43.11196 158.000
43.13190 200.000
43.15185 175.000
43.17180 232.000
43.19174 260.000
43.21169 366.000
43.23164 513.000
43.25159 624.000
43.27153 736.000
43.29148 724.000
43.31143 626.000
43.33137 557.000
43.35132 539.000
43.37127 558.000
43.39121 496.000
43.41116 397.000
43.43111 355.000
43.45105 263.000
43.47100 251.000
43.49095 182.000
43.51090 173.000
43.53084 158.000
43.55079 146.000
43.57074 141.000
43.59068 130.000
43.61063 104.000
43.63058 102.000
43.65052 110.000
43.67047 107.000
43.69042 108.000
43.71037 103.000
43.73031 99.000
43.75026 93.000
43.77021 109.000
43.79015 100.000
43.81010 112.000
43.83005 94.000
43.84999 103.000
43.86994 104.000
43.88989 106.000
43.90984 88.000
43.92978 94.000
43.94973 76.000
43.96968 89.000
43.98962 90.000
44.00957 88.000
44.02952 71.000
44.04946 83.000
44.06941 79.000
44.08936 93.000
44.10930 93.000
44.12925 90.000
44.14920 98.000
44.16915 89.000
44.18909 85.000
44.20904 83.000
44.22899 73.000
44.24893 66.000
44.26888 92.000
44.28883 87.000
44.30877 81.000
44.32872 104.000
44.34867 88.000
44.36862 96.000
44.38856 82.000
44.40851 96.000
44.42846 92.000
44.44840 82.000
44.46835 74.000
44.48830 86.000
44.50824 82.000
44.52819 81.000
44.54814 98.000
44.56808 105.000
44.58803 79.000
44.60798 116.000
44.62793 100.000
44.64787 109.000
44.66782 84.000
44.68777 79.000
44.70771 89.000
44.72766 75.000
44.74761 86.000
44.76755 95.000
44.78750 94.000
44.80745 99.000
44.82740 90.000
44.84734 89.000
44.86729 84.000
44.88724 75.000
44.90718 84.000
44.92713 93.000
44.94708 71.000
44.96702 67.000
44.98697 90.000
45.00692 91.000
45.02686 75.000
45.04681 90.000
45.06676 85.000
45.08671 82.000
45.10665 81.000
45.12660 64.000
45.14655 79.000
45.16649 82.000
45.18644 97.000
45.20639 101.000
45.22633 80.000
45.24628 89.000
45.26623 86.000
45.28618 87.000
45.30612 87.000
45.32607 84.000
45.34602 83.000
45.36596 98.000
45.38591 97.000
45.40586 77.000
45.42580 92.000
45.44575 92.000
45.46570 86.000
45.48565 72.000
45.50559 76.000
45.52554 87.000
45.54549 79.000
45.56543 84.000
45.58538 75.000
45.60533 104.000
45.62527 84.000
45.64522 94.000
45.66517 74.000
45.68511 95.000
45.70506 84.000
45.72501 85.000
45.74496 83.000
45.76490 91.000
45.78485 87.000
45.80480 95.000
45.82474 91.000
45.84469 80.000
45.86464 91.000
45.88458 90.000
45.90453 81.000
45.92448 89.000
45.94443 81.000
45.96437 80.000
45.98432 96.000
46.00427 94.000
46.02421 79.000
46.04416 77.000
46.06411 83.000
46.08405 94.000
46.10400 92.000
46.12395 87.000
46.14389 88.000
46.16384 106.000
46.18379 91.000
46.20374 93.000
46.22368 99.000
46.24363 97.000
46.26358 103.000
46.28352 98.000
46.30347 92.000
46.32342 93.000
46.34336 93.000
46.36331 96.000
46.38326 87.000
46.40321 100.000
46.42315 91.000
46.44310 97.000
46.46305 75.000
46.48299 107.000
46.50294 97.000
46.52289 90.000
46.54283 83.000
46.56278 94.000
46.58273 106.000
46.60267 86.000
46.62262 106.000
46.64257 96.000
46.66252 87.000
46.68246 80.000
46.70241 93.000
46.72236 97.000
46.74230 80.000
46.76225 107.000
46.78220 97.000
46.80214 91.000
46.82209 97.000
46.84204 114.000
46.86199 95.000
46.88193 97.000
46.90188 99.000
46.92183 93.000
46.94177 88.000
46.96172 92.000
46.98167 71.000
47.00161 80.000
47.02156 89.000
47.04151 100.000
47.06146 83.000
47.08140 100.000
47.10135 94.000
47.12130 85.000
47.14124 99.000
47.16119 82.000
47.18114 81.000
47.20108 92.000
47.22103 105.000
47.24098 83.000
47.26092 77.000
47.28087 101.000
47.30082 103.000
47.32077 81.000
47.34071 91.000
47.36066 89.000
47.38061 82.000
47.40055 99.000
47.42050 72.000
47.44045 71.000
47.46039 124.000
47.48034 81.000
47.50029 85.000
47.52024 101.000
47.54018 96.000
47.56013 104.000
47.58008 99.000
47.60002 102.000
47.61997 82.000
47.63992 77.000
47.65986 102.000
47.67981 86.000
47.69976 99.000
47.71970 105.000
47.73965 99.000
47.75960 110.000
47.77955 120.000
47.79949 111.000
47.81944 94.000
47.83939 138.000
47.85933 110.000
47.87928 96.000
47.89923 98.000
47.91917 114.000
47.93912 124.000
47.95907 121.000
47.97902 103.000
47.99896 115.000
48.01891 132.000
48.03886 136.000
48.05880 150.000
48.07875 140.000
48.09870 151.000
48.11864 152.000
48.13859 148.000
48.15854 165.000
48.17848 187.000
48.19843 181.000
48.21838 202.000
48.23833 194.000
48.25827 238.000
48.27822 259.000
48.29817 296.000
48.31811 291.000
48.33806 351.000
48.35801 431.000
48.37795 511.000
48.39790 614.000
48.41785 776.000
48.43780 1143.000
48.45774 1453.000
48.47769 1618.000
48.49764 1570.000
48.51758 1418.000
48.53753 1270.000
48.55748 1096.000
48.57742 1032.000
48.59737 1120.000
48.61732 1002.000
48.63726 919.000
48.65721 703.000
48.67716 583.000
48.69711 460.000
48.71705 377.000
48.73700 316.000
48.75695 268.000
48.77689 235.000
48.79684 193.000
48.81679 212.000
48.83673 159.000
48.85668 178.000
48.87663 150.000
48.89658 149.000
48.91652 151.000
48.93647 138.000
48.95642 137.000
48.97636 156.000
48.99631 118.000
49.01626 127.000
49.03620 134.000
49.05615 102.000
49.07610 108.000
49.09605 99.000
49.11599 114.000
49.13594 94.000
49.15589 122.000
49.17583 99.000
49.19578 88.000
49.21573 86.000
49.23567 115.000
49.25562 109.000
49.27557 83.000
49.29551 111.000
49.31546 113.000
49.33541 95.000
49.35536 108.000
49.37530 107.000
49.39525 84.000
49.41520 108.000
49.43514 107.000
49.45509 95.000
49.47504 83.000
49.49498 88.000
49.51493 112.000
49.53488 77.000
49.55483 104.000
49.57477 82.000
49.59472 71.000
49.61467 95.000
49.63461 89.000
49.65456 85.000
49.67451 87.000
49.69445 92.000
49.71440 66.000
49.73435 77.000
49.75429 90.000
49.77424 77.000
49.79419 88.000
49.81414 93.000
49.83408 85.000
49.85403 87.000
49.87398 93.000
49.89392 91.000
49.91387 88.000
49.93382 98.000
49.95376 79.000
49.97371 99.000
49.99366 93.000
50.01361 95.000
50.03355 77.000
50.05350 98.000
50.07345 82.000
50.09339 77.000
50.11334 79.000
50.13329 95.000
50.15323 89.000
50.17318 77.000
50.19313 84.000
50.21307 76.000
50.23302 84.000
50.25297 82.000
50.27292 76.000
50.29286 87.000
50.31281 82.000
50.33276 74.000
50.35270 81.000
50.37265 73.000
50.39260 86.000
50.41254 96.000
50.43249 100.000
50.45244 83.000
50.47239 96.000
50.49233 82.000
50.51228 91.000
50.53223 79.000
50.55217 96.000
50.57212 77.000
50.59207 88.000
50.61201 77.000
50.63196 73.000
50.65191 91.000
50.67186 81.000
50.69180 89.000
50.71175 91.000
50.73170 77.000
50.75164 65.000
50.77159 86.000
50.79154 89.000
50.81148 92.000
50.83143 72.000
50.85138 70.000
50.87132 76.000
50.89127 93.000
50.91122 78.000
50.93117 74.000
50.95111 70.000
50.97106 98.000
50.99101 67.000
51.01095 83.000
51.03090 88.000
51.05085 90.000
51.07079 85.000
51.09074 72.000
51.11069 78.000
51.13064 85.000
51.15058 81.000
51.17053 90.000
51.19048 67.000
51.21042 77.000
51.23037 91.000
51.25032 94.000
51.27026 85.000
51.29021 77.000
51.31016 88.000
51.33010 71.000
51.35005 83.000
51.37000 96.000
51.38995 89.000
51.40989 90.000
51.42984 85.000
51.44979 72.000
51.46973 79.000
51.48968 91.000
51.50963 78.000
51.52957 66.000
51.54952 85.000
51.56947 67.000
51.58942 81.000
51.60936 69.000
51.62931 84.000
51.64926 66.000
51.66920 74.000
51.68915 76.000
51.70910 92.000
51.72904 87.000
51.74899 66.000
51.76894 73.000
51.78888 73.000
51.80883 79.000
51.82878 78.000
51.84873 80.000
51.86867 80.000
51.88862 75.000
51.90857 70.000
51.92851 89.000
51.94846 87.000
51.96841 90.000
51.98835 77.000
52.00830 88.000
52.02825 101.000
52.04820 105.000
52.06814 88.000
52.08809 85.000
52.10804 83.000
52.12798 77.000
52.14793 97.000
52.16788 78.000
52.18782 74.000
52.20777 76.000
52.22772 85.000
52.24767 93.000
52.26761 87.000
52.28756 86.000
52.30751 93.000
52.32745 74.000
52.34740 96.000
52.36735 69.000
52.38729 66.000
52.40724 78.000
52.42719 87.000
52.44713 83.000
52.46708 77.000
52.48703 90.000
52.50698 87.000
52.52692 91.000
52.54687 74.000
52.56682 79.000
52.58676 80.000
52.60671 81.000
52.62666 77.000
52.64660 96.000
52.66655 65.000
52.68650 106.000
52.70645 76.000
52.72639 89.000
52.74634 98.000
52.76629 84.000
52.78623 85.000
52.80618 69.000
52.82613 88.000
52.84607 78.000
52.86602 69.000
52.88597 69.000
52.90591 70.000
52.92586 77.000
52.94581 78.000
52.96576 81.000
52.98570 85.000
53.00565 76.000
53.02560 100.000
53.04554 84.000
53.06549 74.000
53.08544 86.000
53.10538 99.000
53.12533 75.000
53.14528 66.000
53.16523 76.000
53.18517 95.000
53.20512 88.000
53.22507 91.000
53.24501 71.000
53.26496 69.000
53.28491 74.000
53.30485 82.000
53.32480 78.000
53.34475 65.000
53.36469 88.000
53.38464 103.000
53.40459 77.000
53.42454 96.000
53.44448 96.000
53.46443 89.000
53.48438 107.000
53.50432 106.000
53.52427 85.000
53.54422 92.000
53.56416 95.000
53.58411 89.000
53.60406 86.000
53.62401 91.000
53.64395 98.000
53.66390 94.000
53.68385 98.000
53.70379 81.000
53.72374 89.000
53.74369 85.000
53.76363 87.000
53.78358 75.000
53.80353 79.000
53.82348 74.000
53.84342 95.000
53.86337 78.000
53.88332 71.000
53.90326 88.000
53.92321 88.000
53.94316 106.000
53.96310 90.000
53.98305 74.000
54.00300 95.000
54.02294 74.000
54.04289 88.000
54.06284 74.000
54.08279 86.000
54.10273 67.000
54.12268 86.000
54.14263 92.000
54.16257 79.000
54.18252 85.000
54.20247 94.000
54.22241 79.000
54.24236 69.000
54.26231 72.000
54.28226 92.000
54.30220 84.000
54.32215 74.000
54.34210 75.000
54.36204 93.000
54.38199 73.000
54.40194 68.000
54.42188 101.000
54.44183 84.000
54.46178 93.000
54.48172 77.000
54.50167 79.000
54.52162 91.000
54.54157 74.000
54.56151 87.000
54.58146 79.000
54.60141 82.000
54.62135 92.000
54.64130 66.000
54.66125 90.000
54.68119 76.000
54.70114 79.000
54.72109 70.000
54.74104 78.000
54.76098 76.000
54.78093 71.000
54.80088 86.000
54.82082 72.000
54.84077 90.000
54.86072 80.000
54.88066 78.000
54.90061 83.000
54.92056 89.000
54.94050 74.000
54.96045 68.000
54.98040 79.000
55.00035 74.000
55.02029 68.000
55.04024 87.000
55.06019 89.000
55.08013 84.000
55.10008 66.000
55.12003 71.000
55.13997 72.000
55.15992 87.000
55.17987 72.000
55.19982 79.000
55.21976 89.000
55.23971 63.000
55.25966 72.000
55.27960 91.000
55.29955 80.000
55.31950 101.000
55.33944 87.000
55.35939 73.000
55.37934 68.000
55.39929 79.000
55.41923 84.000
55.43918 81.000
55.45913 81.000
55.47907 87.000
55.49902 86.000
55.51897 87.000
55.53891 83.000
55.55886 62.000
55.57881 87.000
55.59875 63.000
55.61870 87.000
55.63865 91.000
55.65860 87.000
55.67854 69.000
55.69849 75.000
55.71844 91.000
55.73838 81.000
55.75833 73.000
55.77828 98.000
55.79822 73.000
55.81817 85.000
55.83812 68.000
55.85807 69.000
55.87801 98.000
55.89796 84.000
55.91791 91.000
55.93785 77.000
55.95780 80.000
55.97775 74.000
55.99769 77.000
56.01764 80.000
56.03759 75.000
56.05753 96.000
56.07748 90.000
56.09743 88.000
56.11738 84.000
56.13732 76.000
56.15727 87.000
56.17722 79.000
56.19716 78.000
56.21711 77.000
56.23706 79.000
56.25700 83.000
56.27695 111.000
56.29690 84.000
56.31685 71.000
56.33679 80.000
56.35674 71.000
56.37669 70.000
56.39663 76.000
56.41658 92.000
56.43653 83.000
56.45647 85.000
56.47642 97.000
56.49637 84.000
56.51631 70.000
56.53626 75.000
56.55621 83.000
56.57616 82.000
56.59610 89.000
56.61605 85.000
56.63600 75.000
56.65594 79.000
56.67589 77.000
56.69584 89.000
56.71578 73.000
56.73573 83.000
56.75568 87.000
56.77563 93.000
56.79557 95.000
56.81552 97.000
56.83547 75.000
56.85541 92.000
56.87536 85.000
56.89531 87.000
56.91525 74.000
56.93520 77.000
56.95515 79.000
56.97510 71.000
56.99504 85.000
57.01499 90.000
57.03494 83.000
57.05488 84.000
57.07483 74.000
57.09478 72.000
57.11472 87.000
57.13467 80.000
57.15462 90.000
57.17456 84.000
57.19451 77.000
57.21446 84.000
57.23441 94.000
57.25435 72.000
57.27430 80.000
57.29425 85.000
57.31419 86.000
57.33414 88.000
57.35409 86.000
57.37403 81.000
57.39398 88.000
57.41393 95.000
57.43388 79.000
57.45382 76.000
57.47377 74.000
57.49372 85.000
57.51366 93.000
57.53361 85.000
57.55356 70.000
57.57350 86.000
57.59345 65.000
57.61340 71.000
57.63334 77.000
57.65329 83.000
57.67324 71.000
57.69319 70.000
57.71313 88.000
57.73308 84.000
57.75303 70.000
57.77297 72.000
57.79292 77.000
57.81287 70.000
57.83281 91.000
57.85276 64.000
57.87271 87.000
57.89266 75.000
57.91260 81.000
57.93255 88.000
57.95250 75.000
57.97244 77.000
57.99239 86.000
58.01234 95.000
58.03228 92.000
58.05223 80.000
58.07218 79.000
58.09212 84.000
58.11207 75.000
58.13202 75.000
58.15197 84.000
58.17191 92.000
58.19186 77.000
58.21181 101.000
58.23175 101.000
58.25170 85.000
58.27165 101.000
58.29159 94.000
58.31154 92.000
58.33149 88.000
58.35144 97.000
58.37138 79.000
58.39133 90.000
58.41128 90.000
58.43122 105.000
58.45117 88.000
58.47112 90.000
58.49106 88.000
58.51101 95.000
58.53096 100.000
58.55090 91.000
58.57085 85.000
58.59080 85.000
58.61075 95.000
58.63069 86.000
58.65064 88.000
58.67059 92.000
58.69053 75.000
58.71048 81.000
58.73043 85.000
58.75037 85.000
58.77032 115.000
58.79027 97.000
58.81022 94.000
58.83016 95.000
58.85011 64.000
58.87006 87.000
58.89000 101.000
58.90995 82.000
58.92990 79.000
58.94984 82.000
58.96979 89.000
58.98974 85.000
59.00969 89.000
59.02963 88.000
59.04958 85.000
59.06953 83.000
59.08947 72.000
59.10942 87.000
59.12937 93.000
59.14931 85.000
59.16926 91.000
59.18921 80.000
59.20915 82.000
59.22910 73.000
59.24905 78.000
59.26900 77.000
59.28894 88.000
59.30889 76.000
59.32884 94.000
59.34878 89.000
59.36873 77.000
59.38868 83.000
59.40862 69.000
59.42857 87.000
59.44852 87.000
59.46847 80.000
59.48841 86.000
59.50836 90.000
59.52831 81.000
59.54825 94.000
59.56820 71.000
59.58815 88.000
59.60809 76.000
59.62804 71.000
59.64799 82.000
59.66793 69.000
59.68788 88.000
59.70783 78.000
59.72778 81.000
59.74772 83.000
59.76767 86.000
59.78762 78.000
59.80756 85.000
59.82751 86.000
59.84746 78.000
59.86740 86.000
59.88735 89.000
59.90730 74.000
59.92725 89.000
59.94719 79.000
59.96714 77.000
59.98709 92.000
60.00703 80.000
60.02698 67.000
60.04693 88.000
60.06687 76.000
60.08682 80.000
60.10677 89.000
60.12671 67.000
60.14666 81.000
60.16661 88.000
60.18656 76.000
60.20650 80.000
60.22645 104.000
60.24640 94.000
60.26634 82.000
60.28629 70.000
60.30624 86.000
60.32618 94.000
60.34613 83.000
60.36608 102.000
60.38603 88.000
60.40597 96.000
60.42592 87.000
60.44587 81.000
60.46581 83.000
60.48576 83.000
60.50571 92.000
60.52565 86.000
60.54560 84.000
60.56555 74.000
60.58550 77.000
60.60544 80.000
60.62539 104.000
60.64534 93.000
60.66528 92.000
60.68523 76.000
60.70518 114.000
60.72512 88.000
60.74507 78.000
60.76502 77.000
60.78496 97.000
60.80491 95.000
60.82486 66.000
60.84481 99.000
60.86475 99.000
60.88470 96.000
60.90465 80.000
60.92459 84.000
60.94454 105.000
60.96449 87.000
60.98443 105.000
61.00438 107.000
61.02433 100.000
61.04428 97.000
61.06422 96.000
61.08417 112.000
61.10412 119.000
61.12406 100.000
61.14401 118.000
61.16396 95.000
61.18390 112.000
61.20385 122.000
61.22380 136.000
61.24374 127.000
61.26369 135.000
61.28364 137.000
61.30359 175.000
61.32353 157.000
61.34348 159.000
61.36343 195.000
61.38337 189.000
61.40332 202.000
61.42327 280.000
61.44321 330.000
61.46316 359.000
61.48311 421.000
61.50306 533.000
61.52300 606.000
61.54295 687.000
61.56290 673.000
61.58284 586.000
61.60279 548.000
61.62274 536.000
61.64268 467.000
61.66263 471.000
61.68258 422.000
61.70252 433.000
61.72247 459.000
61.74242 358.000
61.76237 335.000
61.78231 302.000
61.80226 246.000
61.82221 191.000
61.84215 203.000
61.86210 166.000
61.88205 143.000
61.90199 157.000
61.92194 153.000
61.94189 141.000
61.96184 117.000
61.98178 125.000
62.00173 122.000
62.02168 119.000
62.04162 116.000
62.06157 119.000
62.08152 134.000
62.10146 109.000
62.12141 124.000
62.14136 93.000
62.16131 88.000
62.18125 96.000
62.20120 116.000
62.22115 111.000
62.24109 112.000
62.26104 107.000
62.28099 118.000
62.30093 95.000
62.32088 103.000
62.34083 93.000
62.36077 109.000
62.38072 78.000
62.40067 78.000
62.42062 82.000
62.44056 88.000
62.46051 99.000
62.48046 102.000
62.50040 108.000
62.52035 90.000
62.54030 95.000
62.56024 97.000
62.58019 110.000
62.60014 102.000
62.62009 95.000
62.64003 88.000
62.65998 96.000
62.67993 93.000
62.69987 79.000
62.71982 80.000
62.73977 81.000
62.75971 90.000
62.77966 81.000
62.79961 100.000
62.81955 100.000
62.83950 89.000
62.85945 120.000
62.87940 86.000
62.89934 83.000
62.91929 91.000
62.93924 79.000
62.95918 89.000
62.97913 68.000
62.99908 91.000
63.01902 95.000
63.03897 81.000
63.05892 84.000
63.07887 107.000
63.09881 99.000
63.11876 92.000
63.13871 77.000
63.15865 93.000
63.17860 90.000
63.19855 106.000
63.21849 95.000
63.23844 78.000
63.25839 89.000
63.27833 92.000
63.29828 91.000
63.31823 94.000
63.33818 86.000
63.35812 81.000
63.37807 84.000
63.39802 101.000
63.41796 105.000
63.43791 92.000
63.45786 93.000
63.47780 89.000
63.49775 78.000
63.51770 99.000
63.53765 108.000
63.55759 72.000
63.57754 96.000
63.59749 102.000
63.61743 103.000
63.63738 98.000
63.65733 106.000
63.67727 113.000
63.69722 95.000
63.71717 82.000
63.73712 113.000
63.75706 116.000
63.77701 123.000
63.79696 117.000
63.81690 107.000
63.83685 117.000
63.85680 125.000
63.87674 117.000
63.89669 120.000
63.91664 148.000
63.93658 163.000
63.95653 143.000
63.97648 187.000
63.99643 221.000
64.01637 227.000
64.03632 284.000
64.05627 323.000
64.07621 398.000
64.09616 425.000
64.11611 457.000
64.13605 453.000
64.15600 420.000
64.17595 422.000
64.19590 434.000
64.21584 398.000
64.23579 420.000
64.25574 420.000
64.27568 393.000
64.29563 368.000
64.31558 324.000
64.33552 332.000
64.35547 292.000
64.37542 260.000
64.39536 236.000
64.41531 217.000
64.43526 190.000
64.45521 159.000
64.47515 180.000
64.49510 173.000
64.51505 128.000
64.53499 145.000
64.55494 137.000
64.57489 124.000
64.59483 111.000
64.61478 110.000
64.63473 97.000
64.65468 93.000
64.67462 95.000
64.69457 91.000
64.71452 102.000
64.73446 94.000
64.75441 108.000
64.77436 100.000
64.79430 102.000
64.81425 96.000
64.83420 109.000
64.85414 111.000
64.87409 97.000
64.89404 86.000
64.91399 78.000
64.93393 88.000
64.95388 95.000
64.97383 92.000
64.99377 78.000
65.01372 89.000
65.03367 103.000
65.05361 95.000
65.07356 75.000
65.09351 93.000
65.11346 93.000
65.13340 89.000
65.15335 89.000
65.17330 101.000
65.19324 92.000
65.21319 87.000
65.23314 101.000
65.25308 96.000
65.27303 85.000
65.29298 104.000
65.31293 101.000
65.33287 99.000
65.35282 92.000
65.37277 99.000
65.39271 98.000
65.41266 87.000
65.43261 102.000
65.45255 82.000
65.47250 110.000
65.49245 109.000
65.51239 92.000
65.53234 101.000
65.55229 91.000
65.57224 87.000
65.59218 97.000
65.61213 117.000
65.63208 100.000
65.65202 83.000
65.67197 100.000
65.69192 113.000
65.71186 108.000
65.73181 108.000
65.75176 97.000
65.77171 111.000
65.79165 100.000
65.81160 105.000
65.83155 109.000
65.85149 107.000
65.87144 99.000
65.89139 109.000
65.91133 101.000
65.93128 116.000
65.95123 107.000
65.97117 108.000
65.99112 96.000
66.01107 111.000
66.03102 123.000
66.05096 122.000
66.07091 151.000
66.09086 153.000
66.11080 136.000
66.13075 150.000
66.15070 140.000
66.17064 162.000
66.19059 183.000
66.21054 202.000
66.23049 204.000
66.25043 184.000
66.27038 210.000
66.29033 159.000
66.31027 192.000
66.33022 209.000
66.35017 239.000
66.37011 222.000
66.39006 261.000
66.41001 298.000
66.42995 374.000
66.44990 380.000
66.46985 415.000
66.48980 394.000
66.50974 380.000
66.52969 345.000
66.54964 329.000
66.56958 290.000
66.58953 306.000
66.60948 285.000
66.62942 279.000
66.64937 277.000
66.66932 239.000
66.68927 290.000
66.70921 272.000
66.72916 207.000
66.74911 216.000
66.76905 182.000
66.78900 160.000
66.80895 140.000
66.82889 125.000
66.84884 123.000
66.86879 120.000
66.88874 114.000
66.90868 115.000
66.92863 106.000
66.94858 112.000
66.96852 96.000
66.98847 88.000
67.00842 97.000
67.02836 100.000
67.04831 73.000
67.06826 81.000
67.08820 90.000
67.10815 77.000
67.12810 94.000
67.14805 96.000
67.16799 94.000
67.18794 92.000
67.20789 92.000
67.22783 91.000
67.24778 80.000
67.26773 106.000
67.28767 83.000
67.30762 75.000
67.32757 99.000
67.34752 95.000
67.36746 97.000
67.38741 93.000
67.40736 87.000
67.42730 79.000
67.44725 83.000
67.46720 74.000
67.48714 89.000
67.50709 79.000
67.52704 77.000
67.54698 82.000
67.56693 84.000
67.58688 78.000
67.60683 72.000
67.62677 77.000
67.64672 71.000
67.66667 77.000
67.68661 78.000
67.70656 77.000
67.72651 77.000
67.74645 66.000
67.76640 101.000
67.78635 85.000
67.80630 94.000
67.82624 79.000
67.84619 80.000
67.86614 98.000
67.88608 75.000
67.90603 87.000
67.92598 85.000
67.94592 83.000
67.96587 91.000
67.98582 85.000
68.00576 92.000
68.02571 97.000
68.04566 87.000
68.06561 85.000
68.08555 93.000
68.10550 89.000
68.12545 89.000
68.14539 118.000
68.16534 86.000
68.18529 93.000
68.20523 84.000
68.22518 97.000
68.24513 88.000
68.26508 86.000
68.28502 77.000
68.30497 88.000
68.32492 85.000
68.34486 101.000
68.36481 75.000
68.38476 90.000
68.40470 78.000
68.42465 94.000
68.44460 83.000
68.46455 84.000
68.48449 84.000
68.50444 82.000
68.52439 90.000
68.54433 72.000
68.56428 93.000
68.58423 77.000
68.60417 96.000
68.62412 84.000
68.64407 79.000
68.66401 79.000
68.68396 107.000
68.70391 75.000
68.72386 87.000
68.74380 96.000
68.76375 83.000
68.78370 84.000
68.80364 74.000
68.82359 74.000
68.84354 88.000
68.86348 83.000
68.88343 74.000
68.90338 87.000
68.92333 76.000
68.94327 69.000
68.96322 86.000
68.98317 68.000
69.00311 76.000
69.02306 87.000
69.04301 65.000
69.06295 77.000
69.08290 81.000
69.10285 94.000
69.12279 80.000
69.14274 100.000
69.16269 83.000
69.18264 82.000
69.20258 91.000
69.22253 97.000
69.24248 91.000
69.26242 94.000
69.28237 87.000
69.30232 69.000
69.32226 65.000
69.34221 81.000
69.36216 69.000
69.38211 83.000
69.40205 80.000
69.42200 79.000
69.44195 86.000
69.46189 76.000
69.48184 101.000
69.50179 88.000
69.52173 73.000
69.54168 74.000
69.56163 72.000
69.58157 77.000
69.60152 73.000
69.62147 83.000
69.64142 84.000
69.66136 88.000
69.68131 84.000
69.70126 68.000
69.72120 75.000
69.74115 75.000
69.76110 78.000
69.78104 76.000
69.80099 84.000
69.82094 87.000
69.84089 61.000
69.86083 73.000
69.88078 81.000
69.90073 73.000
69.92067 77.000
69.94062 92.000
69.96057 74.000
69.98051 85.000
70.00046 76.000
70.02041 58.000
70.04035 78.000
70.06030 74.000
70.08025 78.000
70.10020 72.000
70.12014 75.000
70.14009 84.000
70.16004 88.000
70.17998 83.000
70.19993 73.000
70.21988 66.000
70.23982 75.000
70.25977 82.000
70.27972 73.000
70.29967 72.000
70.31961 59.000
70.33956 80.000
70.35951 71.000
70.37945 95.000
70.39940 72.000
70.41935 78.000
70.43929 74.000
70.45924 78.000
70.47919 70.000
70.49914 68.000
70.51908 76.000
70.53903 75.000
70.55898 69.000
70.57892 71.000
70.59887 76.000
70.61882 100.000
70.63876 81.000
70.65871 68.000
70.67866 83.000
70.69860 73.000
70.71855 79.000
70.73850 74.000
70.75845 70.000
70.77839 79.000
70.79834 82.000
70.81829 64.000
70.83823 66.000
70.85818 88.000
70.87813 84.000
70.89807 88.000
70.91802 78.000
70.93797 75.000
70.95792 65.000
70.97786 80.000
70.99781 66.000
71.01776 82.000
71.03770 66.000
71.05765 63.000
71.07760 79.000
71.09754 86.000
71.11749 71.000
71.13744 69.000
71.15738 59.000
71.17733 66.000
71.19728 65.000
71.21723 62.000
71.23717 73.000
71.25712 81.000
71.27707 82.000
71.29701 71.000
71.31696 84.000
71.33691 90.000
71.35685 79.000
71.37680 85.000
71.39675 83.000
71.41670 64.000
71.43664 84.000
71.45659 74.000
71.47654 83.000
71.49648 74.000
71.51643 75.000
71.53638 79.000
71.55632 75.000
71.57627 90.000
71.59622 87.000
71.61616 75.000
71.63611 81.000
71.65606 78.000
71.67601 84.000
71.69595 88.000
71.71590 81.000
71.73585 90.000
71.75579 69.000
71.77574 64.000
71.79569 97.000
71.81563 72.000
71.83558 69.000
71.85553 73.000
71.87548 54.000
71.89542 107.000
71.91537 87.000
71.93532 81.000
71.95526 66.000
71.97521 65.000
71.99516 80.000
72.01510 84.000
72.03505 75.000
72.05500 95.000
72.07495 84.000
72.09489 85.000
72.11484 82.000
72.13479 63.000
72.15473 75.000
72.17468 73.000
72.19463 82.000
72.21457 88.000
72.23452 68.000
72.25447 92.000
72.27441 81.000
72.29436 81.000
72.31431 90.000
72.33426 76.000
72.35420 84.000
72.37415 78.000
72.39410 93.000
72.41404 81.000
72.43399 86.000
72.45394 106.000
72.47388 93.000
72.49383 88.000
72.51378 85.000
72.53373 90.000
72.55367 84.000
72.57362 64.000
72.59357 80.000
72.61351 88.000
72.63346 77.000
72.65341 85.000
72.67335 79.000
72.69330 72.000
72.71325 100.000
72.73319 86.000
72.75314 84.000
72.77309 108.000
72.79304 102.000
72.81298 85.000
72.83293 89.000
72.85288 72.000
72.87282 89.000
72.89277 82.000
72.91272 84.000
72.93266 108.000
72.95261 95.000
72.97256 91.000
72.99251 103.000
73.01245 107.000
73.03240 91.000
73.05235 72.000
73.07229 106.000
73.09224 89.000
73.11219 103.000
73.13213 108.000
73.15208 111.000
73.17203 112.000
73.19197 111.000
73.21192 148.000
73.23187 166.000
73.25182 187.000
73.27176 179.000
73.29171 193.000
73.31166 220.000
73.33160 181.000
73.35155 193.000
73.37150 167.000
73.39144 181.000
73.41139 175.000
73.43134 168.000
73.45129 154.000
73.47123 155.000
73.49118 168.000
73.51113 176.000
73.53107 136.000
73.55102 135.000
73.57097 156.000
73.59091 150.000
73.61086 121.000
73.63081 145.000
73.65076 133.000
73.67070 97.000
73.69065 103.000
73.71060 86.000
73.73054 104.000
73.75049 81.000
73.77044 99.000
73.79038 109.000
73.81033 99.000
73.83028 83.000
73.85022 82.000
73.87017 93.000
73.89012 75.000
73.91007 87.000
73.93001 85.000
73.94996 76.000
73.96991 89.000
73.98985 95.000
74.00980 87.000
74.02975 79.000
74.04969 86.000
74.06964 88.000
74.08959 93.000
74.10954 82.000
74.12948 82.000
74.14943 84.000
74.16938 90.000
74.18932 84.000
74.20927 81.000
74.22922 82.000
74.24916 90.000
74.26911 80.000
74.28906 80.000
74.30900 76.000
74.32895 75.000
74.34890 75.000
74.36885 71.000
74.38879 80.000
74.40874 70.000
74.42869 79.000
74.44863 78.000
74.46858 82.000
74.48853 72.000
74.50847 80.000
74.52842 83.000
74.54837 65.000
74.56832 91.000
74.58826 68.000
74.60821 83.000
74.62816 80.000
74.64810 91.000
74.66805 89.000
74.68800 70.000
74.70794 71.000
74.72789 103.000
74.74784 72.000
74.76778 82.000
74.78773 109.000
74.80768 83.000
74.82763 63.000
74.84757 71.000
74.86752 78.000
74.88747 83.000
74.90741 77.000
74.92736 78.000
74.94731 65.000
74.96725 78.000
74.98720 76.000
75.00715 77.000
75.02710 86.000
75.04704 85.000
75.06699 79.000
75.08694 85.000
75.10688 67.000
75.12683 85.000
75.14678 92.000
75.16672 100.000
75.18667 89.000
75.20662 95.000
75.22657 93.000
75.24651 107.000
75.26646 73.000
75.28641 82.000
75.30635 82.000
75.32630 75.000
75.34625 100.000
75.36619 92.000
75.38614 101.000
75.40609 90.000
75.42603 91.000
75.44598 81.000
75.46593 90.000
75.48588 98.000
75.50582 94.000
75.52577 127.000
75.54572 114.000
75.56566 121.000
75.58561 120.000
75.60556 119.000
75.62550 126.000
75.64545 136.000
75.66540 124.000
75.68535 111.000
75.70529 120.000
75.72524 119.000
75.74519 120.000
75.76513 122.000
75.78508 121.000
75.80503 109.000
75.82497 109.000
75.84492 128.000
75.86487 103.000
75.88481 120.000
75.90476 108.000
75.92471 95.000
75.94466 113.000
75.96460 85.000
75.98455 94.000
76.00450 108.000
76.02444 79.000
76.04439 79.000
76.06434 87.000
76.08428 74.000
76.10423 70.000
76.12418 88.000
76.14413 72.000
76.16407 82.000
76.18402 94.000
76.20397 89.000
76.22391 75.000
76.24386 76.000
76.26381 87.000
76.28375 90.000
76.30370 87.000
76.32365 73.000
76.34359 74.000
76.36354 100.000
76.38349 80.000
76.40344 95.000
76.42338 89.000
76.44333 77.000
76.46328 93.000
76.48322 86.000
76.50317 89.000
76.52312 73.000
76.54306 85.000
76.56301 77.000
76.58296 79.000
76.60291 101.000
76.62285 93.000
76.64280 72.000
76.66275 75.000
76.68269 88.000
76.70264 96.000
76.72259 82.000
76.74253 88.000
76.76248 87.000
76.78243 86.000
76.80238 84.000
76.82232 95.000
76.84227 78.000
76.86222 104.000
76.88216 92.000
76.90211 79.000
76.92206 84.000
76.94200 86.000
76.96195 74.000
76.98190 87.000
77.00184 81.000
77.02179 90.000
77.04174 94.000
77.06169 89.000
77.08163 75.000
77.10158 86.000
77.12153 88.000
77.14147 87.000
77.16142 96.000
77.18137 71.000
77.20131 88.000
77.22126 89.000
77.24121 99.000
77.26116 102.000
77.28110 125.000
77.30105 115.000
77.32100 128.000
77.34094 115.000
77.36089 109.000
77.38084 126.000
77.40078 138.000
77.42073 151.000
77.44068 152.000
77.46062 161.000
77.48057 173.000
77.50052 190.000
77.52047 234.000
77.54041 240.000
77.56036 265.000
77.58031 233.000
77.60025 248.000
77.62020 207.000
77.64015 229.000
77.66009 222.000
77.68004 218.000
77.69999 215.000
77.71994 221.000
77.73988 244.000
77.75983 234.000
77.77978 294.000
77.79972 254.000
77.81967 239.000
77.83962 256.000
77.85956 226.000
77.87951 230.000
77.89946 195.000
77.91940 206.000
77.93935 171.000
77.95930 157.000
77.97925 189.000
77.99919 174.000
78.01914 159.000
78.03909 166.000
78.05903 155.000
78.07898 153.000
78.09893 120.000
78.11887 135.000
78.13882 141.000
78.15877 121.000
78.17872 124.000
78.19866 124.000
78.21861 113.000
78.23856 107.000
78.25850 108.000
78.27845 102.000
78.29840 92.000
78.31834 97.000
78.33829 85.000
78.35824 94.000
78.37819 105.000
78.39813 92.000
78.41808 97.000
78.43803 92.000
78.45797 79.000
78.47792 91.000
78.49787 99.000
78.51781 95.000
78.53776 80.000
78.55771 86.000
78.57765 79.000
78.59760 79.000
78.61755 88.000
78.63750 86.000
78.65744 73.000
78.67739 69.000
78.69734 94.000
78.71728 96.000
78.73723 85.000
78.75718 78.000
78.77712 79.000
78.79707 80.000
78.81702 87.000
78.83697 79.000
78.85691 68.000
78.87686 67.000
78.89681 75.000
78.91675 80.000
78.93670 82.000
78.95665 84.000
78.97659 83.000
78.99654 77.000
79.01649 74.000
79.03643 61.000
79.05638 82.000
79.07633 73.000
79.09628 64.000
79.11622 79.000
79.13617 69.000
79.15612 96.000
79.17606 86.000
79.19601 72.000
79.21596 63.000
79.23590 86.000
79.25585 67.000
79.27580 74.000
79.29575 81.000
79.31569 78.000
79.33564 76.000
79.35559 77.000
79.37553 65.000
79.39548 99.000
79.41543 79.000
79.43537 74.000
79.45532 76.000
79.47527 84.000
79.49521 71.000
79.51516 75.000
79.53511 70.000
79.55506 90.000
79.57500 80.000
79.59495 71.000
79.61490 81.000
79.63484 81.000
79.65479 84.000
79.67474 80.000
79.69468 78.000
79.71463 83.000
79.73458 68.000
79.75453 78.000
79.77447 70.000
79.79442 79.000
79.81437 77.000
79.83431 83.000
79.85426 62.000
79.87421 93.000
79.89415 79.000
79.91410 69.000
79.93405 98.000
79.95399 90.000
79.97394 70.000
79.99389 68.000
80.01384 72.000
80.03378 61.000
80.05373 86.000
80.07368 83.000
80.09362 81.000
80.11357 82.000
80.13352 94.000
80.15346 82.000
80.17341 82.000
80.19336 89.000
80.21331 76.000
80.23325 88.000
80.25320 69.000
80.27315 70.000
80.29309 86.000
80.31304 72.000
80.33299 77.000
80.35293 74.000
80.37288 82.000
80.39283 71.000
80.41278 94.000
80.43272 90.000
80.45267 85.000
80.47262 95.000
80.49256 92.000
80.51251 97.000
80.53246 97.000
80.55240 107.000
80.57235 128.000
80.59230 84.000
80.61224 99.000
80.63219 85.000
80.65214 109.000
80.67209 90.000
80.69203 95.000
80.71198 97.000
80.73193 83.000
80.75187 97.000
80.77182 97.000
80.79177 93.000
80.81171 88.000
80.83166 70.000
80.85161 68.000
80.87156 105.000
80.89150 82.000
80.91145 78.000
80.93140 90.000
80.95134 80.000
80.97129 69.000
80.99124 80.000
81.01118 85.000
81.03113 70.000
81.05108 86.000
81.07102 68.000
81.09097 75.000
81.11092 73.000
81.13087 88.000
81.15081 85.000
81.17076 88.000
81.19071 78.000
81.21065 74.000
81.23060 71.000
81.25055 75.000
81.27049 67.000
81.29044 85.000
81.31039 89.000
81.33034 90.000
81.35028 94.000
81.37023 67.000
81.39018 79.000
81.41012 85.000
81.43007 74.000
81.45002 64.000
81.46996 90.000
81.48991 69.000
81.50986 82.000
81.52980 74.000
81.54975 95.000
81.56970 86.000
81.58965 74.000
81.60959 74.000
81.62954 81.000
81.64949 83.000
81.66943 75.000
81.68938 73.000
81.70933 70.000
81.72927 75.000
81.74922 82.000
81.76917 82.000
81.78912 67.000
81.80906 83.000
81.82901 82.000
81.84896 75.000
81.86890 69.000
81.88885 71.000
81.90880 85.000
81.92874 69.000
81.94869 76.000
81.96864 67.000
81.98859 79.000
82.00853 81.000
82.02848 88.000
82.04843 73.000
82.06837 73.000
82.08832 66.000
82.10827 70.000
82.12821 72.000
82.14816 77.000
82.16811 75.000
82.18805 85.000
82.20800 89.000
82.22795 89.000
82.24790 99.000
82.26784 87.000
82.28779 72.000
82.30774 87.000
82.32768 79.000
82.34763 73.000
82.36758 92.000
82.38752 78.000
82.40747 81.000
82.42742 84.000
82.44737 67.000
82.46731 75.000
82.48726 66.000
82.50721 80.000
82.52715 94.000
82.54710 71.000
82.56705 80.000
82.58699 75.000
82.60694 88.000
82.62689 73.000
82.64683 88.000
82.66678 94.000
82.68673 75.000
82.70668 59.000
82.72662 69.000
82.74657 95.000
82.76652 80.000
82.78646 75.000
82.80641 87.000
82.82636 88.000
82.84630 74.000
82.86625 81.000
82.88620 75.000
82.90615 58.000
82.92609 85.000
82.94604 65.000
82.96599 78.000
82.98593 84.000
83.00588 93.000
83.02583 78.000
83.04577 84.000
83.06572 79.000
83.08567 76.000
83.10561 89.000
83.12556 73.000
83.14551 70.000
83.16546 99.000
83.18540 80.000
83.20535 71.000
83.22530 75.000
83.24524 82.000
83.26519 72.000
83.28514 87.000
83.30508 75.000
83.32503 75.000
83.34498 74.000
83.36493 79.000
83.38487 74.000
83.40482 79.000
83.42477 94.000
83.44471 75.000
83.46466 77.000
83.48461 80.000
83.50455 84.000
83.52450 75.000
83.54445 80.000
83.56440 66.000
83.58434 90.000
83.60429 89.000
83.62424 94.000
83.64418 86.000
83.66413 98.000
83.68408 79.000
83.70402 82.000
83.72397 74.000
83.74392 83.000
83.76386 86.000
83.78381 96.000
83.80376 77.000
83.82371 88.000
83.84365 80.000
83.86360 73.000
83.88355 92.000
83.90349 87.000
83.92344 86.000
83.94339 75.000
83.96333 85.000
83.98328 112.000
84.00323 94.000
84.02318 114.000
84.04312 102.000
84.06307 104.000
84.08302 109.000
84.10296 122.000
84.12291 136.000
84.14286 124.000
84.16280 181.000
84.18275 153.000
84.20270 174.000
84.22264 183.000
84.24259 238.000
84.26254 203.000
84.28249 186.000
84.30243 205.000
84.32238 232.000
84.34233 166.000
84.36227 192.000
84.38222 149.000
84.40217 183.000
84.42211 196.000
84.44206 135.000
84.46201 154.000
84.48196 163.000
84.50190 153.000
84.52185 165.000
84.54180 143.000
84.56174 155.000
84.58169 147.000
84.60164 147.000
84.62158 124.000
84.64153 123.000
84.66148 129.000
84.68142 126.000
84.70137 107.000
84.72132 127.000
84.74127 114.000
84.76121 99.000
84.78116 102.000
84.80111 94.000
84.82105 90.000
84.84100 115.000
84.86095 97.000
84.88089 83.000
84.90084 82.000
84.92079 77.000
84.94074 86.000
84.96068 91.000
84.98063 79.000
85.00058 89.000
85.02052 76.000
85.04047 98.000
85.06042 76.000
85.08036 90.000
85.10031 92.000
85.12026 83.000
85.14021 100.000
85.16015 82.000
85.18010 71.000
85.20005 75.000
85.21999 81.000
85.23994 78.000
85.25989 79.000
85.27983 68.000
85.29978 68.000
85.31973 76.000
85.33967 76.000
85.35962 82.000
85.37957 91.000
85.39952 75.000
85.41946 64.000
85.43941 76.000
85.45936 80.000
85.47930 76.000
85.49925 76.000
85.51920 70.000
85.53914 77.000
85.55909 69.000
85.57904 63.000
85.59899 78.000
85.61893 80.000
85.63888 89.000
85.65883 77.000
85.67877 82.000
85.69872 67.000
85.71867 63.000
85.73861 85.000
85.75856 79.000
85.77851 86.000
85.79845 75.000
85.81840 73.000
85.83835 80.000
85.85830 95.000
85.87824 76.000
85.89819 80.000
85.91814 99.000
85.93808 75.000
85.95803 86.000
85.97798 97.000
85.99792 93.000
86.01787 105.000
86.03782 82.000
86.05777 95.000
86.07771 107.000
86.09766 88.000
86.11761 89.000
86.13755 101.000
86.15750 100.000
86.17745 82.000
86.19739 76.000
86.21734 99.000
86.23729 107.000
86.25723 92.000
86.27718 91.000
86.29713 81.000
86.31708 85.000
86.33702 96.000
86.35697 87.000
86.37692 77.000
86.39686 105.000
86.41681 91.000
86.43676 84.000
86.45670 84.000
86.47665 89.000
86.49660 88.000
86.51655 94.000
86.53649 92.000
86.55644 71.000
86.57639 67.000
86.59633 71.000
86.61628 93.000
86.63623 95.000
86.65617 82.000
86.67612 100.000
86.69607 79.000
86.71602 69.000
86.73596 96.000
86.75591 97.000
86.77586 100.000
86.79580 85.000
86.81575 100.000
86.83570 88.000
86.85564 88.000
86.87559 94.000
86.89554 95.000
86.91548 106.000
86.93543 89.000
86.95538 77.000
86.97533 85.000
86.99527 86.000
87.01522 85.000
87.03517 88.000
87.05511 72.000
87.07506 73.000
87.09501 75.000
87.11495 65.000
87.13490 91.000
87.15485 79.000
87.17480 76.000
87.19474 81.000
87.21469 84.000
87.23464 70.000
87.25458 89.000
87.27453 58.000
87.29448 56.000
87.31442 67.000
87.33437 91.000
87.35432 53.000
87.37426 78.000
87.39421 83.000
87.41416 57.000
87.43411 65.000
87.45405 74.000
87.47400 69.000
87.49395 78.000
87.51389 70.000
87.53384 67.000
87.55379 86.000
87.57373 74.000
87.59368 81.000
87.61363 68.000
87.63358 72.000
87.65352 79.000
87.67347 74.000
87.69342 86.000
87.71336 79.000
87.73331 65.000
87.75326 68.000
87.77320 74.000
87.79315 79.000
87.81310 72.000
87.83304 72.000
87.85299 67.000
87.87294 68.000
87.89289 69.000
87.91283 70.000
87.93278 73.000
87.95273 74.000
87.97267 77.000
87.99262 73.000
88.01257 86.000
88.03251 88.000
88.05246 70.000
88.07241 64.000
88.09236 77.000
88.11230 68.000
88.13225 73.000
88.15220 79.000
88.17214 70.000
88.19209 85.000
88.21204 78.000
88.23198 68.000
88.25193 67.000
88.27188 72.000
88.29183 73.000
88.31177 69.000
88.33172 69.000
88.35167 85.000
88.37161 58.000
88.39156 71.000
88.41151 83.000
88.43145 62.000
88.45140 70.000
88.47135 65.000
88.49129 73.000
88.51124 76.000
88.53119 74.000
88.55114 72.000
88.57108 69.000
88.59103 62.000
88.61098 66.000
88.63092 76.000
88.65087 80.000
88.67082 71.000
88.69076 81.000
88.71071 71.000
88.73066 66.000
88.75061 71.000
88.77055 70.000
88.79050 77.000
88.81045 86.000
88.83039 86.000
88.85034 66.000
88.87029 78.000
88.89023 62.000
88.91018 72.000
88.93013 63.000
88.95007 89.000
88.97002 80.000
88.98997 70.000
89.00992 88.000
89.02986 78.000
89.04981 73.000
89.06976 96.000
89.08970 64.000
89.10965 77.000
89.12960 69.000
89.14954 78.000
89.16949 74.000
89.18944 75.000
89.20939 59.000
89.22933 65.000
89.24928 77.000
89.26923 80.000
89.28917 73.000
89.30912 75.000
89.32907 59.000
89.34901 69.000
89.36896 88.000
89.38891 78.000
89.40885 75.000
89.42880 85.000
89.44875 80.000
89.46870 73.000
89.48864 63.000
89.50859 67.000
89.52854 78.000
89.54848 73.000
89.56843 84.000
89.58838 87.000
89.60832 72.000
89.62827 85.000
89.64822 91.000
89.66817 86.000
89.68811 89.000
89.70806 82.000
89.72801 88.000
89.74795 78.000
89.76790 84.000
89.78785 73.000
89.80779 88.000
89.82774 76.000
89.84769 80.000
89.86764 82.000
89.88758 65.000
89.90753 70.000
89.92748 88.000
89.94742 78.000
89.96737 86.000
89.98732 71.000
90.00726 90.000
