10.00000 281.000
10.01995 268.000
10.03989 303.000
10.05984 280.000
10.07979 269.000
10.09973 264.000
10.11968 284.000
10.13963 294.000
10.15958 295.000
10.17952 285.000
10.19947 293.000
10.21942 249.000
10.23936 291.000
10.25931 270.000
10.27926 244.000
10.29920 298.000
10.31915 314.000
10.33910 281.000
10.35905 317.000
10.37899 294.000
10.39894 304.000
10.41889 276.000
10.43883 294.000
10.45878 314.000
10.47873 296.000
10.49867 306.000
10.51862 310.000
10.53857 300.000
10.55851 301.000
10.57846 286.000
10.59841 314.000
10.61836 264.000
10.63830 294.000
10.65825 321.000
10.67820 320.000
10.69814 284.000
10.71809 321.000
10.73804 286.000
10.75798 281.000
10.77793 282.000
10.79788 275.000
10.81783 254.000
10.83777 289.000
10.85772 279.000
10.87767 314.000
10.89761 282.000
10.91756 311.000
10.93751 277.000
10.95745 317.000
10.97740 317.000
10.99735 301.000
11.01730 341.000
11.03724 335.000
11.05719 289.000
11.07714 284.000
11.09708 287.000
11.11703 297.000
11.13698 271.000
11.15692 311.000
11.17687 295.000
11.19682 308.000
11.21676 267.000
11.23671 317.000
11.25666 296.000
11.27661 306.000
11.29655 280.000
11.31650 310.000
11.33645 287.000
11.35639 299.000
11.37634 304.000
11.39629 310.000
11.41623 300.000
11.43618 267.000
11.45613 306.000
11.47608 298.000
11.49602 288.000
11.51597 338.000
11.53592 288.000
11.55586 307.000
11.57581 304.000
11.59576 258.000
11.61570 258.000
11.63565 309.000
11.65560 333.000
11.67554 298.000
11.69549 344.000
11.71544 318.000
11.73539 304.000
11.75533 307.000
11.77528 278.000
11.79523 287.000
11.81517 282.000
11.83512 298.000
11.85507 293.000
11.87501 319.000
11.89496 302.000
11.91491 266.000
11.93486 284.000
11.95480 282.000
11.97475 314.000
11.99470 292.000
12.01464 300.000
12.03459 340.000
12.05454 319.000
12.07448 291.000
12.09443 308.000
12.11438 320.000
12.13432 263.000
12.15427 299.000
12.17422 290.000
12.19417 297.000
12.21411 324.000
12.23406 318.000
12.25401 314.000
12.27395 321.000
12.29390 283.000
12.31385 332.000
12.33379 344.000
12.35374 293.000
12.37369 295.000
12.39364 292.000
12.41358 293.000
12.43353 283.000
12.45348 313.000
12.47342 315.000
12.49337 333.000
12.51332 287.000
12.53326 306.000
12.55321 308.000
12.57316 290.000
12.59311 310.000
12.61305 274.000
12.63300 300.000
12.65295 298.000
12.67289 304.000
12.69284 299.000
12.71279 358.000
12.73273 336.000
12.75268 302.000
12.77263 283.000
12.79257 337.000
12.81252 308.000
12.83247 287.000
12.85242 302.000
12.87236 308.000
12.89231 311.000
12.91226 319.000
12.93220 307.000
12.95215 317.000
12.97210 320.000
12.99204 324.000
13.01199 313.000
13.03194 307.000
13.05189 309.000
13.07183 304.000
13.09178 297.000
13.11173 309.000
13.13167 314.000
13.15162 319.000
13.17157 307.000
13.19151 291.000
13.21146 339.000
13.23141 314.000
13.25135 333.000
13.27130 298.000
13.29125 307.000
13.31120 362.000
13.33114 318.000
13.35109 269.000
13.37104 346.000
13.39098 289.000
13.41093 307.000
13.43088 306.000
13.45082 283.000
13.47077 292.000
13.49072 308.000
13.51067 331.000
13.53061 326.000
13.55056 296.000
13.57051 296.000
13.59045 307.000
13.61040 345.000
13.63035 316.000
13.65029 351.000
13.67024 320.000
13.69019 336.000
13.71013 362.000
13.73008 315.000
13.75003 297.000
13.76998 306.000
13.78992 321.000
13.80987 334.000
13.82982 337.000
13.84976 324.000
13.86971 324.000
13.88966 333.000
13.90960 327.000
13.92955 295.000
13.94950 344.000
13.96945 344.000
13.98939 306.000
14.00934 350.000
14.02929 304.000
14.04923 315.000
14.06918 310.000
14.08913 319.000
14.10907 354.000
14.12902 342.000
14.14897 333.000
14.16892 351.000
14.18886 337.000
14.20881 321.000
14.22876 335.000
14.24870 319.000
14.26865 324.000
14.28860 326.000
14.30854 335.000
14.32849 312.000
14.34844 324.000
14.36838 304.000
14.38833 345.000
14.40828 349.000
14.42823 326.000
14.44817 349.000
14.46812 347.000
14.48807 334.000
14.50801 329.000
14.52796 322.000
14.54791 330.000
14.56785 338.000
14.58780 329.000
14.60775 308.000
14.62770 304.000
14.64764 347.000
14.66759 335.000
14.68754 335.000
14.70748 337.000
14.72743 321.000
14.74738 324.000
14.76732 335.000
14.78727 340.000
14.80722 291.000
14.82716 311.000
14.84711 346.000
14.86706 349.000
14.88701 328.000
14.90695 358.000
14.92690 336.000
14.94685 350.000
14.96679 354.000
14.98674 342.000
15.00669 316.000
15.02663 345.000
15.04658 329.000
15.06653 317.000
15.08648 326.000
15.10642 314.000
15.12637 313.000
15.14632 346.000
15.16626 310.000
15.18621 343.000
15.20616 343.000
15.22610 323.000
15.24605 358.000
15.26600 329.000
15.28594 348.000
15.30589 349.000
15.32584 356.000
15.34579 331.000
15.36573 352.000
15.38568 373.000
15.40563 375.000
15.42557 343.000
15.44552 368.000
15.46547 356.000
15.48541 352.000
15.50536 359.000
15.52531 383.000
15.54526 401.000
15.56520 357.000
15.58515 403.000
15.60510 387.000
15.62504 428.000
15.64499 397.000
15.66494 438.000
15.68488 509.000
15.70483 512.000
15.72478 597.000
15.74472 752.000
15.76467 815.000
15.78462 987.000
15.80457 1054.000
15.82451 1190.000
15.84446 1155.000
15.86441 1085.000
15.88435 931.000
15.90430 922.000
15.92425 757.000
15.94419 681.000
15.96414 592.000
15.98409 515.000
16.00404 474.000
16.02398 408.000
16.04393 408.000
16.06388 343.000
16.08382 389.000
16.10377 389.000
16.12372 380.000
16.14366 419.000
16.16361 334.000
16.18356 362.000
16.20351 365.000
16.22345 380.000
16.24340 386.000
16.26335 388.000
16.28329 432.000
16.30324 362.000
16.32319 344.000
16.34313 373.000
16.36308 368.000
16.38303 370.000
16.40297 374.000
16.42292 306.000
16.44287 362.000
16.46282 363.000
16.48276 411.000
16.50271 393.000
16.52266 366.000
16.54260 341.000
16.56255 322.000
16.58250 327.000
16.60244 365.000
16.62239 355.000
16.64234 355.000
16.66229 344.000
16.68223 336.000
16.70218 338.000
16.72213 367.000
16.74207 364.000
16.76202 353.000
16.78197 380.000
16.80191 372.000
16.82186 356.000
16.84181 368.000
16.86175 361.000
16.88170 325.000
16.90165 389.000
16.92160 336.000
16.94154 378.000
16.96149 339.000
16.98144 337.000
17.00138 348.000
17.02133 348.000
17.04128 320.000
17.06122 372.000
17.08117 321.000
17.10112 344.000
17.12107 359.000
17.14101 336.000
17.16096 367.000
17.18091 338.000
17.20085 309.000
17.22080 354.000
17.24075 329.000
17.26069 347.000
17.28064 336.000
17.30059 357.000
17.32053 342.000
17.34048 313.000
17.36043 318.000
17.38038 342.000
17.40032 331.000
17.42027 315.000
17.44022 348.000
17.46016 329.000
17.48011 319.000
17.50006 338.000
17.52000 318.000
17.53995 310.000
17.55990 361.000
17.57985 313.000
17.59979 319.000
17.61974 329.000
17.63969 360.000
17.65963 323.000
17.67958 345.000
17.69953 327.000
17.71947 330.000
17.73942 326.000
17.75937 329.000
17.77932 333.000
17.79926 319.000
17.81921 315.000
17.83916 284.000
17.85910 355.000
17.87905 331.000
17.89900 347.000
17.91894 309.000
17.93889 316.000
17.95884 342.000
17.97878 315.000
17.99873 341.000
18.01868 371.000
18.03863 320.000
18.05857 320.000
18.07852 342.000
18.09847 374.000
18.11841 330.000
18.13836 321.000
18.15831 310.000
18.17825 341.000
18.19820 344.000
18.21815 330.000
18.23810 341.000
18.25804 336.000
18.27799 380.000
18.29794 399.000
18.31788 379.000
18.33783 407.000
18.35778 435.000
18.37772 487.000
18.39767 488.000
18.41762 496.000
18.43756 512.000
18.45751 495.000
18.47746 503.000
18.49741 433.000
18.51735 405.000
18.53730 416.000
18.55725 378.000
18.57719 312.000
18.59714 346.000
18.61709 356.000
18.63703 349.000
18.65698 334.000
18.67693 351.000
18.69688 371.000
18.71682 308.000
18.73677 343.000
18.75672 320.000
18.77666 347.000
18.79661 336.000
18.81656 301.000
18.83650 300.000
18.85645 359.000
18.87640 321.000
18.89634 331.000
18.91629 308.000
18.93624 348.000
18.95619 338.000
18.97613 321.000
18.99608 308.000
19.01603 364.000
19.03597 337.000
19.05592 343.000
19.07587 318.000
19.09581 309.000
19.11576 328.000
19.13571 337.000
19.15566 345.000
19.17560 331.000
19.19555 318.000
19.21550 322.000
19.23544 309.000
19.25539 320.000
19.27534 361.000
19.29528 346.000
19.31523 337.000
19.33518 321.000
19.35513 308.000
19.37507 322.000
19.39502 342.000
19.41497 327.000
19.43491 359.000
19.45486 340.000
19.47481 342.000
19.49475 362.000
19.51470 350.000
19.53465 342.000
19.55459 331.000
19.57454 317.000
19.59449 336.000
19.61444 344.000
19.63438 330.000
19.65433 328.000
19.67428 349.000
19.69422 311.000
19.71417 329.000
19.73412 344.000
19.75406 334.000
19.77401 339.000
19.79396 344.000
19.81391 329.000
19.83385 367.000
19.85380 335.000
19.87375 338.000
19.89369 327.000
19.91364 330.000
19.93359 335.000
19.95353 343.000
19.97348 339.000
19.99343 332.000
20.01337 339.000
20.03332 329.000
20.05327 346.000
20.07322 312.000
20.09316 319.000
20.11311 332.000
20.13306 338.000
20.15300 323.000
20.17295 344.000
20.19290 331.000
20.21284 351.000
20.23279 347.000
20.25274 321.000
20.27269 343.000
20.29263 321.000
20.31258 352.000
20.33253 333.000
20.35247 307.000
20.37242 343.000
20.39237 343.000
20.41231 320.000
20.43226 359.000
20.45221 313.000
20.47215 347.000
20.49210 342.000
20.51205 367.000
20.53200 344.000
20.55194 369.000
20.57189 346.000
20.59184 285.000
20.61178 356.000
20.63173 359.000
20.65168 342.000
20.67162 355.000
20.69157 356.000
20.71152 349.000
20.73147 367.000
20.75141 355.000
20.77136 319.000
20.79131 351.000
20.81125 386.000
20.83120 340.000
20.85115 370.000
20.87109 358.000
20.89104 384.000
20.91099 410.000
20.93094 365.000
20.95088 408.000
20.97083 413.000
20.99078 450.000
21.01072 453.000
21.03067 428.000
21.05062 493.000
21.07056 473.000
21.09051 499.000
21.11046 493.000
21.13040 480.000
21.15035 453.000
21.17030 478.000
21.19025 427.000
21.21019 390.000
21.23014 346.000
21.25009 362.000
21.27003 347.000
21.28998 393.000
21.30993 333.000
21.32987 360.000
21.34982 366.000
21.36977 360.000
21.38972 324.000
21.40966 327.000
21.42961 340.000
21.44956 359.000
21.46950 353.000
21.48945 371.000
21.50940 342.000
21.52934 347.000
21.54929 325.000
21.56924 308.000
21.58918 313.000
21.60913 334.000
21.62908 348.000
21.64903 344.000
21.66897 368.000
21.68892 369.000
21.70887 360.000
21.72881 348.000
21.74876 341.000
21.76871 346.000
21.78865 352.000
21.80860 316.000
21.82855 337.000
21.84850 355.000
21.86844 319.000
21.88839 359.000
21.90834 327.000
21.92828 363.000
21.94823 378.000
21.96818 371.000
21.98812 366.000
22.00807 326.000
22.02802 377.000
22.04796 342.000
22.06791 334.000
22.08786 344.000
22.10781 329.000
22.12775 374.000
22.14770 352.000
22.16765 360.000
22.18759 380.000
22.20754 306.000
22.22749 331.000
22.24743 345.000
22.26738 291.000
22.28733 334.000
22.30728 356.000
22.32722 345.000
22.34717 334.000
22.36712 371.000
22.38706 333.000
22.40701 354.000
22.42696 343.000
22.44690 306.000
22.46685 318.000
22.48680 330.000
22.50675 327.000
22.52669 337.000
22.54664 338.000
22.56659 373.000
22.58653 327.000
22.60648 354.000
22.62643 363.000
22.64637 348.000
22.66632 358.000
22.68627 321.000
22.70621 333.000
22.72616 341.000
22.74611 338.000
22.76606 354.000
22.78600 347.000
22.80595 367.000
22.82590 369.000
22.84584 395.000
22.86579 345.000
22.88574 335.000
22.90568 348.000
22.92563 317.000
22.94558 338.000
22.96553 382.000
22.98547 317.000
23.00542 341.000
23.02537 348.000
23.04531 327.000
23.06526 346.000
23.08521 379.000
23.10515 358.000
23.12510 317.000
23.14505 356.000
23.16499 328.000
23.18494 345.000
23.20489 347.000
23.22484 351.000
23.24478 323.000
23.26473 368.000
23.28468 320.000
23.30462 345.000
23.32457 344.000
23.34452 327.000
23.36446 307.000
23.38441 320.000
23.40436 358.000
23.42431 345.000
23.44425 334.000
23.46420 330.000
23.48415 346.000
23.50409 350.000
23.52404 296.000
23.54399 336.000
23.56393 356.000
23.58388 353.000
23.60383 345.000
23.62377 337.000
23.64372 333.000
23.66367 314.000
23.68362 351.000
23.70356 355.000
23.72351 354.000
23.74346 358.000
23.76340 310.000
23.78335 346.000
23.80330 332.000
23.82324 334.000
23.84319 326.000
23.86314 326.000
23.88309 311.000
23.90303 310.000
23.92298 315.000
23.94293 350.000
23.96287 329.000
23.98282 353.000
24.00277 345.000
24.02271 338.000
24.04266 359.000
24.06261 346.000
24.08256 347.000
24.10250 333.000
24.12245 378.000
24.14240 352.000
24.16234 356.000
24.18229 344.000
24.20224 366.000
24.22218 356.000
24.24213 331.000
24.26208 363.000
24.28202 347.000
24.30197 333.000
24.32192 352.000
24.34187 357.000
24.36181 350.000
24.38176 354.000
24.40171 386.000
24.42165 358.000
24.44160 322.000
24.46155 338.000
24.48149 331.000
24.50144 359.000
24.52139 347.000
24.54134 328.000
24.56128 328.000
24.58123 346.000
24.60118 310.000
24.62112 342.000
24.64107 334.000
24.66102 334.000
24.68096 379.000
24.70091 362.000
24.72086 331.000
24.74080 328.000
24.76075 332.000
24.78070 321.000
24.80065 350.000
24.82059 351.000
24.84054 357.000
24.86049 340.000
24.88043 353.000
24.90038 347.000
24.92033 366.000
24.94027 370.000
24.96022 312.000
24.98017 345.000
25.00012 395.000
25.02006 343.000
25.04001 365.000
25.05996 321.000
25.07990 340.000
25.09985 335.000
25.11980 392.000
25.13974 366.000
25.15969 363.000
25.17964 362.000
25.19958 360.000
25.21953 327.000
25.23948 386.000
25.25943 354.000
25.27937 376.000
25.29932 353.000
25.31927 367.000
25.33921 320.000
25.35916 360.000
25.37911 354.000
25.39905 362.000
25.41900 331.000
25.43895 321.000
25.45890 347.000
25.47884 360.000
25.49879 316.000
25.51874 336.000
25.53868 355.000
25.55863 360.000
25.57858 359.000
25.59852 337.000
25.61847 325.000
25.63842 373.000
25.65837 334.000
25.67831 388.000
25.69826 355.000
25.71821 349.000
25.73815 365.000
25.75810 370.000
25.77805 370.000
25.79799 361.000
25.81794 339.000
25.83789 309.000
25.85783 364.000
25.87778 346.000
25.89773 319.000
25.91768 344.000
25.93762 336.000
25.95757 359.000
25.97752 350.000
25.99746 375.000
26.01741 367.000
26.03736 349.000
26.05730 343.000
26.07725 335.000
26.09720 368.000
26.11715 340.000
26.13709 374.000
26.15704 360.000
26.17699 378.000
26.19693 353.000
26.21688 315.000
26.23683 334.000
26.25677 337.000
26.27672 379.000
26.29667 331.000
26.31661 357.000
26.33656 398.000
26.35651 364.000
26.37646 357.000
26.39640 357.000
26.41635 344.000
26.43630 348.000
26.45624 373.000
26.47619 391.000
26.49614 341.000
26.51608 341.000
26.53603 332.000
26.55598 368.000
26.57593 364.000
26.59587 377.000
26.61582 369.000
26.63577 357.000
26.65571 364.000
26.67566 359.000
26.69561 366.000
26.71555 370.000
26.73550 371.000
26.75545 381.000
26.77539 401.000
26.79534 327.000
26.81529 378.000
26.83524 364.000
26.85518 350.000
26.87513 375.000
26.89508 358.000
26.91502 329.000
26.93497 360.000
26.95492 367.000
26.97486 362.000
26.99481 377.000
27.01476 356.000
27.03471 366.000
27.05465 381.000
27.07460 383.000
27.09455 365.000
27.11449 372.000
27.13444 362.000
27.15439 344.000
27.17433 368.000
27.19428 362.000
27.21423 382.000
27.23417 324.000
27.25412 369.000
27.27407 366.000
27.29402 353.000
27.31396 343.000
27.33391 351.000
27.35386 346.000
27.37380 340.000
27.39375 370.000
27.41370 378.000
27.43364 369.000
27.45359 372.000
27.47354 346.000
27.49349 382.000
27.51343 348.000
27.53338 384.000
27.55333 371.000
27.57327 360.000
27.59322 344.000
27.61317 387.000
27.63311 365.000
27.65306 365.000
27.67301 338.000
27.69296 355.000
27.71290 351.000
27.73285 377.000
27.75280 353.000
27.77274 378.000
27.79269 380.000
27.81264 403.000
27.83258 356.000
27.85253 332.000
27.87248 355.000
27.89242 362.000
27.91237 371.000
27.93232 359.000
27.95227 361.000
27.97221 326.000
27.99216 388.000
28.01211 343.000
28.03205 383.000
28.05200 353.000
28.07195 328.000
28.09189 369.000
28.11184 344.000
28.13179 362.000
28.15174 356.000
28.17168 363.000
28.19163 340.000
28.21158 367.000
28.23152 368.000
28.25147 390.000
28.27142 365.000
28.29136 366.000
28.31131 382.000
28.33126 342.000
28.35120 375.000
28.37115 380.000
28.39110 372.000
28.41105 375.000
28.43099 379.000
28.45094 389.000
28.47089 356.000
28.49083 400.000
28.51078 378.000
28.53073 391.000
28.55067 352.000
28.57062 379.000
28.59057 384.000
28.61052 401.000
28.63046 362.000
28.65041 400.000
28.67036 337.000
28.69030 381.000
28.71025 379.000
28.73020 363.000
28.75014 362.000
28.77009 383.000
28.79004 363.000
28.80998 370.000
28.82993 386.000
28.84988 392.000
28.86983 352.000
28.88977 375.000
28.90972 382.000
28.92967 393.000
28.94961 354.000
28.96956 379.000
28.98951 367.000
29.00945 380.000
29.02940 368.000
29.04935 375.000
29.06930 378.000
29.08924 347.000
29.10919 387.000
29.12914 397.000
29.14908 358.000
29.16903 412.000
29.18898 375.000
29.20892 370.000
29.22887 383.000
29.24882 397.000
29.26877 439.000
29.28871 421.000
29.30866 397.000
29.32861 487.000
29.34855 423.000
29.36850 433.000
29.38845 412.000
29.40839 466.000
29.42834 432.000
29.44829 432.000
29.46823 429.000
29.48818 397.000
29.50813 398.000
29.52808 378.000
29.54802 426.000
29.56797 374.000
29.58792 370.000
29.60786 363.000
29.62781 381.000
29.64776 397.000
29.66770 392.000
29.68765 377.000
29.70760 403.000
29.72755 361.000
29.74749 358.000
29.76744 412.000
29.78739 376.000
29.80733 394.000
29.82728 349.000
29.84723 377.000
29.86717 394.000
29.88712 361.000
29.90707 369.000
29.92701 373.000
29.94696 392.000
29.96691 395.000
29.98686 394.000
30.00680 370.000
30.02675 427.000
30.04670 400.000
30.06664 406.000
30.08659 412.000
30.10654 398.000
30.12648 438.000
30.14643 504.000
30.16638 465.000
30.18633 488.000
30.20627 554.000
30.22622 602.000
30.24617 653.000
30.26611 649.000
30.28606 746.000
30.30601 722.000
30.32595 695.000
30.34590 719.000
30.36585 680.000
30.38579 599.000
30.40574 596.000
30.42569 583.000
30.44564 500.000
30.46558 469.000
30.48553 484.000
30.50548 437.000
30.52542 437.000
30.54537 422.000
30.56532 351.000
30.58526 387.000
30.60521 354.000
30.62516 419.000
30.64511 417.000
30.66505 379.000
30.68500 368.000
30.70495 396.000
30.72489 358.000
30.74484 365.000
30.76479 353.000
30.78473 384.000
30.80468 368.000
30.82463 400.000
30.84458 389.000
30.86452 362.000
30.88447 397.000
30.90442 416.000
30.92436 384.000
30.94431 395.000
30.96426 384.000
30.98420 378.000
31.00415 386.000
31.02410 356.000
31.04404 396.000
31.06399 347.000
31.08394 379.000
31.10389 357.000
31.12383 361.000
31.14378 375.000
31.16373 403.000
31.18367 373.000
31.20362 413.000
31.22357 379.000
31.24351 378.000
31.26346 389.000
31.28341 421.000
31.30336 373.000
31.32330 388.000
31.34325 339.000
31.36320 367.000
31.38314 389.000
31.40309 419.000
31.42304 378.000
31.44298 379.000
31.46293 379.000
31.48288 372.000
31.50282 403.000
31.52277 362.000
31.54272 395.000
31.56267 370.000
31.58261 393.000
31.60256 381.000
31.62251 396.000
31.64245 375.000
31.66240 408.000
31.68235 390.000
31.70229 398.000
31.72224 365.000
31.74219 409.000
31.76214 399.000
31.78208 425.000
31.80203 373.000
31.82198 410.000
31.84192 383.000
31.86187 422.000
31.88182 403.000
31.90176 482.000
31.92171 427.000
31.94166 443.000
31.96160 443.000
31.98155 454.000
32.00150 485.000
32.02145 466.000
32.04139 470.000
32.06134 433.000
32.08129 401.000
32.10123 425.000
32.12118 411.000
32.14113 419.000
32.16107 430.000
32.18102 419.000
32.20097 423.000
32.22092 426.000
32.24086 430.000
32.26081 417.000
32.28076 449.000
32.30070 393.000
32.32065 404.000
32.34060 417.000
32.36054 413.000
32.38049 440.000
32.40044 433.000
32.42039 453.000
32.44033 431.000
32.46028 489.000
32.48023 535.000
32.50017 528.000
32.52012 511.000
32.54007 438.000
32.56001 489.000
32.57996 490.000
32.59991 467.000
32.61985 450.000
32.63980 449.000
32.65975 417.000
32.67970 428.000
32.69964 421.000
32.71959 397.000
32.73954 439.000
32.75948 391.000
32.77943 363.000
32.79938 391.000
32.81932 374.000
32.83927 385.000
32.85922 395.000
32.87917 409.000
32.89911 407.000
32.91906 397.000
32.93901 378.000
32.95895 351.000
32.97890 417.000
32.99885 384.000
33.01879 365.000
33.03874 355.000
33.05869 342.000
33.07863 370.000
33.09858 375.000
33.11853 339.000
33.13848 380.000
33.15842 386.000
33.17837 358.000
33.19832 333.000
33.21826 409.000
33.23821 397.000
33.25816 356.000
33.27810 380.000
33.29805 389.000
33.31800 382.000
33.33795 347.000
33.35789 410.000
33.37784 379.000
33.39779 375.000
33.41773 409.000
33.43768 368.000
33.45763 354.000
33.47757 375.000
33.49752 381.000
33.51747 393.000
33.53741 415.000
33.55736 376.000
33.57731 381.000
33.59726 397.000
33.61720 384.000
33.63715 398.000
33.65710 392.000
33.67704 385.000
33.69699 358.000
33.71694 420.000
33.73688 341.000
33.75683 376.000
33.77678 393.000
33.79673 387.000
33.81667 379.000
33.83662 394.000
33.85657 349.000
33.87651 365.000
33.89646 370.000
33.91641 365.000
33.93635 375.000
33.95630 374.000
33.97625 371.000
33.99620 372.000
34.01614 401.000
34.03609 362.000
34.05604 403.000
34.07598 403.000
34.09593 424.000
34.11588 377.000
34.13582 414.000
34.15577 405.000
34.17572 452.000
34.19566 391.000
34.21561 401.000
34.23556 394.000
34.25551 424.000
34.27545 407.000
34.29540 380.000
34.31535 403.000
34.33529 394.000
34.35524 379.000
34.37519 384.000
34.39513 406.000
34.41508 438.000
34.43503 444.000
34.45498 404.000
34.47492 435.000
34.49487 412.000
34.51482 476.000
34.53476 431.000
34.55471 442.000
34.57466 435.000
34.59460 457.000
34.61455 490.000
34.63450 512.000
34.65444 525.000
34.67439 523.000
34.69434 526.000
34.71429 534.000
34.73423 529.000
34.75418 588.000
34.77413 605.000
34.79407 589.000
34.81402 581.000
34.83397 551.000
34.85391 549.000
34.87386 547.000
34.89381 523.000
34.91376 532.000
34.93370 496.000
34.95365 544.000
34.97360 484.000
34.99354 499.000
35.01349 453.000
35.03344 529.000
35.05338 547.000
35.07333 541.000
35.09328 524.000
35.11322 533.000
35.13317 507.000
35.15312 504.000
35.17307 528.000
35.19301 535.000
35.21296 606.000
35.23291 612.000
35.25285 622.000
35.27280 674.000
35.29275 735.000
35.31269 812.000
35.33264 914.000
35.35259 1011.000
35.37254 1061.000
35.39248 1202.000
35.41243 1336.000
35.43238 1489.000
35.45232 1652.000
35.47227 1786.000
35.49222 1997.000
35.51216 2143.000
35.53211 2313.000
35.55206 2363.000
35.57201 2330.000
35.59195 2395.000
35.61190 2361.000
35.63185 2363.000
35.65179 2399.000
35.67174 2370.000
35.69169 2195.000
35.71163 2112.000
35.73158 1844.000
35.75153 1665.000
35.77147 1617.000
35.79142 1383.000
35.81137 1315.000
35.83132 1240.000
35.85126 1042.000
35.87121 874.000
35.89116 861.000
35.91110 791.000
35.93105 696.000
35.95100 658.000
35.97094 625.000
35.99089 589.000
36.01084 555.000
36.03079 534.000
36.05073 505.000
36.07068 514.000
36.09063 487.000
36.11057 481.000
36.13052 476.000
36.15047 471.000
36.17041 468.000
36.19036 439.000
36.21031 467.000
36.23025 519.000
36.25020 540.000
36.27015 486.000
36.29010 490.000
36.31004 440.000
36.32999 494.000
36.34994 458.000
36.36988 503.000
36.38983 474.000
36.40978 494.000
36.42972 498.000
36.44967 467.000
36.46962 511.000
36.48957 449.000
36.50951 414.000
36.52946 461.000
36.54941 417.000
36.56935 503.000
36.58930 451.000
36.60925 444.000
36.62919 483.000
36.64914 476.000
36.66909 434.000
36.68903 476.000
36.70898 525.000
36.72893 476.000
36.74888 515.000
36.76882 452.000
36.78877 504.000
36.80872 514.000
36.82866 508.000
36.84861 567.000
36.86856 587.000
36.88850 641.000
36.90845 639.000
36.92840 737.000
36.94835 796.000
36.96829 909.000
36.98824 1031.000
37.00819 1268.000
37.02813 1429.000
37.04808 1555.000
37.06803 1757.000
37.08797 2038.000
37.10792 2093.000
37.12787 2171.000
37.14781 2145.000
37.16776 2027.000
37.18771 1906.000
37.20766 1723.000
37.22760 1580.000
37.24755 1429.000
37.26750 1296.000
37.28744 1105.000
37.30739 970.000
37.32734 861.000
37.34728 827.000
37.36723 698.000
37.38718 688.000
37.40713 666.000
37.42707 625.000
37.44702 643.000
37.46697 582.000
37.48691 568.000
37.50686 601.000
37.52681 529.000
37.54675 517.000
37.56670 523.000
37.58665 508.000
37.60660 475.000
37.62654 493.000
37.64649 474.000
37.66644 471.000
37.68638 435.000
37.70633 452.000
37.72628 423.000
37.74622 448.000
37.76617 440.000
37.78612 416.000
37.80606 426.000
37.82601 436.000
37.84596 426.000
37.86591 441.000
37.88585 475.000
37.90580 451.000
37.92575 452.000
37.94569 465.000
37.96564 476.000
37.98559 435.000
38.00553 446.000
38.02548 455.000
38.04543 453.000
38.06538 477.000
38.08532 466.000
38.10527 463.000
38.12522 488.000
38.14516 499.000
38.16511 489.000
38.18506 481.000
38.20500 498.000
38.22495 486.000
38.24490 498.000
38.26484 563.000
38.28479 519.000
38.30474 542.000
38.32469 570.000
38.34463 565.000
38.36458 578.000
38.38453 537.000
38.40447 592.000
38.42442 627.000
38.44437 665.000
38.46431 727.000
38.48426 719.000
38.50421 770.000
38.52416 877.000
38.54410 884.000
38.56405 1042.000
38.58400 1111.000
38.60394 1218.000
38.62389 1266.000
38.64384 1352.000
38.66378 1436.000
38.68373 1515.000
38.70368 1546.000
38.72362 1549.000
38.74357 1514.000
38.76352 1381.000
38.78347 1350.000
38.80341 1332.000
38.82336 1227.000
38.84331 1140.000
38.86325 1149.000
38.88320 1055.000
38.90315 1021.000
38.92309 989.000
38.94304 932.000
38.96299 887.000
38.98294 877.000
39.00288 832.000
39.02283 835.000
39.04278 792.000
39.06272 767.000
39.08267 732.000
39.10262 698.000
39.12256 656.000
39.14251 618.000
39.16246 580.000
39.18241 592.000
39.20235 532.000
39.22230 611.000
39.24225 521.000
39.26219 525.000
39.28214 510.000
39.30209 548.000
39.32203 590.000
39.34198 531.000
39.36193 518.000
39.38187 530.000
39.40182 529.000
39.42177 507.000
39.44172 483.000
39.46166 510.000
39.48161 488.000
39.50156 443.000
39.52150 447.000
39.54145 411.000
39.56140 426.000
39.58134 436.000
39.60129 428.000
39.62124 424.000
39.64119 401.000
39.66113 380.000
39.68108 389.000
39.70103 362.000
39.72097 423.000
39.74092 362.000
39.76087 390.000
39.78081 365.000
39.80076 377.000
39.82071 373.000
39.84065 437.000
39.86060 376.000
39.88055 409.000
39.90050 376.000
39.92044 378.000
39.94039 358.000
39.96034 410.000
39.98028 419.000
40.00023 432.000
40.02018 389.000
40.04012 360.000
40.06007 363.000
40.08002 414.000
40.09997 356.000
40.11991 364.000
40.13986 364.000
40.15981 366.000
40.17975 366.000
40.19970 341.000
40.21965 364.000
40.23959 357.000
40.25954 368.000
40.27949 417.000
40.29943 378.000
40.31938 376.000
40.33933 362.000
40.35928 368.000
40.37922 348.000
40.39917 404.000
40.41912 358.000
40.43906 379.000
40.45901 404.000
40.47896 410.000
40.49890 399.000
40.51885 373.000
40.53880 389.000
40.55875 378.000
40.57869 377.000
40.59864 373.000
40.61859 384.000
40.63853 362.000
40.65848 396.000
40.67843 422.000
40.69837 377.000
40.71832 387.000
40.73827 411.000
40.75822 379.000
40.77816 390.000
40.79811 407.000
40.81806 350.000
40.83800 352.000
40.85795 347.000
40.87790 348.000
40.89784 390.000
40.91779 397.000
40.93774 401.000
40.95768 370.000
40.97763 381.000
40.99758 376.000
41.01753 372.000
41.03747 395.000
41.05742 338.000
41.07737 361.000
41.09731 341.000
41.11726 412.000
41.13721 391.000
41.15715 355.000
41.17710 364.000
41.19705 370.000
41.21700 383.000
41.23694 394.000
41.25689 402.000
41.27684 360.000
41.29678 424.000
41.31673 379.000
41.33668 386.000
41.35662 390.000
41.37657 389.000
41.39652 383.000
41.41646 397.000
41.43641 394.000
41.45636 410.000
41.47631 417.000
41.49625 402.000
41.51620 384.000
41.53615 421.000
41.55609 357.000
41.57604 405.000
41.59599 392.000
41.61593 415.000
41.63588 377.000
41.65583 418.000
41.67578 372.000
41.69572 391.000
41.71567 401.000
41.73562 390.000
41.75556 376.000
41.77551 387.000
41.79546 405.000
41.81540 387.000
41.83535 361.000
41.85530 398.000
41.87524 398.000
41.89519 370.000
41.91514 392.000
41.93509 361.000
41.95503 390.000
41.97498 395.000
41.99493 403.000
42.01487 409.000
42.03482 396.000
42.05477 393.000
42.07471 422.000
42.09466 389.000
42.11461 394.000
42.13456 403.000
42.15450 400.000
42.17445 426.000
42.19440 395.000
42.21434 375.000
42.23429 379.000
42.25424 372.000
42.27418 413.000
42.29413 420.000
42.31408 443.000
42.33403 441.000
42.35397 418.000
42.37392 440.000
42.39387 431.000
42.41381 432.000
42.43376 390.000
42.45371 449.000
42.47365 400.000
42.49360 459.000
42.51355 433.000
42.53349 447.000
42.55344 462.000
42.57339 466.000
42.59334 457.000
42.61328 471.000
42.63323 515.000
42.65318 495.000
42.67312 496.000
42.69307 521.000
42.71302 509.000
42.73296 544.000
42.75291 619.000
42.77286 589.000
42.79281 627.000
42.81275 661.000
42.83270 734.000
42.85265 763.000
42.87259 786.000
42.89254 931.000
42.91249 1005.000
42.93243 1108.000
42.95238 1161.000
42.97233 1226.000
42.99227 1468.000
43.01222 1537.000
43.03217 1809.000
43.05212 1797.000
43.07206 1995.000
43.09201 2163.000
43.11196 2346.000
43.13190 2307.000
43.15185 2398.000
43.17180 2303.000
43.19174 2219.000
43.21169 2201.000
43.23164 2110.000
43.25159 2031.000
43.27153 1820.000
43.29148 1802.000
43.31143 1600.000
43.33137 1437.000
43.35132 1378.000
43.37127 1190.000
43.39121 1099.000
43.41116 1076.000
43.43111 942.000
43.45105 906.000
43.47100 829.000
43.49095 805.000
43.51090 708.000
43.53084 691.000
43.55079 641.000
43.57074 582.000
43.59068 558.000
43.61063 551.000
43.63058 513.000
43.65052 500.000
43.67047 488.000
43.69042 488.000
43.71037 458.000
43.73031 456.000
43.75026 442.000
43.77021 436.000
43.79015 408.000
43.81010 426.000
43.83005 434.000
43.84999 401.000
43.86994 410.000
43.88989 403.000
43.90984 408.000
43.92978 413.000
43.94973 431.000
43.96968 400.000
43.98962 418.000
44.00957 403.000
44.02952 374.000
44.04946 408.000
44.06941 424.000
44.08936 392.000
44.10930 387.000
44.12925 432.000
44.14920 377.000
44.16915 375.000
44.18909 414.000
44.20904 391.000
44.22899 366.000
44.24893 415.000
44.26888 362.000
44.28883 394.000
44.30877 386.000
44.32872 395.000
44.34867 376.000
44.36862 383.000
44.38856 376.000
44.40851 400.000
44.42846 393.000
44.44840 349.000
44.46835 367.000
44.48830 387.000
44.50824 413.000
44.52819 388.000
44.54814 349.000
44.56808 401.000
44.58803 429.000
44.60798 403.000
44.62793 432.000
44.64787 376.000
44.66782 379.000
44.68777 374.000
44.70771 375.000
44.72766 395.000
44.74761 377.000
44.76755 400.000
44.78750 378.000
44.80745 420.000
44.82740 428.000
44.84734 405.000
44.86729 366.000
44.88724 424.000
44.90718 429.000
44.92713 432.000
44.94708 409.000
44.96702 413.000
44.98697 412.000
45.00692 451.000
45.02686 479.000
45.04681 418.000
45.06676 468.000
45.08671 466.000
45.10665 452.000
45.12660 462.000
45.14655 501.000
45.16649 468.000
45.18644 446.000
45.20639 446.000
45.22633 419.000
45.24628 472.000
45.26623 476.000
45.28618 397.000
45.30612 412.000
45.32607 408.000
45.34602 412.000
45.36596 399.000
45.38591 396.000
45.40586 388.000
45.42580 384.000
45.44575 405.000
45.46570 381.000
45.48565 380.000
45.50559 421.000
45.52554 349.000
45.54549 378.000
45.56543 410.000
45.58538 393.000
45.60533 383.000
45.62527 375.000
45.64522 364.000
45.66517 362.000
45.68511 378.000
45.70506 341.000
45.72501 362.000
45.74496 365.000
45.76490 388.000
45.78485 337.000
45.80480 394.000
45.82474 397.000
45.84469 377.000
45.86464 371.000
45.88458 391.000
45.90453 379.000
45.92448 353.000
45.94443 344.000
45.96437 352.000
45.98432 368.000
46.00427 393.000
46.02421 376.000
46.04416 365.000
46.06411 364.000
46.08405 378.000
46.10400 357.000
46.12395 363.000
46.14389 412.000
46.16384 395.000
46.18379 397.000
46.20374 367.000
46.22368 421.000
46.24363 385.000
46.26358 370.000
46.28352 400.000
46.30347 368.000
46.32342 397.000
46.34336 414.000
46.36331 398.000
46.38326 368.000
46.40321 371.000
46.42315 358.000
46.44310 410.000
46.46305 350.000
46.48299 385.000
46.50294 365.000
46.52289 307.000
46.54283 382.000
46.56278 405.000
46.58273 395.000
46.60267 350.000
46.62262 357.000
46.64257 379.000
46.66252 339.000
46.68246 361.000
46.70241 373.000
46.72236 334.000
46.74230 345.000
46.76225 376.000
46.78220 393.000
46.80214 360.000
46.82209 351.000
46.84204 365.000
46.86199 363.000
46.88193 368.000
46.90188 390.000
46.92183 353.000
46.94177 349.000
46.96172 346.000
46.98167 359.000
47.00161 348.000
47.02156 374.000
47.04151 335.000
47.06146 382.000
47.08140 357.000
47.10135 358.000
47.12130 331.000
47.14124 344.000
47.16119 362.000
47.18114 358.000
47.20108 399.000
47.22103 364.000
47.24098 398.000
47.26092 369.000
47.28087 393.000
47.30082 365.000
47.32077 359.000
47.34071 337.000
47.36066 352.000
47.38061 372.000
47.40055 352.000
47.42050 383.000
47.44045 378.000
47.46039 350.000
47.48034 365.000
47.50029 358.000
47.52024 386.000
47.54018 369.000
47.56013 353.000
47.58008 345.000
47.60002 405.000
47.61997 363.000
47.63992 346.000
47.65986 364.000
47.67981 381.000
47.69976 403.000
47.71970 409.000
47.73965 347.000
47.75960 375.000
47.77955 367.000
47.79949 378.000
47.81944 367.000
47.83939 390.000
47.85933 363.000
47.87928 388.000
47.89923 369.000
47.91917 369.000
47.93912 376.000
47.95907 343.000
47.97902 404.000
47.99896 377.000
48.01891 408.000
48.03886 394.000
48.05880 405.000
48.07875 390.000
48.09870 366.000
48.11864 353.000
48.13859 401.000
48.15854 422.000
48.17848 355.000
48.19843 387.000
48.21838 430.000
48.23833 400.000
48.25827 370.000
48.27822 379.000
48.29817 392.000
48.31811 411.000
48.33806 419.000
48.35801 405.000
48.37795 396.000
48.39790 368.000
48.41785 425.000
48.43780 403.000
48.45774 381.000
48.47769 386.000
48.49764 430.000
48.51758 444.000
48.53753 423.000
48.55748 465.000
48.57742 446.000
48.59737 475.000
48.61732 503.000
48.63726 513.000
48.65721 545.000
48.67716 611.000
48.69711 597.000
48.71705 672.000
48.73700 664.000
48.75695 657.000
48.77689 740.000
48.79684 734.000
48.81679 773.000
48.83673 754.000
48.85668 794.000
48.87663 767.000
48.89658 799.000
48.91652 708.000
48.93647 716.000
48.95642 676.000
48.97636 649.000
48.99631 644.000
49.01626 597.000
49.03620 558.000
49.05615 523.000
49.07610 545.000
49.09605 480.000
49.11599 475.000
49.13594 431.000
49.15589 445.000
49.17583 419.000
49.19578 420.000
49.21573 389.000
49.23567 365.000
49.25562 379.000
49.27557 399.000
49.29551 401.000
49.31546 416.000
49.33541 403.000
49.35536 415.000
49.37530 408.000
49.39525 354.000
49.41520 402.000
49.43514 377.000
49.45509 400.000
49.47504 408.000
49.49498 406.000
49.51493 402.000
49.53488 374.000
49.55483 359.000
49.57477 334.000
49.59472 373.000
49.61467 384.000
49.63461 354.000
49.65456 373.000
49.67451 381.000
49.69445 379.000
49.71440 370.000
49.73435 349.000
49.75429 371.000
49.77424 390.000
49.79419 385.000
49.81414 367.000
49.83408 369.000
49.85403 397.000
49.87398 417.000
49.89392 371.000
49.91387 387.000
49.93382 371.000
49.95376 387.000
49.97371 395.000
49.99366 367.000
50.01361 339.000
50.03355 406.000
50.05350 399.000
50.07345 362.000
50.09339 378.000
50.11334 392.000
50.13329 367.000
50.15323 352.000
50.17318 358.000
50.19313 400.000
50.21307 388.000
50.23302 383.000
50.25297 351.000
50.27292 367.000
50.29286 380.000
50.31281 398.000
50.33276 388.000
50.35270 381.000
50.37265 407.000
50.39260 365.000
50.41254 356.000
50.43249 415.000
50.45244 367.000
50.47239 350.000
50.49233 371.000
50.51228 348.000
50.53223 340.000
50.55217 386.000
50.57212 380.000
50.59207 389.000
50.61201 361.000
50.63196 355.000
50.65191 391.000
50.67186 328.000
50.69180 376.000
50.71175 358.000
50.73170 357.000
50.75164 370.000
50.77159 377.000
50.79154 366.000
50.81148 352.000
50.83143 347.000
50.85138 367.000
50.87132 362.000
50.89127 366.000
50.91122 368.000
50.93117 377.000
50.95111 373.000
50.97106 374.000
50.99101 365.000
51.01095 362.000
51.03090 368.000
51.05085 330.000
51.07079 397.000
51.09074 378.000
51.11069 383.000
51.13064 350.000
51.15058 389.000
51.17053 369.000
51.19048 324.000
51.21042 369.000
51.23037 362.000
51.25032 349.000
51.27026 424.000
51.29021 382.000
51.31016 364.000
51.33010 410.000
51.35005 387.000
51.37000 373.000
51.38995 374.000
51.40989 357.000
51.42984 374.000
51.44979 383.000
51.46973 408.000
51.48968 352.000
51.50963 363.000
51.52957 374.000
51.54952 369.000
51.56947 355.000
51.58942 357.000
51.60936 406.000
51.62931 391.000
51.64926 351.000
51.66920 354.000
51.68915 447.000
51.70910 350.000
51.72904 314.000
51.74899 378.000
51.76894 362.000
51.78888 372.000
51.80883 381.000
51.82878 349.000
51.84873 363.000
51.86867 382.000
51.88862 391.000
51.90857 339.000
51.92851 379.000
51.94846 421.000
51.96841 368.000
51.98835 435.000
52.00830 393.000
52.02825 383.000
52.04820 379.000
52.06814 370.000
52.08809 400.000
52.10804 374.000
52.12798 393.000
52.14793 351.000
52.16788 389.000
52.18782 385.000
52.20777 383.000
52.22772 375.000
52.24767 371.000
52.26761 405.000
52.28756 376.000
52.30751 368.000
52.32745 380.000
52.34740 399.000
52.36735 363.000
52.38729 377.000
52.40724 358.000
52.42719 382.000
52.44713 360.000
52.46708 365.000
52.48703 408.000
52.50698 364.000
52.52692 399.000
52.54687 370.000
52.56682 383.000
52.58676 377.000
52.60671 374.000
52.62666 367.000
52.64660 395.000
52.66655 379.000
52.68650 399.000
52.70645 372.000
52.72639 388.000
52.74634 426.000
52.76629 418.000
52.78623 407.000
52.80618 403.000
52.82613 389.000
52.84607 415.000
52.86602 383.000
52.88597 399.000
52.90591 408.000
52.92586 399.000
52.94581 390.000
52.96576 441.000
52.98570 375.000
53.00565 380.000
53.02560 371.000
53.04554 404.000
53.06549 395.000
53.08544 388.000
53.10538 390.000
53.12533 411.000
53.14528 421.000
53.16523 412.000
53.18517 418.000
53.20512 397.000
53.22507 422.000
53.24501 473.000
53.26496 426.000
53.28491 428.000
53.30485 435.000
53.32480 470.000
53.34475 422.000
53.36469 411.000
53.38464 425.000
53.40459 407.000
53.42454 467.000
53.44448 443.000
53.46443 448.000
53.48438 451.000
53.50432 431.000
53.52427 425.000
53.54422 412.000
53.56416 461.000
53.58411 448.000
53.60406 443.000
53.62401 444.000
53.64395 431.000
53.66390 466.000
53.68385 428.000
53.70379 460.000
53.72374 469.000
53.74369 468.000
53.76363 455.000
53.78358 434.000
53.80353 453.000
53.82348 425.000
53.84342 447.000
53.86337 449.000
53.88332 449.000
53.90326 469.000
53.92321 466.000
53.94316 449.000
53.96310 409.000
53.98305 394.000
54.00300 435.000
54.02294 422.000
54.04289 372.000
54.06284 413.000
54.08279 389.000
54.10273 399.000
54.12268 376.000
54.14263 360.000
54.16257 400.000
54.18252 401.000
54.20247 385.000
54.22241 414.000
54.24236 345.000
54.26231 370.000
54.28226 350.000
54.30220 359.000
54.32215 353.000
54.34210 372.000
54.36204 370.000
54.38199 383.000
54.40194 356.000
54.42188 362.000
54.44183 366.000
54.46178 364.000
54.48172 380.000
54.50167 371.000
54.52162 366.000
54.54157 392.000
54.56151 385.000
54.58146 368.000
54.60141 383.000
54.62135 362.000
54.64130 350.000
54.66125 375.000
54.68119 368.000
54.70114 381.000
54.72109 351.000
54.74104 360.000
54.76098 382.000
54.78093 344.000
54.80088 353.000
54.82082 357.000
54.84077 354.000
54.86072 365.000
54.88066 334.000
54.90061 343.000
54.92056 358.000
54.94050 341.000
54.96045 355.000
54.98040 368.000
55.00035 372.000
55.02029 366.000
55.04024 361.000
55.06019 342.000
55.08013 360.000
55.10008 341.000
55.12003 341.000
55.13997 346.000
55.15992 378.000
55.17987 376.000
55.19982 366.000
55.21976 364.000
55.23971 366.000
55.25966 372.000
55.27960 350.000
55.29955 339.000
55.31950 405.000
55.33944 354.000
55.35939 329.000
55.37934 369.000
55.39929 394.000
55.41923 384.000
55.43918 363.000
55.45913 315.000
55.47907 338.000
55.49902 348.000
55.51897 372.000
55.53891 350.000
55.55886 338.000
55.57881 343.000
55.59875 380.000
55.61870 401.000
55.63865 379.000
55.65860 346.000
55.67854 377.000
55.69849 364.000
55.71844 370.000
55.73838 375.000
55.75833 353.000
55.77828 357.000
55.79822 362.000
55.81817 369.000
55.83812 363.000
55.85807 392.000
55.87801 363.000
55.89796 368.000
55.91791 341.000
55.93785 361.000
55.95780 336.000
55.97775 377.000
55.99769 376.000
56.01764 355.000
56.03759 364.000
56.05753 372.000
56.07748 350.000
56.09743 384.000
56.11738 400.000
56.13732 380.000
56.15727 363.000
56.17722 355.000
56.19716 345.000
56.21711 359.000
56.23706 403.000
56.25700 375.000
56.27695 359.000
56.29690 352.000
56.31685 384.000
56.33679 374.000
56.35674 363.000
56.37669 350.000
56.39663 383.000
56.41658 386.000
56.43653 386.000
56.45647 363.000
56.47642 373.000
56.49637 385.000
56.51631 413.000
56.53626 405.000
56.55621 331.000
56.57616 361.000
56.59610 411.000
56.61605 359.000
56.63600 352.000
56.65594 364.000
56.67589 392.000
56.69584 379.000
56.71578 370.000
56.73573 370.000
56.75568 404.000
56.77563 419.000
56.79557 410.000
56.81552 399.000
56.83547 377.000
56.85541 380.000
56.87536 399.000
56.89531 412.000
56.91525 403.000
56.93520 414.000
56.95515 388.000
56.97510 375.000
56.99504 377.000
57.01499 402.000
57.03494 414.000
57.05488 408.000
57.07483 395.000
57.09478 445.000
57.11472 469.000
57.13467 476.000
57.15462 459.000
57.17456 430.000
57.19451 485.000
57.21446 514.000
57.23441 525.000
57.25435 537.000
57.27430 551.000
57.29425 630.000
57.31419 642.000
57.33414 612.000
57.35409 663.000
57.37403 600.000
57.39398 585.000
57.41393 622.000
57.43388 603.000
57.45382 594.000
57.47377 623.000
57.49372 625.000
57.51366 562.000
57.53361 568.000
57.55356 539.000
57.57350 524.000
57.59345 505.000
57.61340 483.000
57.63334 450.000
57.65329 502.000
57.67324 465.000
57.69319 483.000
57.71313 415.000
57.73308 443.000
57.75303 446.000
57.77297 432.000
57.79292 403.000
57.81287 461.000
57.83281 393.000
57.85276 406.000
57.87271 454.000
57.89266 384.000
57.91260 400.000
57.93255 414.000
57.95250 429.000
57.97244 434.000
57.99239 395.000
58.01234 403.000
58.03228 429.000
58.05223 434.000
58.07218 410.000
58.09212 465.000
58.11207 515.000
58.13202 456.000
58.15197 514.000
58.17191 534.000
58.19186 522.000
58.21181 522.000
58.23175 520.000
58.25170 511.000
58.27165 513.000
58.29159 508.000
58.31154 491.000
58.33149 486.000
58.35144 517.000
58.37138 471.000
58.39133 507.000
58.41128 458.000
58.43122 484.000
58.45117 455.000
58.47112 461.000
58.49106 441.000
58.51101 431.000
58.53096 422.000
58.55090 389.000
58.57085 431.000
58.59080 412.000
58.61075 397.000
58.63069 379.000
58.65064 394.000
58.67059 411.000
58.69053 381.000
58.71048 402.000
58.73043 413.000
58.75037 388.000
58.77032 356.000
58.79027 385.000
58.81022 388.000
58.83016 349.000
58.85011 366.000
58.87006 379.000
58.89000 366.000
58.90995 357.000
58.92990 354.000
58.94984 349.000
58.96979 383.000
58.98974 401.000
59.00969 344.000
59.02963 387.000
59.04958 350.000
59.06953 349.000
59.08947 359.000
59.10942 394.000
59.12937 371.000
59.14931 366.000
59.16926 359.000
59.18921 367.000
59.20915 338.000
59.22910 376.000
59.24905 361.000
59.26900 355.000
59.28894 344.000
59.30889 368.000
59.32884 396.000
59.34878 362.000
59.36873 323.000
59.38868 381.000
59.40862 382.000
59.42857 385.000
59.44852 382.000
59.46847 351.000
59.48841 309.000
59.50836 335.000
59.52831 389.000
59.54825 340.000
59.56820 365.000
59.58815 366.000
59.60809 356.000
59.62804 353.000
59.64799 357.000
59.66793 373.000
59.68788 397.000
59.70783 390.000
59.72778 351.000
59.74772 394.000
59.76767 376.000
59.78762 383.000
59.80756 394.000
59.82751 416.000
59.84746 341.000
59.86740 376.000
59.88735 357.000
59.90730 370.000
59.92725 386.000
59.94719 356.000
59.96714 369.000
59.98709 427.000
60.00703 364.000
60.02698 355.000
60.04693 368.000
60.06687 358.000
60.08682 359.000
60.10677 356.000
60.12671 349.000
60.14666 397.000
60.16661 398.000
60.18656 394.000
60.20650 422.000
60.22645 387.000
60.24640 375.000
60.26634 385.000
60.28629 404.000
60.30624 377.000
60.32618 414.000
60.34613 363.000
60.36608 345.000
60.38603 378.000
60.40597 396.000
60.42592 367.000
60.44587 390.000
60.46581 380.000
60.48576 404.000
60.50571 349.000
60.52565 349.000
60.54560 378.000
60.56555 375.000
60.58550 355.000
60.60544 378.000
60.62539 349.000
60.64534 382.000
60.66528 362.000
60.68523 341.000
60.70518 373.000
60.72512 400.000
60.74507 394.000
60.76502 381.000
60.78496 351.000
60.80491 367.000
60.82486 384.000
60.84481 374.000
60.86475 393.000
60.88470 380.000
60.90465 406.000
60.92459 347.000
60.94454 412.000
60.96449 371.000
60.98443 360.000
61.00438 425.000
61.02433 376.000
61.04428 377.000
61.06422 397.000
61.08417 382.000
61.10412 401.000
61.12406 353.000
61.14401 414.000
61.16396 392.000
61.18390 414.000
61.20385 419.000
61.22380 395.000
61.24374 401.000
61.26369 433.000
61.28364 493.000
61.30359 458.000
61.32353 412.000
61.34348 411.000
61.36343 472.000
61.38337 469.000
61.40332 514.000
61.42327 483.000
61.44321 485.000
61.46316 491.000
61.48311 565.000
61.50306 576.000
61.52300 519.000
61.54295 553.000
61.56290 573.000
61.58284 613.000
61.60279 578.000
61.62274 584.000
61.64268 614.000
61.66263 599.000
61.68258 566.000
61.70252 569.000
61.72247 538.000
61.74242 591.000
61.76237 553.000
61.78231 523.000
61.80226 516.000
61.82221 473.000
61.84215 478.000
61.86210 478.000
61.88205 482.000
61.90199 477.000
61.92194 484.000
61.94189 486.000
61.96184 485.000
61.98178 489.000
62.00173 475.000
62.02168 521.000
62.04162 533.000
62.06157 511.000
62.08152 516.000
62.10146 508.000
62.12141 484.000
62.14136 537.000
62.16131 491.000
62.18125 526.000
62.20120 557.000
62.22115 533.000
62.24109 547.000
62.26104 545.000
62.28099 596.000
62.30093 578.000
62.32088 645.000
62.34083 631.000
62.36077 626.000
62.38072 648.000
62.40067 672.000
62.42062 762.000
62.44056 786.000
62.46051 840.000
62.48046 896.000
62.50040 978.000
62.52035 1005.000
62.54030 1095.000
62.56024 1149.000
62.58019 1070.000
62.60014 1202.000
62.62009 1309.000
62.64003 1267.000
62.65998 1287.000
62.67993 1302.000
62.69987 1248.000
62.71982 1243.000
62.73977 1142.000
62.75971 1151.000
62.77966 1102.000
62.79961 1092.000
62.81955 1148.000
62.83950 1014.000
62.85945 1012.000
62.87940 962.000
62.89934 1009.000
62.91929 981.000
62.93924 922.000
62.95918 1015.000
62.97913 852.000
62.99908 902.000
63.01902 821.000
63.03897 799.000
63.05892 802.000
63.07887 744.000
63.09881 788.000
63.11876 778.000
63.13871 710.000
63.15865 666.000
63.17860 640.000
63.19855 633.000
63.21849 599.000
63.23844 604.000
63.25839 544.000
63.27833 564.000
63.29828 489.000
63.31823 495.000
63.33818 492.000
63.35812 494.000
63.37807 434.000
63.39802 446.000
63.41796 461.000
63.43791 443.000
63.45786 438.000
63.47780 445.000
63.49775 437.000
63.51770 426.000
63.53765 401.000
63.55759 403.000
63.57754 411.000
63.59749 411.000
63.61743 429.000
63.63738 450.000
63.65733 383.000
63.67727 394.000
63.69722 399.000
63.71717 427.000
63.73712 388.000
63.75706 417.000
63.77701 422.000
63.79696 376.000
63.81690 367.000
63.83685 352.000
63.85680 389.000
63.87674 393.000
63.89669 414.000
63.91664 405.000
63.93658 449.000
63.95653 411.000
63.97648 402.000
63.99643 395.000
64.01637 401.000
64.03632 389.000
64.05627 395.000
64.07621 419.000
64.09616 415.000
64.11611 415.000
64.13605 461.000
64.15600 437.000
64.17595 397.000
64.19590 374.000
64.21584 438.000
64.23579 400.000
64.25574 418.000
64.27568 459.000
64.29563 442.000
64.31558 436.000
64.33552 415.000
64.35547 398.000
64.37542 446.000
64.39536 464.000
64.41531 433.000
64.43526 407.000
64.45521 443.000
64.47515 431.000
64.49510 423.000
64.51505 425.000
64.53499 408.000
64.55494 414.000
64.57489 407.000
64.59483 401.000
64.61478 410.000
64.63473 406.000
64.65468 420.000
64.67462 398.000
64.69457 402.000
64.71452 403.000
64.73446 383.000
64.75441 433.000
64.77436 396.000
64.79430 372.000
64.81425 385.000
64.83420 413.000
64.85414 395.000
64.87409 383.000
64.89404 431.000
64.91399 359.000
64.93393 379.000
64.95388 409.000
64.97383 400.000
64.99377 383.000
65.01372 390.000
65.03367 407.000
65.05361 386.000
65.07356 424.000
65.09351 398.000
65.11346 380.000
65.13340 399.000
65.15335 374.000
65.17330 376.000
65.19324 433.000
65.21319 380.000
65.23314 383.000
65.25308 399.000
65.27303 373.000
65.29298 383.000
65.31293 378.000
65.33287 383.000
65.35282 429.000
65.37277 397.000
65.39271 413.000
65.41266 388.000
65.43261 386.000
65.45255 450.000
65.47250 426.000
65.49245 420.000
65.51239 432.000
65.53234 471.000
65.55229 472.000
65.57224 469.000
65.59218 454.000
65.61213 474.000
65.63208 427.000
65.65202 502.000
65.67197 502.000
65.69192 467.000
65.71186 491.000
65.73181 484.000
65.75176 503.000
65.77171 480.000
65.79165 470.000
65.81160 447.000
65.83155 451.000
65.85149 488.000
65.87144 514.000
65.89139 487.000
65.91133 519.000
65.93128 485.000
65.95123 485.000
65.97117 478.000
65.99112 460.000
66.01107 494.000
66.03102 465.000
66.05096 476.000
66.07091 501.000
66.09086 499.000
66.11080 483.000
66.13075 521.000
66.15070 516.000
66.17064 505.000
66.19059 502.000
66.21054 507.000
66.23049 513.000
66.25043 533.000
66.27038 618.000
66.29033 561.000
66.31027 550.000
66.33022 543.000
66.35017 572.000
66.37011 556.000
66.39006 581.000
66.41001 527.000
66.42995 559.000
66.44990 532.000
66.46985 488.000
66.48980 573.000
66.50974 542.000
66.52969 508.000
66.54964 531.000
66.56958 544.000
66.58953 453.000
66.60948 469.000
66.62942 435.000
66.64937 470.000
66.66932 445.000
66.68927 451.000
66.70921 473.000
66.72916 469.000
66.74911 459.000
66.76905 456.000
66.78900 478.000
66.80895 466.000
66.82889 466.000
66.84884 460.000
66.86879 485.000
66.88874 421.000
66.90868 416.000
66.92863 424.000
66.94858 441.000
66.96852 442.000
66.98847 435.000
67.00842 399.000
67.02836 409.000
67.04831 385.000
67.06826 413.000
67.08820 396.000
67.10815 417.000
67.12810 422.000
67.14805 434.000
67.16799 417.000
67.18794 387.000
67.20789 384.000
67.22783 444.000
67.24778 386.000
67.26773 428.000
67.28767 405.000
67.30762 415.000
67.32757 430.000
67.34752 429.000
67.36746 412.000
67.38741 405.000
67.40736 405.000
67.42730 417.000
67.44725 394.000
67.46720 375.000
67.48714 391.000
67.50709 402.000
67.52704 410.000
67.54698 444.000
67.56693 428.000
67.58688 452.000
67.60683 420.000
67.62677 409.000
67.64672 446.000
67.66667 460.000
67.68661 438.000
67.70656 428.000
67.72651 432.000
67.74645 437.000
67.76640 477.000
67.78635 444.000
67.80630 465.000
67.82624 473.000
67.84619 504.000
67.86614 465.000
67.88608 513.000
67.90603 557.000
67.92598 516.000
67.94592 559.000
67.96587 576.000
67.98582 565.000
68.00576 528.000
68.02571 527.000
68.04566 561.000
68.06561 531.000
68.08555 530.000
68.10550 567.000
68.12545 520.000
68.14539 539.000
68.16534 513.000
68.18529 539.000
68.20523 491.000
68.22518 511.000
68.24513 468.000
68.26508 462.000
68.28502 501.000
68.30497 435.000
68.32492 486.000
68.34486 416.000
68.36481 410.000
68.38476 449.000
68.40470 422.000
68.42465 386.000
68.44460 393.000
68.46455 400.000
68.48449 409.000
68.50444 381.000
68.52439 388.000
68.54433 415.000
68.56428 403.000
68.58423 372.000
68.60417 362.000
68.62412 387.000
68.64407 397.000
68.66401 380.000
68.68396 411.000
68.70391 380.000
68.72386 414.000
68.74380 374.000
68.76375 381.000
68.78370 423.000
68.80364 352.000
68.82359 393.000
68.84354 394.000
68.86348 394.000
68.88343 418.000
68.90338 380.000
68.92333 387.000
68.94327 390.000
68.96322 380.000
68.98317 379.000
69.00311 388.000
69.02306 381.000
69.04301 372.000
69.06295 376.000
69.08290 346.000
69.10285 376.000
69.12279 378.000
69.14274 351.000
69.16269 381.000
69.18264 337.000
69.20258 373.000
69.22253 351.000
69.24248 338.000
69.26242 360.000
69.28237 386.000
69.30232 374.000
69.32226 361.000
69.34221 348.000
69.36216 395.000
69.38211 336.000
69.40205 381.000
69.42200 391.000
69.44195 352.000
69.46189 387.000
69.48184 355.000
69.50179 360.000
69.52173 358.000
69.54168 343.000
69.56163 380.000
69.58157 404.000
69.60152 376.000
69.62147 347.000
69.64142 380.000
69.66136 357.000
69.68131 330.000
69.70126 356.000
69.72120 383.000
69.74115 358.000
69.76110 332.000
69.78104 374.000
69.80099 355.000
69.82094 327.000
69.84089 394.000
69.86083 358.000
69.88078 363.000
69.90073 361.000
69.92067 398.000
69.94062 329.000
69.96057 377.000
69.98051 328.000
70.00046 347.000
70.02041 370.000
70.04035 373.000
70.06030 370.000
70.08025 344.000
70.10020 377.000
70.12014 371.000
70.14009 359.000
70.16004 373.000
70.17998 369.000
70.19993 392.000
70.21988 368.000
70.23982 377.000
70.25977 382.000
70.27972 376.000
70.29967 398.000
70.31961 379.000
70.33956 390.000
70.35951 381.000
70.37945 368.000
70.39940 338.000
70.41935 365.000
70.43929 371.000
70.45924 384.000
70.47919 366.000
70.49914 347.000
70.51908 395.000
70.53903 363.000
70.55898 355.000
70.57892 344.000
70.59887 341.000
70.61882 357.000
70.63876 367.000
70.65871 377.000
70.67866 343.000
70.69860 392.000
70.71855 374.000
70.73850 368.000
70.75845 368.000
70.77839 360.000
70.79834 396.000
70.81829 389.000
70.83823 382.000
70.85818 387.000
70.87813 339.000
70.89807 344.000
70.91802 342.000
70.93797 389.000
70.95792 375.000
70.97786 381.000
70.99781 355.000
71.01776 380.000
71.03770 360.000
71.05765 368.000
71.07760 383.000
71.09754 387.000
71.11749 373.000
71.13744 379.000
71.15738 368.000
71.17733 358.000
71.19728 370.000
71.21723 364.000
71.23717 384.000
71.25712 384.000
71.27707 396.000
71.29701 398.000
71.31696 387.000
71.33691 363.000
71.35685 379.000
71.37680 410.000
71.39675 422.000
71.41670 394.000
71.43664 357.000
71.45659 395.000
71.47654 415.000
71.49648 400.000
71.51643 373.000
71.53638 368.000
71.55632 402.000
71.57627 376.000
71.59622 396.000
71.61616 437.000
71.63611 392.000
71.65606 401.000
71.67601 386.000
71.69595 396.000
71.71590 365.000
71.73585 399.000
71.75579 371.000
71.77574 416.000
71.79569 406.000
71.81563 395.000
71.83558 358.000
71.85553 356.000
71.87548 366.000
71.89542 385.000
71.91537 376.000
71.93532 364.000
71.95526 408.000
71.97521 371.000
71.99516 368.000
72.01510 413.000
72.03505 402.000
72.05500 391.000
72.07495 343.000
72.09489 403.000
72.11484 372.000
72.13479 356.000
72.15473 394.000
72.17468 380.000
72.19463 412.000
72.21457 356.000
72.23452 417.000
72.25447 379.000
72.27441 398.000
72.29436 444.000
72.31431 425.000
72.33426 448.000
72.35420 430.000
72.37415 433.000
72.39410 421.000
72.41404 416.000
72.43399 468.000
72.45394 417.000
72.47388 401.000
72.49383 433.000
72.51378 458.000
72.53373 431.000
72.55367 448.000
72.57362 422.000
72.59357 406.000
72.61351 401.000
72.63346 415.000
72.65341 420.000
72.67335 400.000
72.69330 357.000
72.71325 403.000
72.73319 385.000
72.75314 385.000
72.77309 399.000
72.79304 365.000
72.81298 349.000
72.83293 427.000
72.85288 381.000
72.87282 388.000
72.89277 393.000
72.91272 356.000
72.93266 392.000
72.95261 369.000
72.97256 336.000
72.99251 371.000
73.01245 368.000
73.03240 400.000
73.05235 379.000
73.07229 384.000
73.09224 349.000
73.11219 385.000
73.13213 351.000
73.15208 377.000
73.17203 355.000
73.19197 377.000
73.21192 397.000
73.23187 387.000
73.25182 337.000
73.27176 396.000
73.29171 372.000
73.31166 412.000
73.33160 387.000
73.35155 365.000
73.37150 354.000
73.39144 364.000
73.41139 376.000
73.43134 350.000
73.45129 397.000
73.47123 338.000
73.49118 360.000
73.51113 355.000
73.53107 402.000
73.55102 380.000
73.57097 395.000
73.59091 381.000
73.61086 411.000
73.63081 376.000
73.65076 410.000
73.67070 378.000
73.69065 381.000
73.71060 368.000
73.73054 357.000
73.75049 397.000
73.77044 375.000
73.79038 393.000
73.81033 353.000
73.83028 394.000
73.85022 378.000
73.87017 394.000
73.89012 378.000
73.91007 380.000
73.93001 390.000
73.94996 383.000
73.96991 400.000
73.98985 417.000
74.00980 366.000
74.02975 399.000
74.04969 366.000
74.06964 365.000
74.08959 379.000
74.10954 387.000
74.12948 391.000
74.14943 365.000
74.16938 382.000
74.18932 420.000
74.20927 355.000
74.22922 385.000
74.24916 397.000
74.26911 377.000
74.28906 377.000
74.30900 405.000
74.32895 433.000
74.34890 445.000
74.36885 422.000
74.38879 427.000
74.40874 405.000
74.42869 430.000
74.44863 432.000
74.46858 425.000
74.48853 456.000
74.50847 444.000
74.52842 455.000
74.54837 425.000
74.56832 468.000
74.58826 475.000
74.60821 486.000
74.62816 461.000
74.64810 426.000
74.66805 475.000
74.68800 477.000
74.70794 469.000
74.72789 497.000
74.74784 504.000
74.76778 505.000
74.78773 543.000
74.80768 517.000
74.82763 596.000
74.84757 507.000
74.86752 576.000
74.88747 563.000
74.90741 572.000
74.92736 596.000
74.94731 641.000
74.96725 623.000
74.98720 675.000
75.00715 704.000
75.02710 708.000
75.04704 692.000
75.06699 746.000
75.08694 686.000
75.10688 731.000
75.12683 750.000
75.14678 680.000
75.16672 703.000
75.18667 704.000
75.20662 727.000
75.22657 695.000
75.24651 701.000
75.26646 655.000
75.28641 642.000
75.30635 660.000
75.32630 665.000
75.34625 644.000
75.36619 629.000
75.38614 602.000
75.40609 544.000
75.42603 592.000
75.44598 547.000
75.46593 552.000
75.48588 537.000
75.50582 498.000
75.52577 490.000
75.54572 472.000
75.56566 473.000
75.58561 461.000
75.60556 455.000
75.62550 412.000
75.64545 433.000
75.66540 447.000
75.68535 430.000
75.70529 418.000
75.72524 433.000
75.74519 442.000
75.76513 388.000
75.78508 397.000
75.80503 402.000
75.82497 434.000
75.84492 419.000
75.86487 421.000
75.88481 380.000
75.90476 406.000
75.92471 379.000
75.94466 398.000
75.96460 355.000
75.98455 392.000
76.00450 395.000
76.02444 413.000
76.04439 367.000
76.06434 391.000
76.08428 393.000
76.10423 402.000
76.12418 370.000
76.14413 415.000
76.16407 403.000
76.18402 355.000
76.20397 376.000
76.22391 394.000
76.24386 369.000
76.26381 372.000
76.28375 370.000
76.30370 380.000
76.32365 420.000
76.34359 340.000
76.36354 370.000
76.38349 374.000
76.40344 355.000
76.42338 381.000
76.44333 331.000
76.46328 374.000
76.48322 379.000
76.50317 384.000
76.52312 370.000
76.54306 391.000
76.56301 357.000
76.58296 369.000
76.60291 404.000
76.62285 345.000
76.64280 382.000
76.66275 390.000
76.68269 387.000
76.70264 400.000
76.72259 384.000
76.74253 392.000
76.76248 374.000
76.78243 390.000
76.80238 402.000
76.82232 378.000
76.84227 377.000
76.86222 381.000
76.88216 402.000
76.90211 380.000
76.92206 375.000
76.94200 358.000
76.96195 323.000
76.98190 363.000
77.00184 340.000
77.02179 361.000
77.04174 396.000
77.06169 374.000
77.08163 367.000
77.10158 389.000
77.12153 387.000
77.14147 391.000
77.16142 361.000
77.18137 373.000
77.20131 405.000
77.22126 339.000
77.24121 396.000
77.26116 366.000
77.28110 377.000
77.30105 388.000
77.32100 368.000
77.34094 330.000
77.36089 373.000
77.38084 392.000
77.40078 372.000
77.42073 340.000
77.44068 392.000
77.46062 387.000
77.48057 360.000
77.50052 364.000
77.52047 378.000
77.54041 383.000
77.56036 393.000
77.58031 358.000
77.60025 378.000
77.62020 352.000
77.64015 370.000
77.66009 366.000
77.68004 366.000
77.69999 397.000
77.71994 414.000
77.73988 366.000
77.75983 401.000
77.77978 367.000
77.79972 384.000
77.81967 386.000
77.83962 368.000
77.85956 372.000
77.87951 370.000
77.89946 353.000
77.91940 384.000
77.93935 374.000
77.95930 391.000
77.97925 368.000
77.99919 358.000
78.01914 371.000
78.03909 374.000
78.05903 360.000
78.07898 349.000
78.09893 357.000
78.11887 412.000
78.13882 355.000
78.15877 393.000
78.17872 388.000
78.19866 357.000
78.21861 362.000
78.23856 412.000
78.25850 404.000
78.27845 416.000
78.29840 358.000
78.31834 399.000
78.33829 388.000
78.35824 376.000
78.37819 384.000
78.39813 354.000
78.41808 411.000
78.43803 364.000
78.45797 422.000
78.47792 376.000
78.49787 362.000
78.51781 371.000
78.53776 405.000
78.55771 377.000
78.57765 406.000
78.59760 411.000
78.61755 375.000
78.63750 371.000
78.65744 396.000
78.67739 407.000
78.69734 394.000
78.71728 393.000
78.73723 389.000
78.75718 422.000
78.77712 390.000
78.79707 413.000
78.81702 424.000
78.83697 418.000
78.85691 462.000
78.87686 456.000
78.89681 483.000
78.91675 542.000
78.93670 458.000
78.95665 500.000
78.97659 542.000
78.99654 482.000
79.01649 570.000
79.03643 536.000
79.05638 599.000
79.07633 593.000
79.09628 604.000
79.11622 604.000
79.13617 538.000
79.15612 590.000
79.17606 601.000
79.19601 545.000
79.21596 547.000
79.23590 529.000
79.25585 522.000
79.27580 497.000
79.29575 539.000
79.31569 503.000
79.33564 512.000
79.35559 479.000
79.37553 503.000
79.39548 469.000
79.41543 459.000
79.43537 472.000
79.45532 470.000
79.47527 464.000
79.49521 451.000
79.51516 443.000
79.53511 439.000
79.55506 431.000
79.57500 475.000
79.59495 401.000
79.61490 457.000
79.63484 457.000
79.65479 403.000
79.67474 396.000
79.69468 392.000
79.71463 390.000
79.73458 437.000
79.75453 391.000
79.77447 406.000
79.79442 375.000
79.81437 434.000
79.83431 367.000
79.85426 392.000
79.87421 399.000
79.89415 432.000
79.91410 394.000
79.93405 333.000
79.95399 386.000
79.97394 384.000
79.99389 367.000
80.01384 424.000
80.03378 372.000
80.05373 388.000
80.07368 399.000
80.09362 347.000
80.11357 405.000
80.13352 365.000
80.15346 387.000
80.17341 392.000
80.19336 375.000
80.21331 381.000
80.23325 371.000
80.25320 442.000
80.27315 409.000
80.29309 401.000
80.31304 374.000
80.33299 393.000
80.35293 411.000
80.37288 383.000
80.39283 399.000
80.41278 431.000
80.43272 442.000
80.45267 339.000
80.47262 394.000
80.49256 378.000
80.51251 385.000
80.53246 376.000
80.55240 401.000
80.57235 373.000
80.59230 380.000
80.61224 409.000
80.63219 374.000
80.65214 355.000
80.67209 353.000
80.69203 369.000
80.71198 385.000
80.73193 428.000
80.75187 358.000
80.77182 391.000
80.79177 393.000
80.81171 374.000
80.83166 360.000
80.85161 357.000
80.87156 377.000
80.89150 385.000
80.91145 375.000
80.93140 411.000
80.95134 360.000
80.97129 346.000
80.99124 395.000
81.01118 362.000
81.03113 368.000
81.05108 364.000
81.07102 333.000
81.09097 340.000
81.11092 375.000
81.13087 365.000
81.15081 345.000
81.17076 354.000
81.19071 359.000
81.21065 385.000
81.23060 354.000
81.25055 374.000
81.27049 364.000
81.29044 395.000
81.31039 341.000
81.33034 359.000
81.35028 382.000
81.37023 350.000
81.39018 375.000
81.41012 363.000
81.43007 356.000
81.45002 365.000
81.46996 361.000
81.48991 385.000
81.50986 397.000
81.52980 384.000
81.54975 349.000
81.56970 334.000
81.58965 347.000
81.60959 369.000
81.62954 395.000
81.64949 381.000
81.66943 378.000
81.68938 371.000
81.70933 361.000
81.72927 368.000
81.74922 348.000
81.76917 374.000
81.78912 391.000
81.80906 356.000
81.82901 361.000
81.84896 375.000
81.86890 385.000
81.88885 366.000
81.90880 355.000
81.92874 375.000
81.94869 375.000
81.96864 403.000
81.98859 368.000
82.00853 357.000
82.02848 401.000
82.04843 324.000
82.06837 386.000
82.08832 388.000
82.10827 370.000
82.12821 391.000
82.14816 426.000
82.16811 377.000
82.18805 399.000
82.20800 408.000
82.22795 431.000
82.24790 418.000
82.26784 370.000
82.28779 358.000
82.30774 403.000
82.32768 387.000
82.34763 387.000
82.36758 363.000
82.38752 403.000
82.40747 405.000
82.42742 379.000
82.44737 421.000
82.46731 392.000
82.48726 385.000
82.50721 378.000
82.52715 381.000
82.54710 415.000
82.56705 406.000
82.58699 415.000
82.60694 464.000
82.62689 445.000
82.64683 381.000
82.66678 397.000
82.68673 443.000
82.70668 422.000
82.72662 406.000
82.74657 425.000
82.76652 373.000
82.78646 419.000
82.80641 412.000
82.82636 416.000
82.84630 376.000
82.86625 410.000
82.88620 439.000
82.90615 421.000
82.92609 402.000
82.94604 377.000
82.96599 409.000
82.98593 416.000
83.00588 397.000
83.02583 389.000
83.04577 424.000
83.06572 419.000
83.08567 415.000
83.10561 383.000
83.12556 399.000
83.14551 410.000
83.16546 412.000
83.18540 377.000
83.20535 407.000
83.22530 438.000
83.24524 403.000
83.26519 369.000
83.28514 400.000
83.30508 403.000
83.32503 344.000
83.34498 396.000
83.36493 392.000
83.38487 407.000
83.40482 434.000
83.42477 393.000
83.44471 409.000
83.46466 414.000
83.48461 381.000
83.50455 411.000
83.52450 419.000
83.54445 412.000
83.56440 377.000
83.58434 408.000
83.60429 385.000
83.62424 401.000
83.64418 414.000
83.66413 410.000
83.68408 417.000
83.70402 421.000
83.72397 397.000
83.74392 417.000
83.76386 415.000
83.78381 376.000
83.80376 381.000
83.82371 449.000
83.84365 374.000
83.86360 373.000
83.88355 396.000
83.90349 371.000
83.92344 415.000
83.94339 409.000
83.96333 418.000
83.98328 382.000
84.00323 350.000
84.02318 400.000
84.04312 411.000
84.06307 415.000
84.08302 394.000
84.10296 390.000
84.12291 354.000
84.14286 366.000
84.16280 360.000
84.18275 396.000
84.20270 407.000
84.22264 378.000
84.24259 402.000
84.26254 376.000
84.28249 377.000
84.30243 367.000
84.32238 390.000
84.34233 396.000
84.36227 365.000
84.38222 381.000
84.40217 364.000
84.42211 383.000
84.44206 379.000
84.46201 402.000
84.48196 361.000
84.50190 360.000
84.52185 370.000
84.54180 412.000
84.56174 362.000
84.58169 392.000
84.60164 354.000
84.62158 396.000
84.64153 351.000
84.66148 365.000
84.68142 360.000
84.70137 397.000
84.72132 380.000
84.74127 399.000
84.76121 393.000
84.78116 342.000
84.80111 373.000
84.82105 368.000
84.84100 400.000
84.86095 364.000
84.88089 381.000
84.90084 382.000
84.92079 362.000
84.94074 375.000
84.96068 363.000
84.98063 400.000
85.00058 385.000
85.02052 370.000
85.04047 390.000
85.06042 361.000
85.08036 354.000
85.10031 338.000
85.12026 401.000
85.14021 375.000
85.16015 387.000
85.18010 342.000
85.20005 354.000
85.21999 378.000
85.23994 369.000
85.25989 391.000
85.27983 358.000
85.29978 360.000
85.31973 336.000
85.33967 343.000
85.35962 338.000
85.37957 378.000
85.39952 366.000
85.41946 378.000
85.43941 358.000
85.45936 378.000
85.47930 385.000
85.49925 359.000
85.51920 384.000
85.53914 387.000
85.55909 377.000
85.57904 374.000
85.59899 373.000
85.61893 323.000
85.63888 335.000
85.65883 392.000
85.67877 370.000
85.69872 371.000
85.71867 364.000
85.73861 404.000
85.75856 393.000
85.77851 389.000
85.79845 385.000
85.81840 364.000
85.83835 343.000
85.85830 386.000
85.87824 369.000
85.89819 369.000
85.91814 345.000
85.93808 380.000
85.95803 327.000
85.97798 411.000
85.99792 388.000
86.01787 343.000
86.03782 353.000
86.05777 406.000
86.07771 409.000
86.09766 371.000
86.11761 363.000
86.13755 396.000
86.15750 371.000
86.17745 348.000
86.19739 337.000
86.21734 357.000
86.23729 383.000
86.25723 333.000
86.27718 381.000
86.29713 352.000
86.31708 370.000
86.33702 382.000
86.35697 352.000
86.37692 364.000
86.39686 354.000
86.41681 342.000
86.43676 393.000
86.45670 393.000
86.47665 369.000
86.49660 338.000
86.51655 399.000
86.53649 384.000
86.55644 361.000
86.57639 361.000
86.59633 368.000
86.61628 385.000
86.63623 378.000
86.65617 380.000
86.67612 377.000
86.69607 394.000
86.71602 365.000
86.73596 365.000
86.75591 369.000
86.77586 401.000
86.79580 406.000
86.81575 355.000
86.83570 392.000
86.85564 356.000
86.87559 380.000
86.89554 341.000
86.91548 398.000
86.93543 357.000
86.95538 384.000
86.97533 381.000
86.99527 398.000
87.01522 382.000
87.03517 398.000
87.05511 399.000
87.07506 362.000
87.09501 364.000
87.11495 370.000
87.13490 362.000
87.15485 399.000
87.17480 350.000
87.19474 389.000
87.21469 375.000
87.23464 405.000
87.25458 395.000
87.27453 426.000
87.29448 425.000
87.31442 368.000
87.33437 375.000
87.35432 376.000
87.37426 347.000
87.39421 379.000
87.41416 415.000
87.43411 389.000
87.45405 377.000
87.47400 401.000
87.49395 413.000
87.51389 388.000
87.53384 357.000
87.55379 367.000
87.57373 392.000
87.59368 409.000
87.61363 403.000
87.63358 395.000
87.65352 380.000
87.67347 375.000
87.69342 399.000
87.71336 370.000
87.73331 389.000
87.75326 376.000
87.77320 401.000
87.79315 390.000
87.81310 388.000
87.83304 390.000
87.85299 384.000
87.87294 373.000
87.89289 369.000
87.91283 335.000
87.93278 400.000
87.95273 398.000
87.97267 334.000
87.99262 400.000
88.01257 335.000
88.03251 369.000
88.05246 361.000
88.07241 392.000
88.09236 362.000
88.11230 366.000
88.13225 357.000
88.15220 373.000
88.17214 371.000
88.19209 361.000
88.21204 339.000
88.23198 372.000
88.25193 362.000
88.27188 370.000
88.29183 365.000
88.31177 395.000
88.33172 380.000
88.35167 355.000
88.37161 347.000
88.39156 324.000
88.41151 376.000
88.43145 362.000
88.45140 347.000
88.47135 409.000
88.49129 367.000
88.51124 362.000
88.53119 357.000
88.55114 383.000
88.57108 371.000
88.59103 357.000
88.61098 367.000
88.63092 381.000
88.65087 358.000
88.67082 373.000
88.69076 367.000
88.71071 393.000
88.73066 348.000
88.75061 387.000
88.77055 371.000
88.79050 368.000
88.81045 390.000
88.83039 352.000
88.85034 390.000
88.87029 415.000
88.89023 353.000
88.91018 344.000
88.93013 368.000
88.95007 362.000
88.97002 382.000
88.98997 383.000
89.00992 341.000
89.02986 403.000
89.04981 346.000
89.06976 390.000
89.08970 390.000
89.10965 340.000
89.12960 384.000
89.14954 393.000
89.16949 393.000
89.18944 384.000
89.20939 412.000
89.22933 352.000
89.24928 352.000
89.26923 392.000
89.28917 344.000
89.30912 401.000
89.32907 380.000
89.34901 354.000
89.36896 359.000
89.38891 381.000
89.40885 384.000
89.42880 408.000
89.44875 393.000
89.46870 422.000
89.48864 420.000
89.50859 381.000
89.52854 377.000
89.54848 372.000
89.56843 413.000
89.58838 407.000
89.60832 379.000
89.62827 399.000
89.64822 403.000
89.66817 429.000
89.68811 400.000
89.70806 371.000
89.72801 414.000
89.74795 406.000
89.76790 380.000
89.78785 394.000
89.80779 411.000
89.82774 415.000
89.84769 368.000
89.86764 403.000
89.88758 397.000
89.90753 428.000
89.92748 428.000
89.94742 388.000
89.96737 403.000
89.98732 379.000
90.00726 388.000
