10.00000 129.000
10.01995 133.000
10.03989 135.000
10.05984 134.000
10.07979 146.000
10.09973 128.000
10.11968 140.000
10.13963 162.000
10.15958 151.000
10.17952 132.000
10.19947 129.000
10.21942 142.000
10.23936 147.000
10.25931 147.000
10.27926 144.000
10.29920 132.000
10.31915 122.000
10.33910 176.000
10.35905 142.000
10.37899 142.000
10.39894 137.000
10.41889 137.000
10.43883 162.000
10.45878 140.000
10.47873 134.000
10.49867 134.000
10.51862 138.000
10.53857 139.000
10.55851 138.000
10.57846 141.000
10.59841 154.000
10.61836 147.000
10.63830 145.000
10.65825 161.000
10.67820 151.000
10.69814 147.000
10.71809 146.000
10.73804 139.000
10.75798 150.000
10.77793 135.000
10.79788 135.000
10.81783 151.000
10.83777 158.000
10.85772 139.000
10.87767 147.000
10.89761 157.000
10.91756 130.000
10.93751 161.000
10.95745 164.000
10.97740 137.000
10.99735 144.000
11.01730 165.000
11.03724 147.000
11.05719 168.000
11.07714 143.000
11.09708 153.000
11.11703 148.000
11.13698 134.000
11.15692 174.000
11.17687 163.000
11.19682 128.000
11.21676 152.000
11.23671 152.000
11.25666 136.000
11.27661 149.000
11.29655 132.000
11.31650 142.000
11.33645 144.000
11.35639 167.000
11.37634 150.000
11.39629 178.000
11.41623 141.000
11.43618 142.000
11.45613 145.000
11.47608 158.000
11.49602 141.000
11.51597 142.000
11.53592 145.000
11.55586 151.000
11.57581 134.000
11.59576 149.000
11.61570 150.000
11.63565 144.000
11.65560 167.000
11.67554 151.000
11.69549 153.000
11.71544 149.000
11.73539 156.000
11.75533 134.000
11.77528 147.000
11.79523 128.000
11.81517 160.000
11.83512 149.000
11.85507 153.000
11.87501 142.000
11.89496 144.000
11.91491 139.000
11.93486 143.000
11.95480 135.000
11.97475 145.000
11.99470 144.000
12.01464 150.000
12.03459 138.000
12.05454 168.000
12.07448 156.000
12.09443 152.000
12.11438 145.000
12.13432 137.000
12.15427 188.000
12.17422 144.000
12.19417 146.000
12.21411 152.000
12.23406 149.000
12.25401 149.000
12.27395 129.000
12.29390 124.000
12.31385 144.000
12.33379 129.000
12.35374 151.000
12.37369 153.000
12.39364 154.000
12.41358 146.000
12.43353 156.000
12.45348 155.000
12.47342 146.000
12.49337 139.000
12.51332 156.000
12.53326 178.000
12.55321 164.000
12.57316 178.000
12.59311 141.000
12.61305 155.000
12.63300 147.000
12.65295 144.000
12.67289 136.000
12.69284 159.000
12.71279 129.000
12.73273 143.000
12.75268 161.000
12.77263 133.000
12.79257 131.000
12.81252 163.000
12.83247 165.000
12.85242 150.000
12.87236 152.000
12.89231 160.000
12.91226 169.000
12.93220 134.000
12.95215 161.000
12.97210 158.000
12.99204 143.000
13.01199 139.000
13.03194 136.000
13.05189 149.000
13.07183 157.000
13.09178 159.000
13.11173 154.000
13.13167 137.000
13.15162 152.000
13.17157 152.000
13.19151 126.000
13.21146 149.000
13.23141 191.000
13.25135 123.000
13.27130 134.000
13.29125 152.000
13.31120 163.000
13.33114 177.000
13.35109 140.000
13.37104 148.000
13.39098 148.000
13.41093 129.000
13.43088 135.000
13.45082 154.000
13.47077 148.000
13.49072 159.000
13.51067 151.000
13.53061 142.000
13.55056 142.000
13.57051 156.000
13.59045 135.000
13.61040 153.000
13.63035 161.000
13.65029 152.000
13.67024 140.000
13.69019 178.000
13.71013 136.000
13.73008 181.000
13.75003 135.000
13.76998 149.000
13.78992 144.000
13.80987 147.000
13.82982 146.000
13.84976 162.000
13.86971 145.000
13.88966 157.000
13.90960 127.000
13.92955 166.000
13.94950 151.000
13.96945 141.000
13.98939 138.000
14.00934 151.000
14.02929 173.000
14.04923 147.000
14.06918 137.000
14.08913 160.000
14.10907 162.000
14.12902 136.000
14.14897 151.000
14.16892 148.000
14.18886 169.000
14.20881 166.000
14.22876 155.000
14.24870 142.000
14.26865 153.000
14.28860 170.000
14.30854 150.000
14.32849 155.000
14.34844 161.000
14.36838 154.000
14.38833 157.000
14.40828 153.000
14.42823 164.000
14.44817 148.000
14.46812 157.000
14.48807 122.000
14.50801 157.000
14.52796 131.000
14.54791 148.000
14.56785 168.000
14.58780 143.000
14.60775 171.000
14.62770 155.000
14.64764 141.000
14.66759 146.000
14.68754 152.000
14.70748 164.000
14.72743 165.000
14.74738 160.000
14.76732 155.000
14.78727 152.000
14.80722 143.000
14.82716 173.000
14.84711 169.000
14.86706 159.000
14.88701 153.000
14.90695 140.000
14.92690 151.000
14.94685 138.000
14.96679 163.000
14.98674 155.000
15.00669 159.000
15.02663 140.000
15.04658 160.000
15.06653 174.000
15.08648 180.000
15.10642 166.000
15.12637 162.000
15.14632 164.000
15.16626 145.000
15.18621 173.000
15.20616 176.000
15.22610 163.000
15.24605 166.000
15.26600 169.000
15.28594 194.000
15.30589 174.000
15.32584 194.000
15.34579 207.000
15.36573 185.000
15.38568 177.000
15.40563 207.000
15.42557 192.000
15.44552 201.000
15.46547 236.000
15.48541 248.000
15.50536 294.000
15.52531 355.000
15.54526 413.000
15.56520 547.000
15.58515 616.000
15.60510 819.000
15.62504 1078.000
15.64499 1304.000
15.66494 1567.000
15.68488 1853.000
15.70483 2086.000
15.72478 2092.000
15.74472 2091.000
15.76467 1913.000
15.78462 1761.000
15.80457 1399.000
15.82451 1137.000
15.84446 955.000
15.86441 648.000
15.88435 517.000
15.90430 440.000
15.92425 391.000
15.94419 354.000
15.96414 391.000
15.98409 349.000
16.00404 353.000
16.02398 366.000
16.04393 325.000
16.06388 328.000
16.08382 282.000
16.10377 262.000
16.12372 243.000
16.14366 229.000
16.16361 217.000
16.18356 211.000
16.20351 199.000
16.22345 187.000
16.24340 189.000
16.26335 186.000
16.28329 177.000
16.30324 176.000
16.32319 151.000
16.34313 146.000
16.36308 169.000
16.38303 183.000
16.40297 169.000
16.42292 172.000
16.44287 187.000
16.46282 157.000
16.48276 176.000
16.50271 182.000
16.52266 156.000
16.54260 162.000
16.56255 179.000
16.58250 167.000
16.60244 163.000
16.62239 159.000
16.64234 155.000
16.66229 167.000
16.68223 168.000
16.70218 169.000
16.72213 163.000
16.74207 161.000
16.76202 164.000
16.78197 132.000
16.80191 161.000
16.82186 175.000
16.84181 162.000
16.86175 148.000
16.88170 164.000
16.90165 141.000
16.92160 163.000
16.94154 153.000
16.96149 129.000
16.98144 136.000
17.00138 161.000
17.02133 160.000
17.04128 138.000
17.06122 161.000
17.08117 148.000
17.10112 168.000
17.12107 175.000
17.14101 172.000
17.16096 158.000
17.18091 158.000
17.20085 165.000
17.22080 153.000
17.24075 200.000
17.26069 156.000
17.28064 166.000
17.30059 139.000
17.32053 168.000
17.34048 139.000
17.36043 158.000
17.38038 149.000
17.40032 160.000
17.42027 146.000
17.44022 147.000
17.46016 165.000
17.48011 141.000
17.50006 165.000
17.52000 156.000
17.53995 133.000
17.55990 134.000
17.57985 139.000
17.59979 156.000
17.61974 172.000
17.63969 138.000
17.65963 149.000
17.67958 154.000
17.69953 145.000
17.71947 133.000
17.73942 163.000
17.75937 148.000
17.77932 164.000
17.79926 146.000
17.81921 149.000
17.83916 157.000
17.85910 165.000
17.87905 163.000
17.89900 170.000
17.91894 166.000
17.93889 153.000
17.95884 169.000
17.97878 150.000
17.99873 170.000
18.01868 154.000
18.03863 165.000
18.05857 158.000
18.07852 166.000
18.09847 174.000
18.11841 183.000
18.13836 207.000
18.15831 206.000
18.17825 248.000
18.19820 220.000
18.21815 225.000
18.23810 259.000
18.25804 262.000
18.27799 303.000
18.29794 287.000
18.31788 259.000
18.33783 241.000
18.35778 215.000
18.37772 210.000
18.39767 193.000
18.41762 178.000
18.43756 165.000
18.45751 142.000
18.47746 162.000
18.49741 144.000
18.51735 155.000
18.53730 160.000
18.55725 162.000
18.57719 153.000
18.59714 175.000
18.61709 164.000
18.63703 139.000
18.65698 137.000
18.67693 149.000
18.69688 164.000
18.71682 159.000
18.73677 173.000
18.75672 153.000
18.77666 144.000
18.79661 167.000
18.81656 143.000
18.83650 172.000
18.85645 158.000
18.87640 143.000
18.89634 172.000
18.91629 155.000
18.93624 166.000
18.95619 167.000
18.97613 153.000
18.99608 158.000
19.01603 138.000
19.03597 155.000
19.05592 158.000
19.07587 163.000
19.09581 155.000
19.11576 157.000
19.13571 156.000
19.15566 169.000
19.17560 152.000
19.19555 149.000
19.21550 148.000
19.23544 177.000
19.25539 153.000
19.27534 170.000
19.29528 179.000
19.31523 151.000
19.33518 162.000
19.35513 138.000
19.37507 152.000
19.39502 133.000
19.41497 148.000
19.43491 159.000
19.45486 157.000
19.47481 162.000
19.49475 134.000
19.51470 154.000
19.53465 139.000
19.55459 176.000
19.57454 154.000
19.59449 149.000
19.61444 155.000
19.63438 141.000
19.65433 151.000
19.67428 148.000
19.69422 164.000
19.71417 145.000
19.73412 148.000
19.75406 174.000
19.77401 167.000
19.79396 175.000
19.81391 150.000
19.83385 177.000
19.85380 164.000
19.87375 131.000
19.89369 150.000
19.91364 157.000
19.93359 165.000
19.95353 155.000
19.97348 158.000
19.99343 165.000
20.01337 178.000
20.03332 152.000
20.05327 152.000
20.07322 138.000
20.09316 171.000
20.11311 161.000
20.13306 155.000
20.15300 137.000
20.17295 137.000
20.19290 152.000
20.21284 145.000
20.23279 164.000
20.25274 149.000
20.27269 176.000
20.29263 197.000
20.31258 140.000
20.33253 154.000
20.35247 161.000
20.37242 156.000
20.39237 161.000
20.41231 172.000
20.43226 148.000
20.45221 152.000
20.47215 175.000
20.49210 174.000
20.51205 177.000
20.53200 144.000
20.55194 154.000
20.57189 148.000
20.59184 154.000
20.61178 188.000
20.63173 141.000
20.65168 147.000
20.67162 163.000
20.69157 170.000
20.71152 177.000
20.73147 180.000
20.75141 186.000
20.77136 182.000
20.79131 198.000
20.81125 199.000
20.83120 196.000
20.85115 195.000
20.87109 184.000
20.89104 176.000
20.91099 195.000
20.93094 179.000
20.95088 176.000
20.97083 185.000
20.99078 184.000
21.01072 164.000
21.03067 145.000
21.05062 182.000
21.07056 145.000
21.09051 162.000
21.11046 167.000
21.13040 164.000
21.15035 153.000
21.17030 142.000
21.19025 172.000
21.21019 143.000
21.23014 166.000
21.25009 171.000
21.27003 173.000
21.28998 144.000
21.30993 155.000
21.32987 177.000
21.34982 161.000
21.36977 177.000
21.38972 153.000
21.40966 168.000
21.42961 142.000
21.44956 164.000
21.46950 147.000
21.48945 174.000
21.50940 150.000
21.52934 146.000
21.54929 168.000
21.56924 158.000
21.58918 160.000
21.60913 154.000
21.62908 182.000
21.64903 159.000
21.66897 157.000
21.68892 152.000
21.70887 153.000
21.72881 163.000
21.74876 164.000
21.76871 172.000
21.78865 158.000
21.80860 173.000
21.82855 165.000
21.84850 166.000
21.86844 160.000
21.88839 168.000
21.90834 161.000
21.92828 170.000
21.94823 161.000
21.96818 155.000
21.98812 168.000
22.00807 163.000
22.02802 158.000
22.04796 153.000
22.06791 171.000
22.08786 149.000
22.10781 127.000
22.12775 144.000
22.14770 135.000
22.16765 151.000
22.18759 166.000
22.20754 171.000
22.22749 154.000
22.24743 168.000
22.26738 133.000
22.28733 167.000
22.30728 154.000
22.32722 157.000
22.34717 170.000
22.36712 161.000
22.38706 139.000
22.40701 191.000
22.42696 155.000
22.44690 160.000
22.46685 159.000
22.48680 162.000
22.50675 140.000
22.52669 139.000
22.54664 180.000
22.56659 173.000
22.58653 172.000
22.60648 147.000
22.62643 163.000
22.64637 166.000
22.66632 160.000
22.68627 148.000
22.70621 160.000
22.72616 145.000
22.74611 147.000
22.76606 169.000
22.78600 158.000
22.80595 176.000
22.82590 137.000
22.84584 141.000
22.86579 173.000
22.88574 123.000
22.90568 155.000
22.92563 181.000
22.94558 168.000
22.96553 165.000
22.98547 151.000
23.00542 159.000
23.02537 146.000
23.04531 147.000
23.06526 168.000
23.08521 154.000
23.10515 157.000
23.12510 180.000
23.14505 149.000
23.16499 166.000
23.18494 162.000
23.20489 141.000
23.22484 158.000
23.24478 149.000
23.26473 161.000
23.28468 135.000
23.30462 165.000
23.32457 165.000
23.34452 160.000
23.36446 163.000
23.38441 150.000
23.40436 172.000
23.42431 177.000
23.44425 154.000
23.46420 156.000
23.48415 163.000
23.50409 164.000
23.52404 161.000
23.54399 165.000
23.56393 167.000
23.58388 178.000
23.60383 176.000
23.62377 186.000
23.64372 170.000
23.66367 166.000
23.68362 183.000
23.70356 137.000
23.72351 157.000
23.74346 187.000
23.76340 165.000
23.78335 164.000
23.80330 145.000
23.82324 162.000
23.84319 156.000
23.86314 167.000
23.88309 155.000
23.90303 193.000
23.92298 171.000
23.94293 165.000
23.96287 168.000
23.98282 143.000
24.00277 166.000
24.02271 156.000
24.04266 159.000
24.06261 168.000
24.08256 161.000
24.10250 153.000
24.12245 172.000
24.14240 175.000
24.16234 176.000
24.18229 164.000
24.20224 159.000
24.22218 185.000
24.24213 161.000
24.26208 170.000
24.28202 162.000
24.30197 138.000
24.32192 157.000
24.34187 183.000
24.36181 148.000
24.38176 155.000
24.40171 167.000
24.42165 162.000
24.44160 157.000
24.46155 150.000
24.48149 148.000
24.50144 176.000
24.52139 164.000
24.54134 156.000
24.56128 166.000
24.58123 160.000
24.60118 154.000
24.62112 167.000
24.64107 154.000
24.66102 163.000
24.68096 150.000
24.70091 163.000
24.72086 157.000
24.74080 156.000
24.76075 168.000
24.78070 181.000
24.80065 178.000
24.82059 144.000
24.84054 159.000
24.86049 187.000
24.88043 149.000
24.90038 167.000
24.92033 148.000
24.94027 171.000
24.96022 146.000
24.98017 176.000
25.00012 166.000
25.02006 164.000
25.04001 144.000
25.05996 166.000
25.07990 153.000
25.09985 147.000
25.11980 152.000
25.13974 172.000
25.15969 156.000
25.17964 150.000
25.19958 193.000
25.21953 173.000
25.23948 160.000
25.25943 158.000
25.27937 170.000
25.29932 183.000
25.31927 155.000
25.33921 177.000
25.35916 147.000
25.37911 166.000
25.39905 192.000
25.41900 158.000
25.43895 167.000
25.45890 174.000
25.47884 179.000
25.49879 171.000
25.51874 162.000
25.53868 167.000
25.55863 157.000
25.57858 151.000
25.59852 164.000
25.61847 166.000
25.63842 157.000
25.65837 157.000
25.67831 144.000
25.69826 176.000
25.71821 172.000
25.73815 149.000
25.75810 175.000
25.77805 164.000
25.79799 171.000
25.81794 159.000
25.83789 162.000
25.85783 153.000
25.87778 146.000
25.89773 190.000
25.91768 176.000
25.93762 170.000
25.95757 170.000
25.97752 177.000
25.99746 170.000
26.01741 159.000
26.03736 160.000
26.05730 164.000
26.07725 153.000
26.09720 196.000
26.11715 144.000
26.13709 185.000
26.15704 168.000
26.17699 174.000
26.19693 145.000
26.21688 181.000
26.23683 160.000
26.25677 168.000
26.27672 172.000
26.29667 170.000
26.31661 176.000
26.33656 156.000
26.35651 159.000
26.37646 178.000
26.39640 172.000
26.41635 165.000
26.43630 185.000
26.45624 166.000
26.47619 165.000
26.49614 155.000
26.51608 165.000
26.53603 167.000
26.55598 156.000
26.57593 158.000
26.59587 168.000
26.61582 167.000
26.63577 189.000
26.65571 191.000
26.67566 159.000
26.69561 146.000
26.71555 155.000
26.73550 171.000
26.75545 170.000
26.77539 178.000
26.79534 159.000
26.81529 167.000
26.83524 169.000
26.85518 149.000
26.87513 173.000
26.89508 160.000
26.91502 179.000
26.93497 172.000
26.95492 150.000
26.97486 162.000
26.99481 172.000
27.01476 160.000
27.03471 147.000
27.05465 197.000
27.07460 170.000
27.09455 152.000
27.11449 151.000
27.13444 161.000
27.15439 146.000
27.17433 181.000
27.19428 169.000
27.21423 198.000
27.23417 155.000
27.25412 167.000
27.27407 178.000
27.29402 181.000
27.31396 171.000
27.33391 176.000
27.35386 176.000
27.37380 175.000
27.39375 163.000
27.41370 179.000
27.43364 169.000
27.45359 175.000
27.47354 166.000
27.49349 166.000
27.51343 167.000
27.53338 172.000
27.55333 156.000
27.57327 162.000
27.59322 165.000
27.61317 178.000
27.63311 186.000
27.65306 161.000
27.67301 165.000
27.69296 168.000
27.71290 175.000
27.73285 179.000
27.75280 183.000
27.77274 173.000
27.79269 181.000
27.81264 164.000
27.83258 164.000
27.85253 180.000
27.87248 162.000
27.89242 164.000
27.91237 154.000
27.93232 170.000
27.95227 170.000
27.97221 162.000
27.99216 165.000
28.01211 159.000
28.03205 172.000
28.05200 172.000
28.07195 190.000
28.09189 158.000
28.11184 194.000
28.13179 160.000
28.15174 164.000
28.17168 169.000
28.19163 159.000
28.21158 173.000
28.23152 155.000
28.25147 175.000
28.27142 157.000
28.29136 178.000
28.31131 169.000
28.33126 166.000
28.35120 180.000
28.37115 163.000
28.39110 170.000
28.41105 178.000
28.43099 172.000
28.45094 144.000
28.47089 174.000
28.49083 194.000
28.51078 184.000
28.53073 180.000
28.55067 162.000
28.57062 156.000
28.59057 178.000
28.61052 162.000
28.63046 161.000
28.65041 175.000
28.67036 185.000
28.69030 193.000
28.71025 177.000
28.73020 192.000
28.75014 171.000
28.77009 180.000
28.79004 166.000
28.80998 159.000
28.82993 205.000
28.84988 189.000
28.86983 180.000
28.88977 175.000
28.90972 185.000
28.92967 155.000
28.94961 180.000
28.96956 190.000
28.98951 198.000
29.00945 175.000
29.02940 199.000
29.04935 165.000
29.06930 175.000
29.08924 154.000
29.10919 180.000
29.12914 178.000
29.14908 186.000
29.16903 162.000
29.18898 171.000
29.20892 176.000
29.22887 152.000
29.24882 156.000
29.26877 157.000
29.28871 194.000
29.30866 202.000
29.32861 160.000
29.34855 203.000
29.36850 190.000
29.38845 190.000
29.40839 207.000
29.42834 177.000
29.44829 159.000
29.46823 178.000
29.48818 185.000
29.50813 170.000
29.52808 179.000
29.54802 189.000
29.56797 152.000
29.58792 193.000
29.60786 195.000
29.62781 179.000
29.64776 175.000
29.66770 169.000
29.68765 184.000
29.70760 185.000
29.72755 161.000
29.74749 187.000
29.76744 195.000
29.78739 210.000
29.80733 210.000
29.82728 171.000
29.84723 186.000
29.86717 209.000
29.88712 205.000
29.90707 194.000
29.92701 227.000
29.94696 236.000
29.96691 222.000
29.98686 283.000
30.00680 283.000
30.02675 348.000
30.04670 388.000
30.06664 367.000
30.08659 448.000
30.10654 505.000
30.12648 491.000
30.14643 504.000
30.16638 483.000
30.18633 462.000
30.20627 404.000
30.22622 370.000
30.24617 321.000
30.26611 273.000
30.28606 244.000
30.30601 216.000
30.32595 234.000
30.34590 177.000
30.36585 189.000
30.38579 204.000
30.40574 179.000
30.42569 203.000
30.44564 192.000
30.46558 185.000
30.48553 169.000
30.50548 174.000
30.52542 166.000
30.54537 150.000
30.56532 178.000
30.58526 178.000
30.60521 167.000
30.62516 147.000
30.64511 188.000
30.66505 158.000
30.68500 191.000
30.70495 154.000
30.72489 214.000
30.74484 157.000
30.76479 165.000
30.78473 178.000
30.80468 195.000
30.82463 185.000
30.84458 159.000
30.86452 192.000
30.88447 159.000
30.90442 189.000
30.92436 194.000
30.94431 183.000
30.96426 170.000
30.98420 200.000
31.00415 196.000
31.02410 165.000
31.04404 188.000
31.06399 184.000
31.08394 181.000
31.10389 165.000
31.12383 187.000
31.14378 196.000
31.16373 183.000
31.18367 185.000
31.20362 174.000
31.22357 173.000
31.24351 215.000
31.26346 160.000
31.28341 169.000
31.30336 196.000
31.32330 193.000
31.34325 189.000
31.36320 171.000
31.38314 157.000
31.40309 184.000
31.42304 193.000
31.44298 183.000
31.46293 213.000
31.48288 196.000
31.50282 182.000
31.52277 198.000
31.54272 170.000
31.56267 201.000
31.58261 202.000
31.60256 226.000
31.62251 195.000
31.64245 229.000
31.66240 208.000
31.68235 256.000
31.70229 258.000
31.72224 261.000
31.74219 281.000
31.76214 341.000
31.78208 340.000
31.80203 354.000
31.82198 366.000
31.84192 377.000
31.86187 375.000
31.88182 390.000
31.90176 388.000
31.92171 359.000
31.94166 332.000
31.96160 344.000
31.98155 301.000
32.00150 301.000
32.02145 264.000
32.04139 250.000
32.06134 241.000
32.08129 220.000
32.10123 211.000
32.12118 216.000
32.14113 192.000
32.16107 204.000
32.18102 193.000
32.20097 186.000
32.22092 189.000
32.24086 190.000
32.26081 230.000
32.28076 217.000
32.30070 226.000
32.32065 239.000
32.34060 275.000
32.36054 282.000
32.38049 256.000
32.40044 288.000
32.42039 310.000
32.44033 302.000
32.46028 293.000
32.48023 280.000
32.50017 252.000
32.52012 201.000
32.54007 216.000
32.56001 231.000
32.57996 208.000
32.59991 182.000
32.61985 193.000
32.63980 194.000
32.65975 177.000
32.67970 199.000
32.69964 200.000
32.71959 182.000
32.73954 180.000
32.75948 186.000
32.77943 160.000
32.79938 188.000
32.81932 201.000
32.83927 171.000
32.85922 190.000
32.87917 185.000
32.89911 157.000
32.91906 179.000
32.93901 193.000
32.95895 174.000
32.97890 204.000
32.99885 177.000
33.01879 206.000
33.03874 179.000
33.05869 172.000
33.07863 152.000
33.09858 190.000
33.11853 169.000
33.13848 188.000
33.15842 188.000
33.17837 196.000
33.19832 180.000
33.21826 167.000
33.23821 185.000
33.25816 207.000
33.27810 174.000
33.29805 191.000
33.31800 187.000
33.33795 169.000
33.35789 183.000
33.37784 182.000
33.39779 156.000
33.41773 168.000
33.43768 174.000
33.45763 161.000
33.47757 198.000
33.49752 190.000
33.51747 179.000
33.53741 181.000
33.55736 188.000
33.57731 185.000
33.59726 183.000
33.61720 168.000
33.63715 175.000
33.65710 197.000
33.67704 202.000
33.69699 155.000
33.71694 196.000
33.73688 183.000
33.75683 173.000
33.77678 168.000
33.79673 199.000
33.81667 184.000
33.83662 188.000
33.85657 183.000
33.87651 190.000
33.89646 166.000
33.91641 170.000
33.93635 199.000
33.95630 201.000
33.97625 216.000
33.99620 186.000
34.01614 172.000
34.03609 207.000
34.05604 202.000
34.07598 208.000
34.09593 205.000
34.11588 193.000
34.13582 188.000
34.15577 184.000
34.17572 202.000
34.19566 180.000
34.21561 202.000
34.23556 176.000
34.25551 202.000
34.27545 194.000
34.29540 213.000
34.31535 207.000
34.33529 190.000
34.35524 229.000
34.37519 210.000
34.39513 206.000
34.41508 231.000
34.43503 232.000
34.45498 197.000
34.47492 216.000
34.49487 180.000
34.51482 210.000
34.53476 252.000
34.55471 200.000
34.57466 243.000
34.59460 205.000
34.61455 207.000
34.63450 208.000
34.65444 205.000
34.67439 202.000
34.69434 202.000
34.71429 198.000
34.73423 224.000
34.75418 210.000
34.77413 187.000
34.79407 200.000
34.81402 207.000
34.83397 208.000
34.85391 211.000
34.87386 197.000
34.89381 177.000
34.91376 204.000
34.93370 202.000
34.95365 197.000
34.97360 219.000
34.99354 209.000
35.01349 211.000
35.03344 219.000
35.05338 219.000
35.07333 236.000
35.09328 219.000
35.11322 265.000
35.13317 234.000
35.15312 296.000
35.17307 313.000
35.19301 340.000
35.21296 421.000
35.23291 450.000
35.25285 559.000
35.27280 675.000
35.29275 896.000
35.31269 973.000
35.33264 1140.000
35.35259 1247.000
35.37254 1515.000
35.39248 1624.000
35.41243 1919.000
35.43238 2046.000
35.45232 2249.000
35.47227 2283.000
35.49222 2297.000
35.51216 2274.000
35.53211 2159.000
35.55206 2027.000
35.57201 1727.000
35.59195 1566.000
35.61190 1298.000
35.63185 1103.000
35.65179 903.000
35.67174 698.000
35.69169 545.000
35.71163 451.000
35.73158 395.000
35.75153 336.000
35.77147 275.000
35.79142 283.000
35.81137 215.000
35.83132 262.000
35.85126 218.000
35.87121 222.000
35.89116 209.000
35.91110 217.000
35.93105 232.000
35.95100 233.000
35.97094 228.000
35.99089 182.000
36.01084 209.000
36.03079 186.000
36.05073 186.000
36.07068 218.000
36.09063 211.000
36.11057 227.000
36.13052 196.000
36.15047 228.000
36.17041 215.000
36.19036 200.000
36.21031 237.000
36.23025 185.000
36.25020 233.000
36.27015 192.000
36.29010 221.000
36.31004 224.000
36.32999 223.000
36.34994 188.000
36.36988 217.000
36.38983 230.000
36.40978 196.000
36.42972 218.000
36.44967 214.000
36.46962 193.000
36.48957 237.000
36.50951 218.000
36.52946 187.000
36.54941 209.000
36.56935 214.000
36.58930 203.000
36.60925 189.000
36.62919 190.000
36.64914 196.000
36.66909 213.000
36.68903 210.000
36.70898 233.000
36.72893 252.000
36.74888 216.000
36.76882 230.000
36.78877 231.000
36.80872 228.000
36.82866 212.000
36.84861 207.000
36.86856 219.000
36.88850 205.000
36.90845 254.000
36.92840 220.000
36.94835 239.000
36.96829 237.000
36.98824 249.000
37.00819 245.000
37.02813 261.000
37.04808 243.000
37.06803 266.000
37.08797 290.000
37.10792 245.000
37.12787 296.000
37.14781 289.000
37.16776 285.000
37.18771 274.000
37.20766 244.000
37.22760 260.000
37.24755 255.000
37.26750 242.000
37.28744 236.000
37.30739 222.000
37.32734 202.000
37.34728 193.000
37.36723 198.000
37.38718 194.000
37.40713 180.000
37.42707 211.000
37.44702 184.000
37.46697 208.000
37.48691 176.000
37.50686 183.000
37.52681 169.000
37.54675 166.000
37.56670 188.000
37.58665 182.000
37.60660 182.000
37.62654 205.000
37.64649 204.000
37.66644 169.000
37.68638 190.000
37.70633 198.000
37.72628 188.000
37.74622 176.000
37.76617 179.000
37.78612 180.000
37.80606 191.000
37.82601 186.000
37.84596 225.000
37.86591 172.000
37.88585 213.000
37.90580 180.000
37.92575 171.000
37.94569 193.000
37.96564 193.000
37.98559 177.000
38.00553 194.000
38.02548 187.000
38.04543 227.000
38.06538 228.000
38.08532 202.000
38.10527 202.000
38.12522 183.000
38.14516 164.000
38.16511 190.000
38.18506 195.000
38.20500 204.000
38.22495 226.000
38.24490 222.000
38.26484 240.000
38.28479 240.000
38.30474 233.000
38.32469 222.000
38.34463 236.000
38.36458 218.000
38.38453 292.000
38.40447 305.000
38.42442 352.000
38.44437 379.000
38.46431 446.000
38.48426 546.000
38.50421 570.000
38.52416 743.000
38.54410 867.000
38.56405 964.000
38.58400 1026.000
38.60394 1031.000
38.62389 1042.000
38.64384 1049.000
38.66378 989.000
38.68373 1004.000
38.70368 871.000
38.72362 859.000
38.74357 751.000
38.76352 698.000
38.78347 698.000
38.80341 678.000
38.82336 653.000
38.84331 580.000
38.86325 591.000
38.88320 699.000
38.90315 672.000
38.92309 728.000
38.94304 764.000
38.96299 785.000
38.98294 845.000
39.00288 892.000
39.02283 935.000
39.04278 931.000
39.06272 937.000
39.08267 888.000
39.10262 886.000
39.12256 825.000
39.14251 752.000
39.16246 744.000
39.18241 594.000
39.20235 524.000
39.22230 488.000
39.24225 444.000
39.26219 389.000
39.28214 374.000
39.30209 297.000
39.32203 293.000
39.34198 236.000
39.36193 279.000
39.38187 256.000
39.40182 219.000
39.42177 203.000
39.44172 209.000
39.46166 191.000
39.48161 218.000
39.50156 193.000
39.52150 198.000
39.54145 213.000
39.56140 220.000
39.58134 206.000
39.60129 210.000
39.62124 189.000
39.64119 226.000
39.66113 193.000
39.68108 204.000
39.70103 172.000
39.72097 183.000
39.74092 202.000
39.76087 203.000
39.78081 186.000
39.80076 192.000
39.82071 187.000
39.84065 160.000
39.86060 197.000
39.88055 178.000
39.90050 176.000
39.92044 196.000
39.94039 202.000
39.96034 187.000
39.98028 203.000
40.00023 203.000
40.02018 178.000
40.04012 181.000
40.06007 177.000
40.08002 183.000
40.09997 182.000
40.11991 180.000
40.13986 169.000
40.15981 193.000
40.17975 201.000
40.19970 182.000
40.21965 175.000
40.23959 183.000
40.25954 193.000
40.27949 192.000
40.29943 207.000
40.31938 173.000
40.33933 170.000
40.35928 182.000
40.37922 179.000
40.39917 163.000
40.41912 167.000
40.43906 181.000
40.45901 186.000
40.47896 171.000
40.49890 185.000
40.51885 165.000
40.53880 190.000
40.55875 194.000
40.57869 178.000
40.59864 186.000
40.61859 209.000
40.63853 178.000
40.65848 194.000
40.67843 174.000
40.69837 174.000
40.71832 177.000
40.73827 165.000
40.75822 165.000
40.77816 208.000
40.79811 192.000
40.81806 173.000
40.83800 223.000
40.85795 170.000
40.87790 214.000
40.89784 164.000
40.91779 179.000
40.93774 181.000
40.95768 197.000
40.97763 173.000
40.99758 195.000
41.01753 168.000
41.03747 179.000
41.05742 197.000
41.07737 187.000
41.09731 209.000
41.11726 179.000
41.13721 190.000
41.15715 176.000
41.17710 194.000
41.19705 187.000
41.21700 178.000
41.23694 197.000
41.25689 193.000
41.27684 206.000
41.29678 204.000
41.31673 218.000
41.33668 222.000
41.35662 236.000
41.37657 259.000
41.39652 306.000
41.41646 308.000
41.43641 301.000
41.45636 323.000
41.47631 303.000
41.49625 326.000
41.51620 326.000
41.53615 330.000
41.55609 333.000
41.57604 288.000
41.59599 291.000
41.61593 278.000
41.63588 254.000
41.65583 220.000
41.67578 223.000
41.69572 231.000
41.71567 217.000
41.73562 223.000
41.75556 209.000
41.77551 207.000
41.79546 201.000
41.81540 193.000
41.83535 188.000
41.85530 203.000
41.87524 171.000
41.89519 204.000
41.91514 181.000
41.93509 185.000
41.95503 186.000
41.97498 187.000
41.99493 213.000
42.01487 189.000
42.03482 188.000
42.05477 182.000
42.07471 179.000
42.09466 159.000
42.11461 180.000
42.13456 176.000
42.15450 190.000
42.17445 197.000
42.19440 218.000
42.21434 177.000
42.23429 181.000
42.25424 186.000
42.27418 199.000
42.29413 187.000
42.31408 174.000
42.33403 190.000
42.35397 225.000
42.37392 193.000
42.39387 153.000
42.41381 177.000
42.43376 186.000
42.45371 188.000
42.47365 190.000
42.49360 180.000
42.51355 189.000
42.53349 192.000
42.55344 165.000
42.57339 189.000
42.59334 167.000
42.61328 186.000
42.63323 196.000
42.65318 211.000
42.67312 180.000
42.69307 197.000
42.71302 209.000
42.73296 189.000
42.75291 222.000
42.77286 223.000
42.79281 174.000
42.81275 222.000
42.83270 226.000
42.85265 234.000
42.87259 257.000
42.89254 236.000
42.91249 243.000
42.93243 263.000
42.95238 286.000
42.97233 344.000
42.99227 342.000
43.01222 400.000
43.03217 385.000
43.05212 458.000
43.07206 517.000
43.09201 573.000
43.11196 608.000
43.13190 622.000
43.15185 642.000
43.17180 684.000
43.19174 672.000
43.21169 638.000
43.23164 617.000
43.25159 623.000
43.27153 574.000
43.29148 520.000
43.31143 465.000
43.33137 443.000
43.35132 396.000
43.37127 381.000
43.39121 293.000
43.41116 261.000
43.43111 291.000
43.45105 267.000
43.47100 239.000
43.49095 222.000
43.51090 249.000
43.53084 233.000
43.55079 225.000
43.57074 171.000
43.59068 206.000
43.61063 189.000
43.63058 176.000
43.65052 193.000
43.67047 187.000
43.69042 193.000
43.71037 177.000
43.73031 183.000
43.75026 213.000
43.77021 188.000
43.79015 184.000
43.81010 168.000
43.83005 188.000
43.84999 196.000
43.86994 178.000
43.88989 190.000
43.90984 180.000
43.92978 177.000
43.94973 175.000
43.96968 183.000
43.98962 193.000
44.00957 167.000
44.02952 185.000
44.04946 180.000
44.06941 197.000
44.08936 200.000
44.10930 174.000
44.12925 160.000
44.14920 194.000
44.16915 197.000
44.18909 190.000
44.20904 177.000
44.22899 168.000
44.24893 168.000
44.26888 195.000
44.28883 194.000
44.30877 178.000
44.32872 191.000
44.34867 197.000
44.36862 164.000
44.38856 172.000
44.40851 185.000
44.42846 188.000
44.44840 163.000
44.46835 174.000
44.48830 174.000
44.50824 169.000
44.52819 220.000
44.54814 186.000
44.56808 193.000
44.58803 194.000
44.60798 177.000
44.62793 190.000
44.64787 189.000
44.66782 210.000
44.68777 180.000
44.70771 191.000
44.72766 182.000
44.74761 162.000
44.76755 212.000
44.78750 187.000
44.80745 188.000
44.82740 193.000
44.84734 211.000
44.86729 196.000
44.88724 179.000
44.90718 188.000
44.92713 196.000
44.94708 182.000
44.96702 187.000
44.98697 162.000
45.00692 193.000
45.02686 160.000
45.04681 186.000
45.06676 196.000
45.08671 167.000
45.10665 179.000
45.12660 177.000
45.14655 179.000
45.16649 196.000
45.18644 186.000
45.20639 196.000
45.22633 164.000
45.24628 212.000
45.26623 198.000
45.28618 180.000
45.30612 195.000
45.32607 199.000
45.34602 166.000
45.36596 176.000
45.38591 186.000
45.40586 184.000
45.42580 175.000
45.44575 186.000
45.46570 169.000
45.48565 175.000
45.50559 159.000
45.52554 162.000
45.54549 168.000
45.56543 184.000
45.58538 190.000
45.60533 192.000
45.62527 191.000
45.64522 159.000
45.66517 172.000
45.68511 191.000
45.70506 176.000
45.72501 183.000
45.74496 149.000
45.76490 162.000
45.78485 163.000
45.80480 206.000
45.82474 178.000
45.84469 170.000
45.86464 162.000
45.88458 198.000
45.90453 171.000
45.92448 194.000
45.94443 168.000
45.96437 209.000
45.98432 185.000
46.00427 185.000
46.02421 190.000
46.04416 184.000
46.06411 201.000
46.08405 208.000
46.10400 184.000
46.12395 184.000
46.14389 208.000
46.16384 219.000
46.18379 233.000
46.20374 207.000
46.22368 188.000
46.24363 204.000
46.26358 199.000
46.28352 225.000
46.30347 176.000
46.32342 200.000
46.34336 220.000
46.36331 169.000
46.38326 193.000
46.40321 187.000
46.42315 179.000
46.44310 197.000
46.46305 187.000
46.48299 192.000
46.50294 194.000
46.52289 158.000
46.54283 186.000
46.56278 180.000
46.58273 188.000
46.60267 168.000
46.62262 171.000
46.64257 174.000
46.66252 171.000
46.68246 192.000
46.70241 164.000
46.72236 181.000
46.74230 177.000
46.76225 176.000
46.78220 191.000
46.80214 188.000
46.82209 196.000
46.84204 189.000
46.86199 158.000
46.88193 210.000
46.90188 196.000
46.92183 185.000
46.94177 188.000
46.96172 178.000
46.98167 199.000
47.00161 195.000
47.02156 197.000
47.04151 195.000
47.06146 172.000
47.08140 185.000
47.10135 188.000
47.12130 176.000
47.14124 185.000
47.16119 157.000
47.18114 194.000
47.20108 207.000
47.22103 149.000
47.24098 178.000
47.26092 176.000
47.28087 182.000
47.30082 164.000
47.32077 198.000
47.34071 187.000
47.36066 188.000
47.38061 216.000
47.40055 181.000
47.42050 200.000
47.44045 184.000
47.46039 198.000
47.48034 204.000
47.50029 170.000
47.52024 181.000
47.54018 175.000
47.56013 191.000
47.58008 210.000
47.60002 185.000
47.61997 197.000
47.63992 164.000
47.65986 200.000
47.67981 180.000
47.69976 200.000
47.71970 180.000
47.73965 173.000
47.75960 214.000
47.77955 193.000
47.79949 176.000
47.81944 199.000
47.83939 176.000
47.85933 188.000
47.87928 201.000
47.89923 180.000
47.91917 195.000
47.93912 183.000
47.95907 165.000
47.97902 181.000
47.99896 191.000
48.01891 182.000
48.03886 197.000
48.05880 186.000
48.07875 221.000
48.09870 213.000
48.11864 238.000
48.13859 220.000
48.15854 236.000
48.17848 253.000
48.19843 224.000
48.21838 298.000
48.23833 287.000
48.25827 299.000
48.27822 307.000
48.29817 387.000
48.31811 457.000
48.33806 509.000
48.35801 549.000
48.37795 600.000
48.39790 666.000
48.41785 798.000
48.43780 775.000
48.45774 834.000
48.47769 779.000
48.49764 723.000
48.51758 781.000
48.53753 789.000
48.55748 721.000
48.57742 766.000
48.59737 716.000
48.61732 694.000
48.63726 670.000
48.65721 658.000
48.67716 623.000
48.69711 580.000
48.71705 581.000
48.73700 469.000
48.75695 494.000
48.77689 411.000
48.79684 395.000
48.81679 407.000
48.83673 387.000
48.85668 360.000
48.87663 315.000
48.89658 300.000
48.91652 252.000
48.93647 261.000
48.95642 206.000
48.97636 209.000
48.99631 206.000
49.01626 226.000
49.03620 215.000
49.05615 209.000
49.07610 227.000
49.09605 164.000
49.11599 189.000
49.13594 214.000
49.15589 197.000
49.17583 208.000
49.19578 195.000
49.21573 185.000
49.23567 166.000
49.25562 203.000
49.27557 193.000
49.29551 176.000
49.31546 181.000
49.33541 189.000
49.35536 191.000
49.37530 178.000
49.39525 179.000
49.41520 185.000
49.43514 156.000
49.45509 179.000
49.47504 187.000
49.49498 187.000
49.51493 177.000
49.53488 171.000
49.55483 193.000
49.57477 187.000
49.59472 183.000
49.61467 184.000
49.63461 180.000
49.65456 174.000
49.67451 192.000
49.69445 181.000
49.71440 167.000
49.73435 189.000
49.75429 180.000
49.77424 194.000
49.79419 178.000
49.81414 167.000
49.83408 193.000
49.85403 173.000
49.87398 173.000
49.89392 183.000
49.91387 174.000
49.93382 170.000
49.95376 172.000
49.97371 176.000
49.99366 184.000
50.01361 174.000
50.03355 177.000
50.05350 188.000
50.07345 184.000
50.09339 177.000
50.11334 181.000
50.13329 180.000
50.15323 169.000
50.17318 194.000
50.19313 161.000
50.21307 187.000
50.23302 204.000
50.25297 161.000
50.27292 186.000
50.29286 204.000
50.31281 182.000
50.33276 185.000
50.35270 206.000
50.37265 157.000
50.39260 168.000
50.41254 192.000
50.43249 207.000
50.45244 192.000
50.47239 198.000
50.49233 163.000
50.51228 183.000
50.53223 182.000
50.55217 180.000
50.57212 169.000
50.59207 167.000
50.61201 189.000
50.63196 193.000
50.65191 186.000
50.67186 194.000
50.69180 165.000
50.71175 163.000
50.73170 162.000
50.75164 175.000
50.77159 177.000
50.79154 193.000
50.81148 183.000
50.83143 182.000
50.85138 189.000
50.87132 183.000
50.89127 154.000
50.91122 196.000
50.93117 196.000
50.95111 171.000
50.97106 199.000
50.99101 171.000
51.01095 163.000
51.03090 206.000
51.05085 199.000
51.07079 183.000
51.09074 155.000
51.11069 170.000
51.13064 210.000
51.15058 176.000
51.17053 197.000
51.19048 199.000
51.21042 195.000
51.23037 195.000
51.25032 204.000
51.27026 209.000
51.29021 185.000
51.31016 201.000
51.33010 181.000
51.35005 194.000
51.37000 194.000
51.38995 200.000
51.40989 187.000
51.42984 170.000
51.44979 179.000
51.46973 166.000
51.48968 184.000
51.50963 179.000
51.52957 146.000
51.54952 180.000
51.56947 181.000
51.58942 171.000
51.60936 190.000
51.62931 188.000
51.64926 216.000
51.66920 194.000
51.68915 191.000
51.70910 176.000
51.72904 156.000
51.74899 173.000
51.76894 162.000
51.78888 179.000
51.80883 174.000
51.82878 173.000
51.84873 190.000
51.86867 163.000
51.88862 178.000
51.90857 175.000
51.92851 174.000
51.94846 177.000
51.96841 179.000
51.98835 177.000
52.00830 177.000
52.02825 171.000
52.04820 192.000
52.06814 210.000
52.08809 192.000
52.10804 197.000
52.12798 182.000
52.14793 166.000
52.16788 192.000
52.18782 182.000
52.20777 191.000
52.22772 183.000
52.24767 178.000
52.26761 182.000
52.28756 189.000
52.30751 197.000
52.32745 194.000
52.34740 184.000
52.36735 190.000
52.38729 173.000
52.40724 184.000
52.42719 170.000
52.44713 188.000
52.46708 192.000
52.48703 177.000
52.50698 172.000
52.52692 168.000
52.54687 195.000
52.56682 224.000
52.58676 178.000
52.60671 185.000
52.62666 211.000
52.64660 203.000
52.66655 194.000
52.68650 200.000
52.70645 187.000
52.72639 200.000
52.74634 209.000
52.76629 182.000
52.78623 188.000
52.80618 209.000
52.82613 214.000
52.84607 183.000
52.86602 206.000
52.88597 190.000
52.90591 189.000
52.92586 215.000
52.94581 199.000
52.96576 194.000
52.98570 172.000
53.00565 184.000
53.02560 204.000
53.04554 194.000
53.06549 207.000
53.08544 193.000
53.10538 210.000
53.12533 176.000
53.14528 199.000
53.16523 209.000
53.18517 216.000
53.20512 238.000
53.22507 244.000
53.24501 199.000
53.26496 247.000
53.28491 230.000
53.30485 248.000
53.32480 235.000
53.34475 231.000
53.36469 242.000
53.38464 271.000
53.40459 256.000
53.42454 244.000
53.44448 294.000
53.46443 271.000
53.48438 255.000
53.50432 277.000
53.52427 268.000
53.54422 296.000
53.56416 285.000
53.58411 296.000
53.60406 274.000
53.62401 301.000
53.64395 274.000
53.66390 288.000
53.68385 233.000
53.70379 271.000
53.72374 274.000
53.74369 259.000
53.76363 248.000
53.78358 225.000
53.80353 228.000
53.82348 217.000
53.84342 211.000
53.86337 188.000
53.88332 213.000
53.90326 184.000
53.92321 190.000
53.94316 195.000
53.96310 175.000
53.98305 183.000
54.00300 202.000
54.02294 172.000
54.04289 219.000
54.06284 153.000
54.08279 176.000
54.10273 199.000
54.12268 174.000
54.14263 180.000
54.16257 194.000
54.18252 175.000
54.20247 179.000
54.22241 186.000
54.24236 145.000
54.26231 173.000
54.28226 182.000
54.30220 173.000
54.32215 190.000
54.34210 187.000
54.36204 147.000
54.38199 203.000
54.40194 184.000
54.42188 166.000
54.44183 179.000
54.46178 176.000
54.48172 173.000
54.50167 200.000
54.52162 175.000
54.54157 189.000
54.56151 159.000
54.58146 184.000
54.60141 191.000
54.62135 199.000
54.64130 164.000
54.66125 169.000
54.68119 181.000
54.70114 172.000
54.72109 180.000
54.74104 173.000
54.76098 200.000
54.78093 184.000
54.80088 202.000
54.82082 201.000
54.84077 203.000
54.86072 188.000
54.88066 206.000
54.90061 176.000
54.92056 183.000
54.94050 211.000
54.96045 207.000
54.98040 178.000
55.00035 187.000
55.02029 176.000
55.04024 196.000
55.06019 186.000
55.08013 182.000
55.10008 184.000
55.12003 180.000
55.13997 165.000
55.15992 165.000
55.17987 158.000
55.19982 199.000
55.21976 178.000
55.23971 173.000
55.25966 182.000
55.27960 193.000
55.29955 172.000
55.31950 202.000
55.33944 177.000
55.35939 186.000
55.37934 176.000
55.39929 226.000
55.41923 197.000
55.43918 187.000
55.45913 178.000
55.47907 172.000
55.49902 189.000
55.51897 186.000
55.53891 180.000
55.55886 201.000
55.57881 177.000
55.59875 196.000
55.61870 196.000
55.63865 166.000
55.65860 191.000
55.67854 209.000
55.69849 201.000
55.71844 173.000
55.73838 185.000
55.75833 163.000
55.77828 196.000
55.79822 191.000
55.81817 157.000
55.83812 191.000
55.85807 171.000
55.87801 199.000
55.89796 164.000
55.91791 195.000
55.93785 184.000
55.95780 197.000
55.97775 169.000
55.99769 181.000
56.01764 180.000
56.03759 195.000
56.05753 170.000
56.07748 204.000
56.09743 152.000
56.11738 166.000
56.13732 191.000
56.15727 203.000
56.17722 207.000
56.19716 179.000
56.21711 176.000
56.23706 181.000
56.25700 178.000
56.27695 160.000
56.29690 179.000
56.31685 180.000
56.33679 208.000
56.35674 178.000
56.37669 189.000
56.39663 193.000
56.41658 190.000
56.43653 188.000
56.45647 181.000
56.47642 190.000
56.49637 186.000
56.51631 186.000
56.53626 194.000
56.55621 194.000
56.57616 214.000
56.59610 192.000
56.61605 194.000
56.63600 185.000
56.65594 215.000
56.67589 213.000
56.69584 178.000
56.71578 194.000
56.73573 230.000
56.75568 177.000
56.77563 193.000
56.79557 194.000
56.81552 221.000
56.83547 202.000
56.85541 226.000
56.87536 232.000
56.89531 265.000
56.91525 251.000
56.93520 261.000
56.95515 280.000
56.97510 305.000
56.99504 331.000
57.01499 298.000
57.03494 344.000
57.05488 392.000
57.07483 354.000
57.09478 388.000
57.11472 414.000
57.13467 412.000
57.15462 447.000
57.17456 451.000
57.19451 456.000
57.21446 442.000
57.23441 433.000
57.25435 422.000
57.27430 412.000
57.29425 387.000
57.31419 382.000
57.33414 329.000
57.35409 324.000
57.37403 287.000
57.39398 317.000
57.41393 281.000
57.43388 267.000
57.45382 246.000
57.47377 223.000
57.49372 236.000
57.51366 206.000
57.53361 209.000
57.55356 193.000
57.57350 211.000
57.59345 194.000
57.61340 194.000
57.63334 185.000
57.65329 195.000
57.67324 194.000
57.69319 170.000
57.71313 173.000
57.73308 214.000
57.75303 191.000
57.77297 182.000
57.79292 190.000
57.81287 178.000
57.83281 185.000
57.85276 189.000
57.87271 211.000
57.89266 182.000
57.91260 215.000
57.93255 209.000
57.95250 221.000
57.97244 207.000
57.99239 225.000
58.01234 210.000
58.03228 251.000
58.05223 253.000
58.07218 256.000
58.09212 272.000
58.11207 297.000
58.13202 334.000
58.15197 292.000
58.17191 300.000
58.19186 277.000
58.21181 319.000
58.23175 281.000
58.25170 268.000
58.27165 267.000
58.29159 276.000
58.31154 227.000
58.33149 256.000
58.35144 224.000
58.37138 198.000
58.39133 218.000
58.41128 212.000
58.43122 197.000
58.45117 207.000
58.47112 184.000
58.49106 180.000
58.51101 197.000
58.53096 193.000
58.55090 185.000
58.57085 194.000
58.59080 191.000
58.61075 173.000
58.63069 187.000
58.65064 169.000
58.67059 174.000
58.69053 215.000
58.71048 199.000
58.73043 174.000
58.75037 182.000
58.77032 170.000
58.79027 178.000
58.81022 179.000
58.83016 169.000
58.85011 201.000
58.87006 199.000
58.89000 159.000
58.90995 171.000
58.92990 183.000
58.94984 188.000
58.96979 185.000
58.98974 195.000
59.00969 166.000
59.02963 167.000
59.04958 178.000
59.06953 186.000
59.08947 178.000
59.10942 215.000
59.12937 167.000
59.14931 202.000
59.16926 181.000
59.18921 174.000
59.20915 188.000
59.22910 206.000
59.24905 165.000
59.26900 174.000
59.28894 201.000
59.30889 178.000
59.32884 204.000
59.34878 164.000
59.36873 200.000
59.38868 176.000
59.40862 183.000
59.42857 180.000
59.44852 194.000
59.46847 189.000
59.48841 190.000
59.50836 162.000
59.52831 192.000
59.54825 182.000
59.56820 188.000
59.58815 204.000
59.60809 187.000
59.62804 159.000
59.64799 199.000
59.66793 165.000
59.68788 197.000
59.70783 184.000
59.72778 186.000
59.74772 201.000
59.76767 167.000
59.78762 194.000
59.80756 191.000
59.82751 193.000
59.84746 174.000
59.86740 196.000
59.88735 196.000
59.90730 196.000
59.92725 217.000
59.94719 176.000
59.96714 184.000
59.98709 210.000
60.00703 179.000
60.02698 179.000
60.04693 184.000
60.06687 202.000
60.08682 176.000
60.10677 182.000
60.12671 213.000
60.14666 192.000
60.16661 169.000
60.18656 183.000
60.20650 166.000
60.22645 216.000
60.24640 185.000
60.26634 171.000
60.28629 201.000
60.30624 198.000
60.32618 171.000
60.34613 178.000
60.36608 192.000
60.38603 173.000
60.40597 204.000
60.42592 193.000
60.44587 201.000
60.46581 180.000
60.48576 190.000
60.50571 192.000
60.52565 180.000
60.54560 189.000
60.56555 193.000
60.58550 174.000
60.60544 192.000
60.62539 196.000
60.64534 198.000
60.66528 207.000
60.68523 169.000
60.70518 196.000
60.72512 179.000
60.74507 186.000
60.76502 185.000
60.78496 223.000
60.80491 184.000
60.82486 167.000
60.84481 208.000
60.86475 172.000
60.88470 190.000
60.90465 207.000
60.92459 198.000
60.94454 187.000
60.96449 189.000
60.98443 203.000
61.00438 166.000
61.02433 185.000
61.04428 163.000
61.06422 202.000
61.08417 226.000
61.10412 232.000
61.12406 202.000
61.14401 202.000
61.16396 209.000
61.18390 206.000
61.20385 205.000
61.22380 211.000
61.24374 204.000
61.26369 220.000
61.28364 212.000
61.30359 261.000
61.32353 247.000
61.34348 290.000
61.36343 274.000
61.38337 315.000
61.40332 358.000
61.42327 382.000
61.44321 388.000
61.46316 366.000
61.48311 388.000
61.50306 372.000
61.52300 405.000
61.54295 428.000
61.56290 458.000
61.58284 424.000
61.60279 470.000
61.62274 445.000
61.64268 497.000
61.66263 462.000
61.68258 454.000
61.70252 466.000
61.72247 449.000
61.74242 449.000
61.76237 399.000
61.78231 426.000
61.80226 432.000
61.82221 401.000
61.84215 410.000
61.86210 363.000
61.88205 346.000
61.90199 341.000
61.92194 333.000
61.94189 333.000
61.96184 300.000
61.98178 320.000
62.00173 257.000
62.02168 253.000
62.04162 258.000
62.06157 227.000
62.08152 248.000
62.10146 232.000
62.12141 237.000
62.14136 272.000
62.16131 221.000
62.18125 236.000
62.20120 230.000
62.22115 237.000
62.24109 218.000
62.26104 214.000
62.28099 259.000
62.30093 232.000
62.32088 232.000
62.34083 238.000
62.36077 257.000
62.38072 252.000
62.40067 244.000
62.42062 271.000
62.44056 273.000
62.46051 247.000
62.48046 257.000
62.50040 298.000
62.52035 324.000
62.54030 323.000
62.56024 300.000
62.58019 350.000
62.60014 355.000
62.62009 323.000
62.64003 377.000
62.65998 414.000
62.67993 427.000
62.69987 458.000
62.71982 440.000
62.73977 511.000
62.75971 504.000
62.77966 518.000
62.79961 481.000
62.81955 520.000
62.83950 468.000
62.85945 468.000
62.87940 460.000
62.89934 449.000
62.91929 446.000
62.93924 431.000
62.95918 397.000
62.97913 362.000
62.99908 338.000
63.01902 329.000
63.03897 324.000
63.05892 303.000
63.07887 283.000
63.09881 256.000
63.11876 269.000
63.13871 293.000
63.15865 248.000
63.17860 228.000
63.19855 221.000
63.21849 212.000
63.23844 206.000
63.25839 203.000
63.27833 233.000
63.29828 232.000
63.31823 232.000
63.33818 206.000
63.35812 207.000
63.37807 221.000
63.39802 219.000
63.41796 203.000
63.43791 216.000
63.45786 214.000
63.47780 228.000
63.49775 235.000
63.51770 229.000
63.53765 272.000
63.55759 257.000
63.57754 264.000
63.59749 294.000
63.61743 289.000
63.63738 312.000
63.65733 308.000
63.67727 325.000
63.69722 331.000
63.71717 302.000
63.73712 351.000
63.75706 313.000
63.77701 302.000
63.79696 335.000
63.81690 331.000
63.83685 339.000
63.85680 335.000
63.87674 318.000
63.89669 352.000
63.91664 304.000
63.93658 311.000
63.95653 355.000
63.97648 301.000
63.99643 301.000
64.01637 282.000
64.03632 273.000
64.05627 273.000
64.07621 243.000
64.09616 244.000
64.11611 265.000
64.13605 244.000
64.15600 245.000
64.17595 236.000
64.19590 225.000
64.21584 212.000
64.23579 229.000
64.25574 215.000
64.27568 183.000
64.29563 200.000
64.31558 204.000
64.33552 210.000
64.35547 239.000
64.37542 202.000
64.39536 185.000
64.41531 193.000
64.43526 227.000
64.45521 194.000
64.47515 200.000
64.49510 187.000
64.51505 221.000
64.53499 196.000
64.55494 210.000
64.57489 197.000
64.59483 203.000
64.61478 194.000
64.63473 194.000
64.65468 212.000
64.67462 211.000
64.69457 191.000
64.71452 222.000
64.73446 214.000
64.75441 205.000
64.77436 198.000
64.79430 191.000
64.81425 200.000
64.83420 210.000
64.85414 198.000
64.87409 191.000
64.89404 213.000
64.91399 202.000
64.93393 177.000
64.95388 180.000
64.97383 187.000
64.99377 193.000
65.01372 186.000
65.03367 200.000
65.05361 202.000
65.07356 191.000
65.09351 189.000
65.11346 192.000
65.13340 194.000
65.15335 200.000
65.17330 186.000
65.19324 194.000
65.21319 222.000
65.23314 199.000
65.25308 208.000
65.27303 185.000
65.29298 200.000
65.31293 195.000
65.33287 203.000
65.35282 197.000
65.37277 224.000
65.39271 246.000
65.41266 235.000
65.43261 200.000
65.45255 216.000
65.47250 241.000
65.49245 234.000
65.51239 253.000
65.53234 240.000
65.55229 254.000
65.57224 263.000
65.59218 283.000
65.61213 282.000
65.63208 246.000
65.65202 267.000
65.67197 271.000
65.69192 274.000
65.71186 282.000
65.73181 295.000
65.75176 244.000
65.77171 288.000
65.79165 269.000
65.81160 292.000
65.83155 275.000
65.85149 292.000
65.87144 266.000
65.89139 289.000
65.91133 336.000
65.93128 272.000
65.95123 294.000
65.97117 310.000
65.99112 302.000
66.01107 340.000
66.03102 345.000
66.05096 328.000
66.07091 372.000
66.09086 327.000
66.11080 370.000
66.13075 425.000
66.15070 438.000
66.17064 422.000
66.19059 411.000
66.21054 454.000
66.23049 434.000
66.25043 362.000
66.27038 431.000
66.29033 355.000
66.31027 387.000
66.33022 366.000
66.35017 352.000
66.37011 374.000
66.39006 321.000
66.41001 335.000
66.42995 325.000
66.44990 297.000
66.46985 285.000
66.48980 298.000
66.50974 265.000
66.52969 271.000
66.54964 243.000
66.56958 271.000
66.58953 241.000
66.60948 251.000
66.62942 217.000
66.64937 219.000
66.66932 235.000
66.68927 228.000
66.70921 228.000
66.72916 245.000
66.74911 223.000
66.76905 208.000
66.78900 203.000
66.80895 251.000
66.82889 180.000
66.84884 187.000
66.86879 208.000
66.88874 222.000
66.90868 219.000
66.92863 181.000
66.94858 224.000
66.96852 231.000
66.98847 195.000
67.00842 200.000
67.02836 183.000
67.04831 214.000
67.06826 214.000
67.08820 195.000
67.10815 217.000
67.12810 201.000
67.14805 210.000
67.16799 222.000
67.18794 200.000
67.20789 222.000
67.22783 218.000
67.24778 206.000
67.26773 204.000
67.28767 203.000
67.30762 205.000
67.32757 208.000
67.34752 184.000
67.36746 183.000
67.38741 182.000
67.40736 201.000
67.42730 194.000
67.44725 188.000
67.46720 206.000
67.48714 167.000
67.50709 224.000
67.52704 231.000
67.54698 209.000
67.56693 213.000
67.58688 196.000
67.60683 242.000
67.62677 255.000
67.64672 219.000
67.66667 240.000
67.68661 251.000
67.70656 266.000
67.72651 229.000
67.74645 271.000
67.76640 271.000
67.78635 264.000
67.80630 283.000
67.82624 275.000
67.84619 300.000
67.86614 301.000
67.88608 267.000
67.90603 275.000
67.92598 278.000
67.94592 315.000
67.96587 294.000
67.98582 329.000
68.00576 339.000
68.02571 319.000
68.04566 289.000
68.06561 291.000
68.08555 318.000
68.10550 262.000
68.12545 260.000
68.14539 283.000
68.16534 251.000
68.18529 247.000
68.20523 250.000
68.22518 236.000
68.24513 216.000
68.26508 247.000
68.28502 207.000
68.30497 206.000
68.32492 218.000
68.34486 214.000
68.36481 215.000
68.38476 184.000
68.40470 183.000
68.42465 198.000
68.44460 217.000
68.46455 224.000
68.48449 215.000
68.50444 195.000
68.52439 192.000
68.54433 184.000
68.56428 205.000
68.58423 186.000
68.60417 205.000
68.62412 187.000
68.64407 193.000
68.66401 160.000
68.68396 185.000
68.70391 190.000
68.72386 191.000
68.74380 181.000
68.76375 181.000
68.78370 201.000
68.80364 180.000
68.82359 196.000
68.84354 183.000
68.86348 183.000
68.88343 184.000
68.90338 185.000
68.92333 174.000
68.94327 171.000
68.96322 169.000
68.98317 179.000
69.00311 204.000
69.02306 167.000
69.04301 171.000
69.06295 181.000
69.08290 183.000
69.10285 216.000
69.12279 200.000
69.14274 194.000
69.16269 176.000
69.18264 178.000
69.20258 182.000
69.22253 192.000
69.24248 212.000
69.26242 173.000
69.28237 183.000
69.30232 170.000
69.32226 186.000
69.34221 190.000
69.36216 199.000
69.38211 191.000
69.40205 193.000
69.42200 179.000
69.44195 185.000
69.46189 205.000
69.48184 176.000
69.50179 180.000
69.52173 193.000
69.54168 202.000
69.56163 200.000
69.58157 224.000
69.60152 201.000
69.62147 198.000
69.64142 158.000
69.66136 161.000
69.68131 180.000
69.70126 212.000
69.72120 174.000
69.74115 179.000
69.76110 215.000
69.78104 177.000
69.80099 181.000
69.82094 200.000
69.84089 188.000
69.86083 196.000
69.88078 181.000
69.90073 163.000
69.92067 170.000
69.94062 183.000
69.96057 181.000
69.98051 188.000
70.00046 183.000
70.02041 199.000
70.04035 177.000
70.06030 188.000
70.08025 176.000
70.10020 208.000
70.12014 195.000
70.14009 187.000
70.16004 180.000
70.17998 193.000
70.19993 170.000
70.21988 188.000
70.23982 191.000
70.25977 174.000
70.27972 179.000
70.29967 162.000
70.31961 156.000
70.33956 200.000
70.35951 166.000
70.37945 202.000
70.39940 164.000
70.41935 168.000
70.43929 189.000
70.45924 178.000
70.47919 201.000
70.49914 186.000
70.51908 178.000
70.53903 161.000
70.55898 172.000
70.57892 190.000
70.59887 201.000
70.61882 192.000
70.63876 173.000
70.65871 195.000
70.67866 176.000
70.69860 194.000
70.71855 188.000
70.73850 209.000
70.75845 205.000
70.77839 176.000
70.79834 188.000
70.81829 185.000
70.83823 199.000
70.85818 192.000
70.87813 188.000
70.89807 186.000
70.91802 194.000
70.93797 207.000
70.95792 187.000
70.97786 194.000
70.99781 201.000
71.01776 172.000
71.03770 196.000
71.05765 178.000
71.07760 221.000
71.09754 174.000
71.11749 213.000
71.13744 200.000
71.15738 199.000
71.17733 221.000
71.19728 199.000
71.21723 182.000
71.23717 232.000
71.25712 209.000
71.27707 205.000
71.29701 194.000
71.31696 201.000
71.33691 189.000
71.35685 200.000
71.37680 201.000
71.39675 190.000
71.41670 195.000
71.43664 195.000
71.45659 196.000
71.47654 188.000
71.49648 217.000
71.51643 205.000
71.53638 192.000
71.55632 202.000
71.57627 190.000
71.59622 198.000
71.61616 196.000
71.63611 191.000
71.65606 186.000
71.67601 196.000
71.69595 161.000
71.71590 183.000
71.73585 179.000
71.75579 208.000
71.77574 211.000
71.79569 164.000
71.81563 189.000
71.83558 183.000
71.85553 177.000
71.87548 193.000
71.89542 195.000
71.91537 188.000
71.93532 194.000
71.95526 179.000
71.97521 182.000
71.99516 191.000
72.01510 180.000
72.03505 198.000
72.05500 197.000
72.07495 197.000
72.09489 205.000
72.11484 222.000
72.13479 218.000
72.15473 186.000
72.17468 216.000
72.19463 202.000
72.21457 221.000
72.23452 220.000
72.25447 220.000
72.27441 243.000
72.29436 234.000
72.31431 212.000
72.33426 247.000
72.35420 229.000
72.37415 200.000
72.39410 248.000
72.41404 222.000
72.43399 232.000
72.45394 237.000
72.47388 246.000
72.49383 225.000
72.51378 213.000
72.53373 204.000
72.55367 214.000
72.57362 235.000
72.59357 226.000
72.61351 228.000
72.63346 203.000
72.65341 220.000
72.67335 212.000
72.69330 195.000
72.71325 175.000
72.73319 205.000
72.75314 200.000
72.77309 206.000
72.79304 228.000
72.81298 195.000
72.83293 203.000
72.85288 223.000
72.87282 199.000
72.89277 200.000
72.91272 218.000
72.93266 254.000
72.95261 217.000
72.97256 214.000
72.99251 209.000
73.01245 240.000
73.03240 246.000
73.05235 215.000
73.07229 238.000
73.09224 252.000
73.11219 194.000
73.13213 251.000
73.15208 256.000
73.17203 224.000
73.19197 256.000
73.21192 236.000
73.23187 210.000
73.25182 237.000
73.27176 207.000
73.29171 253.000
73.31166 234.000
73.33160 222.000
73.35155 213.000
73.37150 216.000
73.39144 211.000
73.41139 221.000
73.43134 212.000
73.45129 250.000
73.47123 218.000
73.49118 207.000
73.51113 193.000
73.53107 191.000
73.55102 215.000
73.57097 189.000
73.59091 189.000
73.61086 184.000
73.63081 166.000
73.65076 228.000
73.67070 202.000
73.69065 203.000
73.71060 205.000
73.73054 187.000
73.75049 202.000
73.77044 210.000
73.79038 178.000
73.81033 199.000
73.83028 201.000
73.85022 186.000
73.87017 211.000
73.89012 180.000
73.91007 196.000
73.93001 208.000
73.94996 207.000
73.96991 190.000
73.98985 191.000
74.00980 212.000
74.02975 215.000
74.04969 184.000
74.06964 222.000
74.08959 194.000
74.10954 193.000
74.12948 255.000
74.14943 238.000
74.16938 204.000
74.18932 237.000
74.20927 239.000
74.22922 221.000
74.24916 210.000
74.26911 248.000
74.28906 224.000
74.30900 235.000
74.32895 230.000
74.34890 269.000
74.36885 252.000
74.38879 243.000
74.40874 227.000
74.42869 220.000
74.44863 249.000
74.46858 225.000
74.48853 233.000
74.50847 248.000
74.52842 229.000
74.54837 218.000
74.56832 212.000
74.58826 196.000
74.60821 195.000
74.62816 199.000
74.64810 188.000
74.66805 205.000
74.68800 239.000
74.70794 209.000
74.72789 229.000
74.74784 215.000
74.76778 220.000
74.78773 220.000
74.80768 205.000
74.82763 246.000
74.84757 217.000
74.86752 258.000
74.88747 235.000
74.90741 203.000
74.92736 228.000
74.94731 210.000
74.96725 237.000
74.98720 242.000
75.00715 275.000
75.02710 258.000
75.04704 282.000
75.06699 253.000
75.08694 268.000
75.10688 294.000
75.12683 268.000
75.14678 291.000
75.16672 277.000
75.18667 259.000
75.20662 253.000
75.22657 259.000
75.24651 270.000
75.26646 248.000
75.28641 277.000
75.30635 251.000
75.32630 272.000
75.34625 246.000
75.36619 269.000
75.38614 251.000
75.40609 233.000
75.42603 258.000
75.44598 240.000
75.46593 242.000
75.48588 249.000
75.50582 217.000
75.52577 224.000
75.54572 196.000
75.56566 237.000
75.58561 248.000
75.60556 205.000
75.62550 195.000
75.64545 199.000
75.66540 212.000
75.68535 177.000
75.70529 221.000
75.72524 206.000
75.74519 200.000
75.76513 215.000
75.78508 198.000
75.80503 206.000
75.82497 209.000
75.84492 188.000
75.86487 173.000
75.88481 194.000
75.90476 187.000
75.92471 201.000
75.94466 189.000
75.96460 205.000
75.98455 193.000
76.00450 178.000
76.02444 194.000
76.04439 182.000
76.06434 195.000
76.08428 194.000
76.10423 191.000
76.12418 193.000
76.14413 170.000
76.16407 196.000
76.18402 176.000
76.20397 159.000
76.22391 183.000
76.24386 185.000
76.26381 169.000
76.28375 185.000
76.30370 178.000
76.32365 212.000
76.34359 187.000
76.36354 187.000
76.38349 189.000
76.40344 191.000
76.42338 185.000
76.44333 182.000
76.46328 204.000
76.48322 193.000
76.50317 177.000
76.52312 176.000
76.54306 190.000
76.56301 174.000
76.58296 174.000
76.60291 185.000
76.62285 184.000
76.64280 217.000
76.66275 189.000
76.68269 200.000
76.70264 170.000
76.72259 191.000
76.74253 200.000
76.76248 186.000
76.78243 193.000
76.80238 179.000
76.82232 191.000
76.84227 200.000
76.86222 203.000
76.88216 175.000
76.90211 176.000
76.92206 197.000
76.94200 183.000
76.96195 189.000
76.98190 172.000
77.00184 213.000
77.02179 179.000
77.04174 232.000
77.06169 202.000
77.08163 190.000
77.10158 200.000
77.12153 197.000
77.14147 192.000
77.16142 208.000
77.18137 206.000
77.20131 209.000
77.22126 221.000
77.24121 226.000
77.26116 220.000
77.28110 224.000
77.30105 221.000
77.32100 220.000
77.34094 221.000
77.36089 226.000
77.38084 223.000
77.40078 233.000
77.42073 237.000
77.44068 217.000
77.46062 214.000
77.48057 224.000
77.50052 237.000
77.52047 206.000
77.54041 232.000
77.56036 230.000
77.58031 218.000
77.60025 257.000
77.62020 246.000
77.64015 248.000
77.66009 243.000
77.68004 223.000
77.69999 230.000
77.71994 229.000
77.73988 223.000
77.75983 228.000
77.77978 237.000
77.79972 241.000
77.81967 245.000
77.83962 265.000
77.85956 264.000
77.87951 242.000
77.89946 230.000
77.91940 245.000
77.93935 227.000
77.95930 228.000
77.97925 250.000
77.99919 226.000
78.01914 252.000
78.03909 236.000
78.05903 226.000
78.07898 268.000
78.09893 246.000
78.11887 239.000
78.13882 254.000
78.15877 234.000
78.17872 233.000
78.19866 221.000
78.21861 239.000
78.23856 237.000
78.25850 209.000
78.27845 228.000
78.29840 219.000
78.31834 208.000
78.33829 230.000
78.35824 206.000
78.37819 219.000
78.39813 225.000
78.41808 205.000
78.43803 205.000
78.45797 189.000
78.47792 229.000
78.49787 204.000
78.51781 240.000
78.53776 203.000
78.55771 180.000
78.57765 184.000
78.59760 199.000
78.61755 210.000
78.63750 205.000
78.65744 207.000
78.67739 181.000
78.69734 185.000
78.71728 200.000
78.73723 181.000
78.75718 194.000
78.77712 211.000
78.79707 220.000
78.81702 210.000
78.83697 183.000
78.85691 186.000
78.87686 181.000
78.89681 162.000
78.91675 192.000
78.93670 203.000
78.95665 183.000
78.97659 198.000
78.99654 172.000
79.01649 204.000
79.03643 181.000
79.05638 181.000
79.07633 215.000
79.09628 214.000
79.11622 164.000
79.13617 192.000
79.15612 216.000
79.17606 216.000
79.19601 179.000
79.21596 225.000
79.23590 170.000
79.25585 219.000
79.27580 215.000
79.29575 227.000
79.31569 219.000
79.33564 200.000
79.35559 204.000
79.37553 198.000
79.39548 194.000
79.41543 201.000
79.43537 224.000
79.45532 187.000
79.47527 190.000
79.49521 211.000
79.51516 195.000
79.53511 196.000
79.55506 203.000
79.57500 209.000
79.59495 214.000
79.61490 196.000
79.63484 189.000
79.65479 193.000
79.67474 210.000
79.69468 211.000
79.71463 204.000
79.73458 178.000
79.75453 192.000
79.77447 193.000
79.79442 193.000
79.81437 206.000
79.83431 220.000
79.85426 216.000
79.87421 170.000
79.89415 187.000
79.91410 189.000
79.93405 198.000
79.95399 188.000
79.97394 176.000
79.99389 224.000
80.01384 190.000
80.03378 192.000
80.05373 198.000
80.07368 193.000
80.09362 186.000
80.11357 200.000
80.13352 227.000
80.15346 199.000
80.17341 197.000
80.19336 180.000
80.21331 206.000
80.23325 226.000
80.25320 203.000
80.27315 174.000
80.29309 220.000
80.31304 187.000
80.33299 233.000
80.35293 181.000
80.37288 186.000
80.39283 166.000
80.41278 211.000
80.43272 198.000
80.45267 221.000
80.47262 207.000
80.49256 172.000
80.51251 189.000
80.53246 207.000
80.55240 182.000
80.57235 212.000
80.59230 197.000
80.61224 192.000
80.63219 195.000
80.65214 165.000
80.67209 180.000
80.69203 172.000
80.71198 197.000
80.73193 201.000
80.75187 173.000
80.77182 199.000
80.79177 193.000
80.81171 171.000
80.83166 165.000
80.85161 170.000
80.87156 200.000
80.89150 195.000
80.91145 197.000
80.93140 172.000
80.95134 202.000
80.97129 186.000
80.99124 183.000
81.01118 172.000
81.03113 183.000
81.05108 216.000
81.07102 202.000
81.09097 181.000
81.11092 223.000
81.13087 183.000
81.15081 206.000
81.17076 165.000
81.19071 174.000
81.21065 200.000
81.23060 177.000
81.25055 204.000
81.27049 173.000
81.29044 195.000
81.31039 180.000
81.33034 219.000
81.35028 192.000
81.37023 181.000
81.39018 179.000
81.41012 177.000
81.43007 207.000
81.45002 199.000
81.46996 175.000
81.48991 180.000
81.50986 199.000
81.52980 179.000
81.54975 182.000
81.56970 181.000
81.58965 190.000
81.60959 186.000
81.62954 180.000
81.64949 194.000
81.66943 182.000
81.68938 163.000
81.70933 175.000
81.72927 186.000
81.74922 183.000
81.76917 176.000
81.78912 189.000
81.80906 182.000
81.82901 184.000
81.84896 183.000
81.86890 163.000
81.88885 163.000
81.90880 181.000
81.92874 191.000
81.94869 189.000
81.96864 205.000
81.98859 154.000
82.00853 216.000
82.02848 205.000
82.04843 195.000
82.06837 170.000
82.08832 171.000
82.10827 196.000
82.12821 206.000
82.14816 199.000
82.16811 195.000
82.18805 187.000
82.20800 191.000
82.22795 202.000
82.24790 204.000
82.26784 197.000
82.28779 201.000
82.30774 226.000
82.32768 205.000
82.34763 231.000
82.36758 205.000
82.38752 204.000
82.40747 207.000
82.42742 199.000
82.44737 231.000
82.46731 230.000
82.48726 232.000
82.50721 219.000
82.52715 222.000
82.54710 236.000
82.56705 204.000
82.58699 223.000
82.60694 198.000
82.62689 212.000
82.64683 212.000
82.66678 200.000
82.68673 226.000
82.70668 190.000
82.72662 229.000
82.74657 204.000
82.76652 205.000
82.78646 179.000
82.80641 228.000
82.82636 204.000
82.84630 239.000
82.86625 182.000
82.88620 209.000
82.90615 197.000
82.92609 199.000
82.94604 216.000
82.96599 196.000
82.98593 213.000
83.00588 201.000
83.02583 196.000
83.04577 226.000
83.06572 215.000
83.08567 207.000
83.10561 214.000
83.12556 223.000
83.14551 206.000
83.16546 184.000
83.18540 193.000
83.20535 195.000
83.22530 213.000
83.24524 208.000
83.26519 220.000
83.28514 211.000
83.30508 216.000
83.32503 204.000
83.34498 194.000
83.36493 213.000
83.38487 202.000
83.40482 219.000
83.42477 206.000
83.44471 245.000
83.46466 203.000
83.48461 213.000
83.50455 203.000
83.52450 223.000
83.54445 199.000
83.56440 190.000
83.58434 199.000
83.60429 226.000
83.62424 225.000
83.64418 242.000
83.66413 191.000
83.68408 214.000
83.70402 211.000
83.72397 208.000
83.74392 234.000
83.76386 232.000
83.78381 225.000
83.80376 215.000
83.82371 214.000
83.84365 217.000
83.86360 208.000
83.88355 214.000
83.90349 236.000
83.92344 236.000
83.94339 237.000
83.96333 229.000
83.98328 256.000
84.00323 243.000
84.02318 241.000
84.04312 249.000
84.06307 232.000
84.08302 216.000
84.10296 228.000
84.12291 237.000
84.14286 236.000
84.16280 246.000
84.18275 234.000
84.20270 231.000
84.22264 231.000
84.24259 234.000
84.26254 248.000
84.28249 232.000
84.30243 252.000
84.32238 219.000
84.34233 245.000
84.36227 246.000
84.38222 213.000
84.40217 219.000
84.42211 221.000
84.44206 207.000
84.46201 195.000
84.48196 232.000
84.50190 192.000
84.52185 194.000
84.54180 192.000
84.56174 190.000
84.58169 208.000
84.60164 223.000
84.62158 190.000
84.64153 193.000
84.66148 220.000
84.68142 179.000
84.70137 195.000
84.72132 197.000
84.74127 213.000
84.76121 187.000
84.78116 199.000
84.80111 191.000
84.82105 183.000
84.84100 220.000
84.86095 209.000
84.88089 199.000
84.90084 207.000
84.92079 199.000
84.94074 175.000
84.96068 195.000
84.98063 180.000
85.00058 177.000
85.02052 209.000
85.04047 189.000
85.06042 192.000
85.08036 188.000
85.10031 189.000
85.12026 176.000
85.14021 186.000
85.16015 166.000
85.18010 175.000
85.20005 205.000
85.21999 194.000
85.23994 167.000
85.25989 212.000
85.27983 200.000
85.29978 187.000
85.31973 185.000
85.33967 192.000
85.35962 194.000
85.37957 195.000
85.39952 155.000
85.41946 181.000
85.43941 208.000
85.45936 183.000
85.47930 167.000
85.49925 168.000
85.51920 174.000
85.53914 184.000
85.55909 184.000
85.57904 180.000
85.59899 154.000
85.61893 208.000
85.63888 176.000
85.65883 181.000
85.67877 184.000
85.69872 180.000
85.71867 222.000
85.73861 213.000
85.75856 212.000
85.77851 197.000
85.79845 173.000
85.81840 178.000
85.83835 197.000
85.85830 177.000
85.87824 172.000
85.89819 183.000
85.91814 192.000
85.93808 175.000
85.95803 171.000
85.97798 194.000
85.99792 200.000
86.01787 197.000
86.03782 195.000
86.05777 152.000
86.07771 207.000
86.09766 192.000
86.11761 180.000
86.13755 194.000
86.15750 212.000
86.17745 191.000
86.19739 166.000
86.21734 193.000
86.23729 203.000
86.25723 209.000
86.27718 219.000
86.29713 190.000
86.31708 207.000
86.33702 180.000
86.35697 186.000
86.37692 208.000
86.39686 197.000
86.41681 213.000
86.43676 205.000
86.45670 196.000
86.47665 213.000
86.49660 188.000
86.51655 183.000
86.53649 202.000
86.55644 192.000
86.57639 183.000
86.59633 220.000
86.61628 230.000
86.63623 200.000
86.65617 206.000
86.67612 199.000
86.69607 207.000
86.71602 231.000
86.73596 219.000
86.75591 187.000
86.77586 214.000
86.79580 202.000
86.81575 195.000
86.83570 240.000
86.85564 221.000
86.87559 213.000
86.89554 176.000
86.91548 190.000
86.93543 203.000
86.95538 237.000
86.97533 231.000
86.99527 207.000
87.01522 183.000
87.03517 219.000
87.05511 214.000
87.07506 214.000
87.09501 224.000
87.11495 197.000
87.13490 217.000
87.15485 224.000
87.17480 220.000
87.19474 210.000
87.21469 232.000
87.23464 221.000
87.25458 191.000
87.27453 206.000
87.29448 222.000
87.31442 207.000
87.33437 205.000
87.35432 205.000
87.37426 198.000
87.39421 199.000
87.41416 217.000
87.43411 229.000
87.45405 195.000
87.47400 231.000
87.49395 207.000
87.51389 196.000
87.53384 199.000
87.55379 205.000
87.57373 213.000
87.59368 203.000
87.61363 209.000
87.63358 172.000
87.65352 197.000
87.67347 166.000
87.69342 195.000
87.71336 168.000
87.73331 222.000
87.75326 199.000
87.77320 196.000
87.79315 184.000
87.81310 181.000
87.83304 177.000
87.85299 191.000
87.87294 212.000
87.89289 202.000
87.91283 180.000
87.93278 172.000
87.95273 184.000
87.97267 193.000
87.99262 174.000
88.01257 176.000
88.03251 201.000
88.05246 225.000
88.07241 171.000
88.09236 195.000
88.11230 165.000
88.13225 174.000
88.15220 199.000
88.17214 186.000
88.19209 172.000
88.21204 195.000
88.23198 174.000
88.25193 217.000
88.27188 184.000
88.29183 166.000
88.31177 202.000
88.33172 182.000
88.35167 189.000
88.37161 187.000
88.39156 167.000
88.41151 194.000
88.43145 209.000
88.45140 206.000
88.47135 179.000
88.49129 189.000
88.51124 193.000
88.53119 183.000
88.55114 184.000
88.57108 169.000
88.59103 195.000
88.61098 158.000
88.63092 179.000
88.65087 207.000
88.67082 195.000
88.69076 163.000
88.71071 188.000
88.73066 169.000
88.75061 183.000
88.77055 168.000
88.79050 203.000
88.81045 160.000
88.83039 171.000
88.85034 178.000
88.87029 168.000
88.89023 174.000
88.91018 161.000
88.93013 181.000
88.95007 194.000
88.97002 190.000
88.98997 188.000
89.00992 182.000
89.02986 173.000
89.04981 212.000
89.06976 221.000
89.08970 200.000
89.10965 163.000
89.12960 201.000
89.14954 183.000
89.16949 206.000
89.18944 196.000
89.20939 201.000
89.22933 195.000
89.24928 202.000
89.26923 187.000
89.28917 185.000
89.30912 182.000
89.32907 192.000
89.34901 217.000
89.36896 180.000
89.38891 201.000
89.40885 193.000
89.42880 204.000
89.44875 187.000
89.46870 210.000
89.48864 210.000
89.50859 215.000
89.52854 209.000
89.54848 193.000
89.56843 190.000
89.58838 212.000
89.60832 186.000
89.62827 196.000
89.64822 237.000
89.66817 233.000
89.68811 254.000
89.70806 241.000
89.72801 200.000
89.74795 222.000
89.76790 239.000
89.78785 220.000
89.80779 227.000
89.82774 232.000
89.84769 236.000
89.86764 214.000
89.88758 273.000
89.90753 276.000
89.92748 255.000
89.94742 214.000
89.96737 252.000
89.98732 245.000
90.00726 249.000
