10.00000 399.000
10.01995 432.000
10.03989 399.000
10.05984 410.000
10.07979 439.000
10.09973 424.000
10.11968 413.000
10.13963 423.000
10.15958 427.000
10.17952 407.000
10.19947 436.000
10.21942 449.000
10.23936 409.000
10.25931 441.000
10.27926 451.000
10.29920 439.000
10.31915 438.000
10.33910 457.000
10.35905 419.000
10.37899 439.000
10.39894 388.000
10.41889 408.000
10.43883 468.000
10.45878 442.000
10.47873 445.000
10.49867 471.000
10.51862 480.000
10.53857 418.000
10.55851 430.000
10.57846 459.000
10.59841 428.000
10.61836 465.000
10.63830 433.000
10.65825 428.000
10.67820 443.000
10.69814 461.000
10.71809 484.000
10.73804 461.000
10.75798 440.000
10.77793 461.000
10.79788 437.000
10.81783 410.000
10.83777 459.000
10.85772 456.000
10.87767 429.000
10.89761 452.000
10.91756 466.000
10.93751 478.000
10.95745 452.000
10.97740 473.000
10.99735 473.000
11.01730 460.000
11.03724 445.000
11.05719 452.000
11.07714 398.000
11.09708 479.000
11.11703 463.000
11.13698 446.000
11.15692 444.000
11.17687 472.000
11.19682 483.000
11.21676 437.000
11.23671 473.000
11.25666 433.000
11.27661 467.000
11.29655 450.000
11.31650 467.000
11.33645 478.000
11.35639 455.000
11.37634 485.000
11.39629 443.000
11.41623 424.000
11.43618 474.000
11.45613 458.000
11.47608 431.000
11.49602 468.000
11.51597 460.000
11.53592 469.000
11.55586 474.000
11.57581 456.000
11.59576 466.000
11.61570 459.000
11.63565 465.000
11.65560 470.000
11.67554 464.000
11.69549 464.000
11.71544 458.000
11.73539 484.000
11.75533 453.000
11.77528 444.000
11.79523 509.000
11.81517 471.000
11.83512 501.000
11.85507 450.000
11.87501 483.000
11.89496 473.000
11.91491 467.000
11.93486 426.000
11.95480 471.000
11.97475 469.000
11.99470 456.000
12.01464 468.000
12.03459 456.000
12.05454 452.000
12.07448 479.000
12.09443 499.000
12.11438 479.000
12.13432 470.000
12.15427 466.000
12.17422 507.000
12.19417 466.000
12.21411 476.000
12.23406 485.000
12.25401 465.000
12.27395 476.000
12.29390 476.000
12.31385 491.000
12.33379 449.000
12.35374 463.000
12.37369 503.000
12.39364 459.000
12.41358 423.000
12.43353 468.000
12.45348 468.000
12.47342 490.000
12.49337 456.000
12.51332 492.000
12.53326 466.000
12.55321 495.000
12.57316 502.000
12.59311 501.000
12.61305 453.000
12.63300 443.000
12.65295 450.000
12.67289 488.000
12.69284 488.000
12.71279 484.000
12.73273 457.000
12.75268 457.000
12.77263 489.000
12.79257 496.000
12.81252 468.000
12.83247 513.000
12.85242 486.000
12.87236 455.000
12.89231 449.000
12.91226 513.000
12.93220 459.000
12.95215 506.000
12.97210 500.000
12.99204 477.000
13.01199 463.000
13.03194 492.000
13.05189 439.000
13.07183 503.000
13.09178 459.000
13.11173 455.000
13.13167 549.000
13.15162 474.000
13.17157 500.000
13.19151 495.000
13.21146 471.000
13.23141 485.000
13.25135 464.000
13.27130 497.000
13.29125 467.000
13.31120 453.000
13.33114 473.000
13.35109 501.000
13.37104 459.000
13.39098 487.000
13.41093 493.000
13.43088 500.000
13.45082 502.000
13.47077 461.000
13.49072 484.000
13.51067 468.000
13.53061 483.000
13.55056 518.000
13.57051 517.000
13.59045 504.000
13.61040 480.000
13.63035 486.000
13.65029 486.000
13.67024 424.000
13.69019 490.000
13.71013 483.000
13.73008 485.000
13.75003 466.000
13.76998 463.000
13.78992 500.000
13.80987 484.000
13.82982 454.000
13.84976 499.000
13.86971 468.000
13.88966 501.000
13.90960 478.000
13.92955 482.000
13.94950 497.000
13.96945 439.000
13.98939 499.000
14.00934 469.000
14.02929 499.000
14.04923 521.000
14.06918 517.000
14.08913 471.000
14.10907 490.000
14.12902 454.000
14.14897 528.000
14.16892 480.000
14.18886 485.000
14.20881 447.000
14.22876 473.000
14.24870 467.000
14.26865 517.000
14.28860 465.000
14.30854 514.000
14.32849 467.000
14.34844 496.000
14.36838 511.000
14.38833 508.000
14.40828 503.000
14.42823 442.000
14.44817 511.000
14.46812 477.000
14.48807 481.000
14.50801 529.000
14.52796 489.000
14.54791 510.000
14.56785 537.000
14.58780 522.000
14.60775 487.000
14.62770 511.000
14.64764 492.000
14.66759 489.000
14.68754 539.000
14.70748 531.000
14.72743 501.000
14.74738 466.000
14.76732 462.000
14.78727 499.000
14.80722 475.000
14.82716 493.000
14.84711 541.000
14.86706 494.000
14.88701 518.000
14.90695 490.000
14.92690 476.000
14.94685 473.000
14.96679 503.000
14.98674 497.000
15.00669 515.000
15.02663 490.000
15.04658 525.000
15.06653 513.000
15.08648 523.000
15.10642 480.000
15.12637 491.000
15.14632 511.000
15.16626 505.000
15.18621 483.000
15.20616 474.000
15.22610 499.000
15.24605 532.000
15.26600 508.000
15.28594 483.000
15.30589 509.000
15.32584 481.000
15.34579 543.000
15.36573 513.000
15.38568 526.000
15.40563 520.000
15.42557 554.000
15.44552 559.000
15.46547 519.000
15.48541 548.000
15.50536 523.000
15.52531 575.000
15.54526 568.000
15.56520 569.000
15.58515 593.000
15.60510 614.000
15.62504 640.000
15.64499 663.000
15.66494 697.000
15.68488 720.000
15.70483 845.000
15.72478 866.000
15.74472 972.000
15.76467 1053.000
15.78462 1072.000
15.80457 1222.000
15.82451 1370.000
15.84446 1481.000
15.86441 1515.000
15.88435 1630.000
15.90430 1492.000
15.92425 1337.000
15.94419 1118.000
15.96414 1054.000
15.98409 998.000
16.00404 1103.000
16.02398 1157.000
16.04393 1285.000
16.06388 1394.000
16.08382 1569.000
16.10377 1673.000
16.12372 1795.000
16.14366 1984.000
16.16361 2016.000
16.18356 2183.000
16.20351 2206.000
16.22345 2147.000
16.24340 1946.000
16.26335 1779.000
16.28329 1413.000
16.30324 1117.000
16.32319 939.000
16.34313 812.000
16.36308 660.000
16.38303 653.000
16.40297 564.000
16.42292 624.000
16.44287 540.000
16.46282 533.000
16.48276 550.000
16.50271 525.000
16.52266 546.000
16.54260 484.000
16.56255 553.000
16.58250 547.000
16.60244 501.000
16.62239 523.000
16.64234 542.000
16.66229 495.000
16.68223 524.000
16.70218 579.000
16.72213 553.000
16.74207 555.000
16.76202 569.000
16.78197 571.000
16.80191 584.000
16.82186 607.000
16.84181 563.000
16.86175 561.000
16.88170 571.000
16.90165 528.000
16.92160 504.000
16.94154 493.000
16.96149 504.000
16.98144 488.000
17.00138 545.000
17.02133 535.000
17.04128 491.000
17.06122 531.000
17.08117 529.000
17.10112 491.000
17.12107 501.000
17.14101 459.000
17.16096 485.000
17.18091 483.000
17.20085 494.000
17.22080 513.000
17.24075 463.000
17.26069 450.000
17.28064 511.000
17.30059 443.000
17.32053 469.000
17.34048 509.000
17.36043 459.000
17.38038 475.000
17.40032 492.000
17.42027 502.000
17.44022 510.000
17.46016 458.000
17.48011 527.000
17.50006 490.000
17.52000 499.000
17.53995 485.000
17.55990 528.000
17.57985 480.000
17.59979 535.000
17.61974 496.000
17.63969 476.000
17.65963 499.000
17.67958 478.000
17.69953 455.000
17.71947 494.000
17.73942 476.000
17.75937 496.000
17.77932 466.000
17.79926 480.000
17.81921 495.000
17.83916 477.000
17.85910 503.000
17.87905 459.000
17.89900 491.000
17.91894 501.000
17.93889 523.000
17.95884 490.000
17.97878 495.000
17.99873 448.000
18.01868 494.000
18.03863 482.000
18.05857 456.000
18.07852 462.000
18.09847 486.000
18.11841 514.000
18.13836 465.000
18.15831 525.000
18.17825 444.000
18.19820 441.000
18.21815 460.000
18.23810 506.000
18.25804 509.000
18.27799 489.000
18.29794 504.000
18.31788 494.000
18.33783 488.000
18.35778 466.000
18.37772 475.000
18.39767 494.000
18.41762 522.000
18.43756 537.000
18.45751 515.000
18.47746 530.000
18.49741 475.000
18.51735 465.000
18.53730 475.000
18.55725 494.000
18.57719 483.000
18.59714 447.000
18.61709 492.000
18.63703 489.000
18.65698 516.000
18.67693 436.000
18.69688 462.000
18.71682 497.000
18.73677 509.000
18.75672 466.000
18.77666 479.000
18.79661 483.000
18.81656 503.000
18.83650 503.000
18.85645 551.000
18.87640 467.000
18.89634 507.000
18.91629 488.000
18.93624 502.000
18.95619 521.000
18.97613 468.000
18.99608 459.000
19.01603 504.000
19.03597 469.000
19.05592 485.000
19.07587 500.000
19.09581 488.000
19.11576 502.000
19.13571 516.000
19.15566 503.000
19.17560 473.000
19.19555 475.000
19.21550 513.000
19.23544 461.000
19.25539 501.000
19.27534 467.000
19.29528 512.000
19.31523 489.000
19.33518 504.000
19.35513 513.000
19.37507 475.000
19.39502 464.000
19.41497 449.000
19.43491 471.000
19.45486 494.000
19.47481 504.000
19.49475 472.000
19.51470 484.000
19.53465 515.000
19.55459 474.000
19.57454 501.000
19.59449 485.000
19.61444 469.000
19.63438 475.000
19.65433 503.000
19.67428 477.000
19.69422 490.000
19.71417 500.000
19.73412 479.000
19.75406 522.000
19.77401 460.000
19.79396 451.000
19.81391 493.000
19.83385 480.000
19.85380 475.000
19.87375 468.000
19.89369 493.000
19.91364 495.000
19.93359 523.000
19.95353 484.000
19.97348 497.000
19.99343 476.000
20.01337 488.000
20.03332 504.000
20.05327 483.000
20.07322 508.000
20.09316 515.000
20.11311 481.000
20.13306 487.000
20.15300 511.000
20.17295 499.000
20.19290 487.000
20.21284 486.000
20.23279 517.000
20.25274 509.000
20.27269 492.000
20.29263 533.000
20.31258 522.000
20.33253 520.000
20.35247 516.000
20.37242 523.000
20.39237 569.000
20.41231 494.000
20.43226 509.000
20.45221 509.000
20.47215 478.000
20.49210 546.000
20.51205 489.000
20.53200 537.000
20.55194 550.000
20.57189 558.000
20.59184 536.000
20.61178 571.000
20.63173 562.000
20.65168 560.000
20.67162 633.000
20.69157 632.000
20.71152 659.000
20.73147 683.000
20.75141 739.000
20.77136 728.000
20.79131 827.000
20.81125 792.000
20.83120 912.000
20.85115 906.000
20.87109 924.000
20.89104 838.000
20.91099 828.000
20.93094 850.000
20.95088 704.000
20.97083 725.000
20.99078 673.000
21.01072 662.000
21.03067 625.000
21.05062 571.000
21.07056 586.000
21.09051 573.000
21.11046 539.000
21.13040 510.000
21.15035 524.000
21.17030 519.000
21.19025 493.000
21.21019 494.000
21.23014 491.000
21.25009 470.000
21.27003 469.000
21.28998 513.000
21.30993 464.000
21.32987 489.000
21.34982 497.000
21.36977 528.000
21.38972 528.000
21.40966 465.000
21.42961 490.000
21.44956 485.000
21.46950 487.000
21.48945 511.000
21.50940 522.000
21.52934 468.000
21.54929 500.000
21.56924 473.000
21.58918 518.000
21.60913 496.000
21.62908 503.000
21.64903 489.000
21.66897 486.000
21.68892 534.000
21.70887 504.000
21.72881 497.000
21.74876 479.000
21.76871 476.000
21.78865 518.000
21.80860 522.000
21.82855 502.000
21.84850 503.000
21.86844 502.000
21.88839 499.000
21.90834 543.000
21.92828 511.000
21.94823 506.000
21.96818 495.000
21.98812 488.000
22.00807 441.000
22.02802 512.000
22.04796 488.000
22.06791 518.000
22.08786 493.000
22.10781 497.000
22.12775 489.000
22.14770 480.000
22.16765 488.000
22.18759 522.000
22.20754 500.000
22.22749 478.000
22.24743 508.000
22.26738 491.000
22.28733 519.000
22.30728 469.000
22.32722 517.000
22.34717 471.000
22.36712 481.000
22.38706 529.000
22.40701 480.000
22.42696 506.000
22.44690 507.000
22.46685 511.000
22.48680 470.000
22.50675 492.000
22.52669 485.000
22.54664 474.000
22.56659 484.000
22.58653 459.000
22.60648 468.000
22.62643 515.000
22.64637 491.000
22.66632 493.000
22.68627 502.000
22.70621 491.000
22.72616 505.000
22.74611 466.000
22.76606 503.000
22.78600 514.000
22.80595 501.000
22.82590 485.000
22.84584 462.000
22.86579 507.000
22.88574 467.000
22.90568 472.000
22.92563 493.000
22.94558 489.000
22.96553 503.000
22.98547 516.000
23.00542 467.000
23.02537 471.000
23.04531 492.000
23.06526 457.000
23.08521 489.000
23.10515 491.000
23.12510 499.000
23.14505 506.000
23.16499 471.000
23.18494 492.000
23.20489 516.000
23.22484 486.000
23.24478 485.000
23.26473 518.000
23.28468 456.000
23.30462 502.000
23.32457 520.000
23.34452 491.000
23.36446 446.000
23.38441 516.000
23.40436 459.000
23.42431 487.000
23.44425 503.000
23.46420 444.000
23.48415 492.000
23.50409 464.000
23.52404 467.000
23.54399 468.000
23.56393 472.000
23.58388 477.000
23.60383 476.000
23.62377 496.000
23.64372 496.000
23.66367 483.000
23.68362 506.000
23.70356 499.000
23.72351 495.000
23.74346 510.000
23.76340 492.000
23.78335 503.000
23.80330 527.000
23.82324 484.000
23.84319 475.000
23.86314 500.000
23.88309 494.000
23.90303 510.000
23.92298 472.000
23.94293 514.000
23.96287 477.000
23.98282 479.000
24.00277 468.000
24.02271 493.000
24.04266 511.000
24.06261 506.000
24.08256 497.000
24.10250 493.000
24.12245 479.000
24.14240 555.000
24.16234 484.000
24.18229 493.000
24.20224 491.000
24.22218 472.000
24.24213 516.000
24.26208 531.000
24.28202 516.000
24.30197 505.000
24.32192 464.000
24.34187 474.000
24.36181 504.000
24.38176 463.000
24.40171 515.000
24.42165 521.000
24.44160 523.000
24.46155 490.000
24.48149 538.000
24.50144 494.000
24.52139 492.000
24.54134 498.000
24.56128 485.000
24.58123 522.000
24.60118 501.000
24.62112 513.000
24.64107 486.000
24.66102 482.000
24.68096 464.000
24.70091 512.000
24.72086 478.000
24.74080 511.000
24.76075 495.000
24.78070 503.000
24.80065 515.000
24.82059 495.000
24.84054 555.000
24.86049 502.000
24.88043 529.000
24.90038 518.000
24.92033 539.000
24.94027 567.000
24.96022 565.000
24.98017 522.000
25.00012 586.000
25.02006 530.000
25.04001 516.000
25.05996 528.000
25.07990 516.000
25.09985 522.000
25.11980 495.000
25.13974 544.000
25.15969 471.000
25.17964 529.000
25.19958 478.000
25.21953 493.000
25.23948 466.000
25.25943 563.000
25.27937 503.000
25.29932 507.000
25.31927 459.000
25.33921 465.000
25.35916 520.000
25.37911 530.000
25.39905 517.000
25.41900 476.000
25.43895 489.000
25.45890 536.000
25.47884 497.000
25.49879 533.000
25.51874 494.000
25.53868 514.000
25.55863 498.000
25.57858 483.000
25.59852 532.000
25.61847 514.000
25.63842 492.000
25.65837 449.000
25.67831 457.000
25.69826 492.000
25.71821 539.000
25.73815 509.000
25.75810 517.000
25.77805 525.000
25.79799 509.000
25.81794 474.000
25.83789 464.000
25.85783 514.000
25.87778 466.000
25.89773 502.000
25.91768 515.000
25.93762 526.000
25.95757 532.000
25.97752 505.000
25.99746 460.000
26.01741 519.000
26.03736 505.000
26.05730 459.000
26.07725 480.000
26.09720 487.000
26.11715 531.000
26.13709 487.000
26.15704 517.000
26.17699 494.000
26.19693 467.000
26.21688 529.000
26.23683 513.000
26.25677 452.000
26.27672 525.000
26.29667 504.000
26.31661 531.000
26.33656 487.000
26.35651 455.000
26.37646 489.000
26.39640 477.000
26.41635 494.000
26.43630 517.000
26.45624 501.000
26.47619 486.000
26.49614 449.000
26.51608 535.000
26.53603 492.000
26.55598 510.000
26.57593 519.000
26.59587 499.000
26.61582 537.000
26.63577 524.000
26.65571 500.000
26.67566 512.000
26.69561 504.000
26.71555 479.000
26.73550 510.000
26.75545 505.000
26.77539 484.000
26.79534 490.000
26.81529 508.000
26.83524 473.000
26.85518 498.000
26.87513 513.000
26.89508 499.000
26.91502 488.000
26.93497 522.000
26.95492 486.000
26.97486 460.000
26.99481 488.000
27.01476 472.000
27.03471 459.000
27.05465 545.000
27.07460 488.000
27.09455 483.000
27.11449 521.000
27.13444 535.000
27.15439 486.000
27.17433 544.000
27.19428 508.000
27.21423 491.000
27.23417 474.000
27.25412 447.000
27.27407 473.000
27.29402 483.000
27.31396 474.000
27.33391 500.000
27.35386 498.000
27.37380 520.000
27.39375 521.000
27.41370 524.000
27.43364 499.000
27.45359 495.000
27.47354 517.000
27.49349 525.000
27.51343 507.000
27.53338 533.000
27.55333 506.000
27.57327 523.000
27.59322 498.000
27.61317 515.000
27.63311 534.000
27.65306 486.000
27.67301 478.000
27.69296 531.000
27.71290 515.000
27.73285 518.000
27.75280 492.000
27.77274 502.000
27.79269 541.000
27.81264 495.000
27.83258 456.000
27.85253 475.000
27.87248 530.000
27.89242 512.000
27.91237 486.000
27.93232 507.000
27.95227 470.000
27.97221 506.000
27.99216 498.000
28.01211 462.000
28.03205 516.000
28.05200 530.000
28.07195 517.000
28.09189 506.000
28.11184 536.000
28.13179 536.000
28.15174 515.000
28.17168 538.000
28.19163 511.000
28.21158 533.000
28.23152 556.000
28.25147 466.000
28.27142 499.000
28.29136 509.000
28.31131 502.000
28.33126 531.000
28.35120 502.000
28.37115 535.000
28.39110 488.000
28.41105 501.000
28.43099 533.000
28.45094 505.000
28.47089 508.000
28.49083 541.000
28.51078 509.000
28.53073 538.000
28.55067 506.000
28.57062 493.000
28.59057 502.000
28.61052 487.000
28.63046 502.000
28.65041 495.000
28.67036 520.000
28.69030 488.000
28.71025 544.000
28.73020 504.000
28.75014 518.000
28.77009 529.000
28.79004 538.000
28.80998 525.000
28.82993 556.000
28.84988 503.000
28.86983 513.000
28.88977 501.000
28.90972 501.000
28.92967 549.000
28.94961 479.000
28.96956 475.000
28.98951 539.000
29.00945 510.000
29.02940 527.000
29.04935 558.000
29.06930 500.000
29.08924 578.000
29.10919 569.000
29.12914 527.000
29.14908 582.000
29.16903 559.000
29.18898 617.000
29.20892 573.000
29.22887 532.000
29.24882 638.000
29.26877 633.000
29.28871 632.000
29.30866 626.000
29.32861 716.000
29.34855 685.000
29.36850 682.000
29.38845 672.000
29.40839 664.000
29.42834 654.000
29.44829 628.000
29.46823 622.000
29.48818 552.000
29.50813 536.000
29.52808 558.000
29.54802 552.000
29.56797 524.000
29.58792 526.000
29.60786 521.000
29.62781 533.000
29.64776 514.000
29.66770 518.000
29.68765 514.000
29.70760 528.000
29.72755 511.000
29.74749 509.000
29.76744 494.000
29.78739 505.000
29.80733 508.000
29.82728 513.000
29.84723 531.000
29.86717 498.000
29.88712 535.000
29.90707 573.000
29.92701 531.000
29.94696 569.000
29.96691 526.000
29.98686 539.000
30.00680 549.000
30.02675 530.000
30.04670 554.000
30.06664 498.000
30.08659 569.000
30.10654 535.000
30.12648 563.000
30.14643 569.000
30.16638 532.000
30.18633 533.000
30.20627 569.000
30.22622 542.000
30.24617 591.000
30.26611 504.000
30.28606 536.000
30.30601 553.000
30.32595 537.000
30.34590 482.000
30.36585 496.000
30.38579 540.000
30.40574 479.000
30.42569 532.000
30.44564 484.000
30.46558 501.000
30.48553 505.000
30.50548 501.000
30.52542 553.000
30.54537 530.000
30.56532 505.000
30.58526 555.000
30.60521 505.000
30.62516 521.000
30.64511 529.000
30.66505 512.000
30.68500 507.000
30.70495 485.000
30.72489 524.000
30.74484 499.000
30.76479 497.000
30.78473 516.000
30.80468 505.000
30.82463 532.000
30.84458 505.000
30.86452 557.000
30.88447 484.000
30.90442 525.000
30.92436 485.000
30.94431 524.000
30.96426 492.000
30.98420 523.000
31.00415 533.000
31.02410 531.000
31.04404 500.000
31.06399 489.000
31.08394 532.000
31.10389 506.000
31.12383 492.000
31.14378 506.000
31.16373 519.000
31.18367 536.000
31.20362 487.000
31.22357 501.000
31.24351 495.000
31.26346 517.000
31.28341 556.000
31.30336 503.000
31.32330 563.000
31.34325 535.000
31.36320 539.000
31.38314 489.000
31.40309 536.000
31.42304 513.000
31.44298 458.000
31.46293 516.000
31.48288 531.000
31.50282 505.000
31.52277 516.000
31.54272 527.000
31.56267 489.000
31.58261 520.000
31.60256 526.000
31.62251 525.000
31.64245 496.000
31.66240 503.000
31.68235 548.000
31.70229 513.000
31.72224 487.000
31.74219 548.000
31.76214 538.000
31.78208 496.000
31.80203 516.000
31.82198 510.000
31.84192 514.000
31.86187 529.000
31.88182 538.000
31.90176 535.000
31.92171 519.000
31.94166 597.000
31.96160 558.000
31.98155 551.000
32.00150 583.000
32.02145 617.000
32.04139 627.000
32.06134 567.000
32.08129 598.000
32.10123 635.000
32.12118 611.000
32.14113 607.000
32.16107 615.000
32.18102 633.000
32.20097 583.000
32.22092 638.000
32.24086 579.000
32.26081 616.000
32.28076 651.000
32.30070 639.000
32.32065 662.000
32.34060 719.000
32.36054 751.000
32.38049 833.000
32.40044 887.000
32.42039 898.000
32.44033 875.000
32.46028 892.000
32.48023 913.000
32.50017 894.000
32.52012 843.000
32.54007 830.000
32.56001 776.000
32.57996 738.000
32.59991 684.000
32.61985 681.000
32.63980 723.000
32.65975 708.000
32.67970 702.000
32.69964 660.000
32.71959 684.000
32.73954 654.000
32.75948 649.000
32.77943 666.000
32.79938 705.000
32.81932 665.000
32.83927 719.000
32.85922 677.000
32.87917 653.000
32.89911 611.000
32.91906 561.000
32.93901 609.000
32.95895 561.000
32.97890 548.000
32.99885 572.000
33.01879 537.000
33.03874 561.000
33.05869 546.000
33.07863 520.000
33.09858 516.000
33.11853 551.000
33.13848 499.000
33.15842 493.000
33.17837 512.000
33.19832 546.000
33.21826 524.000
33.23821 503.000
33.25816 498.000
33.27810 516.000
33.29805 502.000
33.31800 535.000
33.33795 542.000
33.35789 518.000
33.37784 556.000
33.39779 533.000
33.41773 526.000
33.43768 524.000
33.45763 551.000
33.47757 528.000
33.49752 541.000
33.51747 529.000
33.53741 499.000
33.55736 499.000
33.57731 490.000
33.59726 512.000
33.61720 519.000
33.63715 484.000
33.65710 529.000
33.67704 537.000
33.69699 525.000
33.71694 566.000
33.73688 562.000
33.75683 538.000
33.77678 548.000
33.79673 531.000
33.81667 566.000
33.83662 541.000
33.85657 570.000
33.87651 578.000
33.89646 575.000
33.91641 612.000
33.93635 570.000
33.95630 599.000
33.97625 548.000
33.99620 573.000
34.01614 617.000
34.03609 586.000
34.05604 621.000
34.07598 626.000
34.09593 638.000
34.11588 634.000
34.13582 639.000
34.15577 701.000
34.17572 709.000
34.19566 749.000
34.21561 761.000
34.23556 792.000
34.25551 885.000
34.27545 907.000
34.29540 866.000
34.31535 935.000
34.33529 978.000
34.35524 970.000
34.37519 976.000
34.39513 966.000
34.41508 945.000
34.43503 945.000
34.45498 954.000
34.47492 902.000
34.49487 895.000
34.51482 850.000
34.53476 891.000
34.55471 841.000
34.57466 777.000
34.59460 791.000
34.61455 777.000
34.63450 794.000
34.65444 751.000
34.67439 777.000
34.69434 721.000
34.71429 711.000
34.73423 747.000
34.75418 684.000
34.77413 704.000
34.79407 768.000
34.81402 693.000
34.83397 722.000
34.85391 692.000
34.87386 691.000
34.89381 697.000
34.91376 717.000
34.93370 714.000
34.95365 717.000
34.97360 692.000
34.99354 659.000
35.01349 668.000
35.03344 768.000
35.05338 751.000
35.07333 755.000
35.09328 839.000
35.11322 818.000
35.13317 855.000
35.15312 930.000
35.17307 951.000
35.19301 1032.000
35.21296 1110.000
35.23291 1368.000
35.25285 1452.000
35.27280 1623.000
35.29275 1816.000
35.31269 1996.000
35.33264 2313.000
35.35259 2786.000
35.37254 3085.000
35.39248 3533.000
35.41243 3746.000
35.43238 3983.000
35.45232 4077.000
35.47227 4325.000
35.49222 4599.000
35.51216 4660.000
35.53211 4496.000
35.55206 3916.000
35.57201 3643.000
35.59195 3304.000
35.61190 2796.000
35.63185 2506.000
35.65179 2179.000
35.67174 1846.000
35.69169 1544.000
35.71163 1384.000
35.73158 1221.000
35.75153 1077.000
35.77147 1032.000
35.79142 939.000
35.81137 948.000
35.83132 869.000
35.85126 812.000
35.87121 751.000
35.89116 722.000
35.91110 704.000
35.93105 700.000
35.95100 682.000
35.97094 661.000
35.99089 711.000
36.01084 662.000
36.03079 644.000
36.05073 655.000
36.07068 672.000
36.09063 607.000
36.11057 602.000
36.13052 676.000
36.15047 628.000
36.17041 628.000
36.19036 627.000
36.21031 602.000
36.23025 587.000
36.25020 559.000
36.27015 560.000
36.29010 615.000
36.31004 561.000
36.32999 640.000
36.34994 563.000
36.36988 575.000
36.38983 600.000
36.40978 553.000
36.42972 544.000
36.44967 604.000
36.46962 608.000
36.48957 620.000
36.50951 627.000
36.52946 581.000
36.54941 578.000
36.56935 611.000
36.58930 624.000
36.60925 552.000
36.62919 617.000
36.64914 642.000
36.66909 685.000
36.68903 638.000
36.70898 684.000
36.72893 709.000
36.74888 727.000
36.76882 765.000
36.78877 751.000
36.80872 815.000
36.82866 869.000
36.84861 899.000
36.86856 907.000
36.88850 935.000
36.90845 902.000
36.92840 945.000
36.94835 981.000
36.96829 1057.000
36.98824 952.000
37.00819 1001.000
37.02813 1070.000
37.04808 1018.000
37.06803 990.000
37.08797 989.000
37.10792 949.000
37.12787 936.000
37.14781 868.000
37.16776 834.000
37.18771 804.000
37.20766 789.000
37.22760 771.000
37.24755 660.000
37.26750 684.000
37.28744 661.000
37.30739 611.000
37.32734 606.000
37.34728 590.000
37.36723 594.000
37.38718 606.000
37.40713 620.000
37.42707 635.000
37.44702 614.000
37.46697 587.000
37.48691 585.000
37.50686 540.000
37.52681 570.000
37.54675 555.000
37.56670 603.000
37.58665 610.000
37.60660 586.000
37.62654 564.000
37.64649 626.000
37.66644 611.000
37.68638 619.000
37.70633 611.000
37.72628 618.000
37.74622 593.000
37.76617 611.000
37.78612 603.000
37.80606 606.000
37.82601 632.000
37.84596 664.000
37.86591 623.000
37.88585 667.000
37.90580 649.000
37.92575 692.000
37.94569 662.000
37.96564 685.000
37.98559 668.000
38.00553 725.000
38.02548 727.000
38.04543 681.000
38.06538 627.000
38.08532 680.000
38.10527 724.000
38.12522 748.000
38.14516 733.000
38.16511 751.000
38.18506 780.000
38.20500 815.000
38.22495 814.000
38.24490 828.000
38.26484 863.000
38.28479 929.000
38.30474 893.000
38.32469 969.000
38.34463 1070.000
38.36458 1196.000
38.38453 1236.000
38.40447 1346.000
38.42442 1468.000
38.44437 1581.000
38.46431 1713.000
38.48426 1997.000
38.50421 2142.000
38.52416 2415.000
38.54410 2744.000
38.56405 3149.000
38.58400 3360.000
38.60394 3735.000
38.62389 4071.000
38.64384 4059.000
38.66378 3966.000
38.68373 3813.000
38.70368 3470.000
38.72362 3283.000
38.74357 2887.000
38.76352 2722.000
38.78347 2361.000
38.80341 2112.000
38.82336 1805.000
38.84331 1745.000
38.86325 1559.000
38.88320 1549.000
38.90315 1531.000
38.92309 1494.000
38.94304 1479.000
38.96299 1485.000
38.98294 1542.000
39.00288 1521.000
39.02283 1435.000
39.04278 1320.000
39.06272 1212.000
39.08267 1140.000
39.10262 1050.000
39.12256 1019.000
39.14251 935.000
39.16246 872.000
39.18241 818.000
39.20235 822.000
39.22230 844.000
39.24225 767.000
39.26219 722.000
39.28214 783.000
39.30209 761.000
39.32203 709.000
39.34198 680.000
39.36193 748.000
39.38187 710.000
39.40182 648.000
39.42177 706.000
39.44172 667.000
39.46166 627.000
39.48161 653.000
39.50156 612.000
39.52150 613.000
39.54145 589.000
39.56140 562.000
39.58134 580.000
39.60129 561.000
39.62124 557.000
39.64119 581.000
39.66113 531.000
39.68108 545.000
39.70103 531.000
39.72097 544.000
39.74092 552.000
39.76087 536.000
39.78081 556.000
39.80076 595.000
39.82071 571.000
39.84065 538.000
39.86060 568.000
39.88055 556.000
39.90050 588.000
39.92044 522.000
39.94039 543.000
39.96034 582.000
39.98028 517.000
40.00023 557.000
40.02018 561.000
40.04012 535.000
40.06007 509.000
40.08002 510.000
40.09997 535.000
40.11991 534.000
40.13986 524.000
40.15981 543.000
40.17975 525.000
40.19970 533.000
40.21965 512.000
40.23959 526.000
40.25954 553.000
40.27949 530.000
40.29943 530.000
40.31938 561.000
40.33933 568.000
40.35928 507.000
40.37922 558.000
40.39917 536.000
40.41912 537.000
40.43906 518.000
40.45901 504.000
40.47896 491.000
40.49890 547.000
40.51885 526.000
40.53880 482.000
40.55875 518.000
40.57869 551.000
40.59864 541.000
40.61859 538.000
40.63853 490.000
40.65848 556.000
40.67843 554.000
40.69837 512.000
40.71832 506.000
40.73827 519.000
40.75822 514.000
40.77816 473.000
40.79811 505.000
40.81806 545.000
40.83800 530.000
40.85795 530.000
40.87790 564.000
40.89784 530.000
40.91779 580.000
40.93774 544.000
40.95768 542.000
40.97763 523.000
40.99758 545.000
41.01753 540.000
41.03747 468.000
41.05742 550.000
41.07737 559.000
41.09731 514.000
41.11726 519.000
41.13721 537.000
41.15715 504.000
41.17710 541.000
41.19705 550.000
41.21700 583.000
41.23694 596.000
41.25689 556.000
41.27684 539.000
41.29678 612.000
41.31673 564.000
41.33668 590.000
41.35662 615.000
41.37657 629.000
41.39652 659.000
41.41646 689.000
41.43641 656.000
41.45636 729.000
41.47631 733.000
41.49625 812.000
41.51620 895.000
41.53615 906.000
41.55609 1080.000
41.57604 1108.000
41.59599 1221.000
41.61593 1283.000
41.63588 1515.000
41.65583 1588.000
41.67578 1772.000
41.69572 1625.000
41.71567 1625.000
41.73562 1564.000
41.75556 1336.000
41.77551 1246.000
41.79546 1249.000
41.81540 1077.000
41.83535 986.000
41.85530 854.000
41.87524 804.000
41.89519 810.000
41.91514 706.000
41.93509 679.000
41.95503 609.000
41.97498 611.000
41.99493 619.000
42.01487 582.000
42.03482 589.000
42.05477 579.000
42.07471 567.000
42.09466 572.000
42.11461 599.000
42.13456 557.000
42.15450 530.000
42.17445 573.000
42.19440 542.000
42.21434 541.000
42.23429 509.000
42.25424 541.000
42.27418 545.000
42.29413 538.000
42.31408 541.000
42.33403 545.000
42.35397 577.000
42.37392 536.000
42.39387 526.000
42.41381 559.000
42.43376 547.000
42.45371 563.000
42.47365 512.000
42.49360 549.000
42.51355 561.000
42.53349 517.000
42.55344 564.000
42.57339 545.000
42.59334 531.000
42.61328 565.000
42.63323 545.000
42.65318 545.000
42.67312 570.000
42.69307 571.000
42.71302 594.000
42.73296 599.000
42.75291 577.000
42.77286 610.000
42.79281 586.000
42.81275 685.000
42.83270 650.000
42.85265 732.000
42.87259 690.000
42.89254 712.000
42.91249 752.000
42.93243 757.000
42.95238 798.000
42.97233 833.000
42.99227 911.000
43.01222 905.000
43.03217 909.000
43.05212 920.000
43.07206 872.000
43.09201 886.000
43.11196 912.000
43.13190 898.000
43.15185 865.000
43.17180 852.000
43.19174 755.000
43.21169 763.000
43.23164 753.000
43.25159 683.000
43.27153 700.000
43.29148 724.000
43.31143 690.000
43.33137 676.000
43.35132 640.000
43.37127 670.000
43.39121 611.000
43.41116 613.000
43.43111 633.000
43.45105 577.000
43.47100 602.000
43.49095 560.000
43.51090 573.000
43.53084 586.000
43.55079 589.000
43.57074 572.000
43.59068 511.000
43.61063 535.000
43.63058 547.000
43.65052 530.000
43.67047 512.000
43.69042 532.000
43.71037 560.000
43.73031 533.000
43.75026 521.000
43.77021 555.000
43.79015 485.000
43.81010 537.000
43.83005 503.000
43.84999 507.000
43.86994 524.000
43.88989 520.000
43.90984 535.000
43.92978 496.000
43.94973 526.000
43.96968 484.000
43.98962 534.000
44.00957 508.000
44.02952 477.000
44.04946 528.000
44.06941 560.000
44.08936 534.000
44.10930 477.000
44.12925 503.000
44.14920 481.000
44.16915 492.000
44.18909 492.000
44.20904 489.000
44.22899 500.000
44.24893 542.000
44.26888 483.000
44.28883 493.000
44.30877 478.000
44.32872 502.000
44.34867 520.000
44.36862 500.000
44.38856 485.000
44.40851 530.000
44.42846 470.000
44.44840 521.000
44.46835 468.000
44.48830 481.000
44.50824 508.000
44.52819 511.000
44.54814 529.000
44.56808 483.000
44.58803 475.000
44.60798 492.000
44.62793 500.000
44.64787 535.000
44.66782 518.000
44.68777 491.000
44.70771 493.000
44.72766 540.000
44.74761 524.000
44.76755 491.000
44.78750 512.000
44.80745 494.000
44.82740 538.000
44.84734 507.000
44.86729 494.000
44.88724 503.000
44.90718 510.000
44.92713 547.000
44.94708 529.000
44.96702 564.000
44.98697 560.000
45.00692 516.000
45.02686 532.000
45.04681 564.000
45.06676 584.000
45.08671 540.000
45.10665 552.000
45.12660 551.000
45.14655 490.000
45.16649 565.000
45.18644 543.000
45.20639 480.000
45.22633 526.000
45.24628 482.000
45.26623 551.000
45.28618 498.000
45.30612 514.000
45.32607 519.000
45.34602 481.000
45.36596 496.000
45.38591 461.000
45.40586 529.000
45.42580 544.000
45.44575 555.000
45.46570 493.000
45.48565 522.000
45.50559 493.000
45.52554 539.000
45.54549 554.000
45.56543 481.000
45.58538 492.000
45.60533 500.000
45.62527 458.000
45.64522 517.000
45.66517 502.000
45.68511 527.000
45.70506 484.000
45.72501 526.000
45.74496 534.000
45.76490 542.000
45.78485 467.000
45.80480 541.000
45.82474 534.000
45.84469 516.000
45.86464 510.000
45.88458 477.000
45.90453 474.000
45.92448 502.000
45.94443 524.000
45.96437 537.000
45.98432 546.000
46.00427 503.000
46.02421 517.000
46.04416 557.000
46.06411 544.000
46.08405 562.000
46.10400 535.000
46.12395 523.000
46.14389 544.000
46.16384 591.000
46.18379 605.000
46.20374 537.000
46.22368 607.000
46.24363 611.000
46.26358 587.000
46.28352 570.000
46.30347 583.000
46.32342 561.000
46.34336 567.000
46.36331 569.000
46.38326 546.000
46.40321 537.000
46.42315 541.000
46.44310 536.000
46.46305 498.000
46.48299 496.000
46.50294 526.000
46.52289 528.000
46.54283 504.000
46.56278 542.000
46.58273 548.000
46.60267 534.000
46.62262 504.000
46.64257 471.000
46.66252 552.000
46.68246 514.000
46.70241 529.000
46.72236 486.000
46.74230 494.000
46.76225 478.000
46.78220 528.000
46.80214 507.000
46.82209 450.000
46.84204 478.000
46.86199 521.000
46.88193 495.000
46.90188 569.000
46.92183 491.000
46.94177 499.000
46.96172 496.000
46.98167 532.000
47.00161 489.000
47.02156 485.000
47.04151 522.000
47.06146 516.000
47.08140 491.000
47.10135 539.000
47.12130 500.000
47.14124 504.000
47.16119 516.000
47.18114 549.000
47.20108 479.000
47.22103 477.000
47.24098 509.000
47.26092 489.000
47.28087 518.000
47.30082 494.000
47.32077 484.000
47.34071 517.000
47.36066 508.000
47.38061 467.000
47.40055 475.000
47.42050 502.000
47.44045 503.000
47.46039 490.000
47.48034 499.000
47.50029 513.000
47.52024 492.000
47.54018 560.000
47.56013 496.000
47.58008 511.000
47.60002 519.000
47.61997 540.000
47.63992 550.000
47.65986 544.000
47.67981 503.000
47.69976 524.000
47.71970 510.000
47.73965 545.000
47.75960 526.000
47.77955 516.000
47.79949 546.000
47.81944 504.000
47.83939 523.000
47.85933 502.000
47.87928 558.000
47.89923 514.000
47.91917 545.000
47.93912 574.000
47.95907 554.000
47.97902 556.000
47.99896 528.000
48.01891 597.000
48.03886 610.000
48.05880 507.000
48.07875 531.000
48.09870 552.000
48.11864 580.000
48.13859 542.000
48.15854 545.000
48.17848 567.000
48.19843 553.000
48.21838 578.000
48.23833 554.000
48.25827 559.000
48.27822 562.000
48.29817 558.000
48.31811 563.000
48.33806 534.000
48.35801 505.000
48.37795 577.000
48.39790 544.000
48.41785 533.000
48.43780 587.000
48.45774 577.000
48.47769 593.000
48.49764 595.000
48.51758 636.000
48.53753 665.000
48.55748 643.000
48.57742 714.000
48.59737 748.000
48.61732 805.000
48.63726 829.000
48.65721 897.000
48.67716 994.000
48.69711 1080.000
48.71705 1026.000
48.73700 1247.000
48.75695 1346.000
48.77689 1387.000
48.79684 1424.000
48.81679 1467.000
48.83673 1469.000
48.85668 1490.000
48.87663 1436.000
48.89658 1352.000
48.91652 1272.000
48.93647 1232.000
48.95642 1119.000
48.97636 1056.000
48.99631 1007.000
49.01626 982.000
49.03620 895.000
49.05615 840.000
49.07610 799.000
49.09605 735.000
49.11599 698.000
49.13594 717.000
49.15589 638.000
49.17583 646.000
49.19578 636.000
49.21573 604.000
49.23567 623.000
49.25562 589.000
49.27557 584.000
49.29551 614.000
49.31546 641.000
49.33541 626.000
49.35536 590.000
49.37530 602.000
49.39525 575.000
49.41520 629.000
49.43514 609.000
49.45509 568.000
49.47504 595.000
49.49498 603.000
49.51493 580.000
49.53488 635.000
49.55483 533.000
49.57477 529.000
49.59472 569.000
49.61467 555.000
49.63461 559.000
49.65456 574.000
49.67451 521.000
49.69445 541.000
49.71440 564.000
49.73435 541.000
49.75429 518.000
49.77424 535.000
49.79419 501.000
49.81414 550.000
49.83408 542.000
49.85403 492.000
49.87398 528.000
49.89392 525.000
49.91387 499.000
49.93382 527.000
49.95376 529.000
49.97371 531.000
49.99366 524.000
50.01361 483.000
50.03355 485.000
50.05350 478.000
50.07345 515.000
50.09339 522.000
50.11334 513.000
50.13329 479.000
50.15323 559.000
50.17318 502.000
50.19313 473.000
50.21307 565.000
50.23302 514.000
50.25297 513.000
50.27292 523.000
50.29286 489.000
50.31281 531.000
50.33276 580.000
50.35270 513.000
50.37265 491.000
50.39260 466.000
50.41254 508.000
50.43249 474.000
50.45244 484.000
50.47239 433.000
50.49233 508.000
50.51228 552.000
50.53223 503.000
50.55217 539.000
50.57212 545.000
50.59207 477.000
50.61201 511.000
50.63196 533.000
50.65191 499.000
50.67186 520.000
50.69180 465.000
50.71175 516.000
50.73170 546.000
50.75164 502.000
50.77159 496.000
50.79154 542.000
50.81148 525.000
50.83143 529.000
50.85138 514.000
50.87132 524.000
50.89127 513.000
50.91122 481.000
50.93117 518.000
50.95111 524.000
50.97106 518.000
50.99101 537.000
51.01095 568.000
51.03090 488.000
51.05085 521.000
51.07079 482.000
51.09074 514.000
51.11069 536.000
51.13064 469.000
51.15058 530.000
51.17053 549.000
51.19048 556.000
51.21042 537.000
51.23037 560.000
51.25032 552.000
51.27026 555.000
51.29021 581.000
51.31016 522.000
51.33010 592.000
51.35005 586.000
51.37000 506.000
51.38995 581.000
51.40989 497.000
51.42984 546.000
51.44979 528.000
51.46973 520.000
51.48968 506.000
51.50963 541.000
51.52957 535.000
51.54952 492.000
51.56947 507.000
51.58942 472.000
51.60936 530.000
51.62931 484.000
51.64926 545.000
51.66920 534.000
51.68915 589.000
51.70910 543.000
51.72904 460.000
51.74899 502.000
51.76894 516.000
51.78888 529.000
51.80883 505.000
51.82878 520.000
51.84873 510.000
51.86867 526.000
51.88862 507.000
51.90857 514.000
51.92851 541.000
51.94846 552.000
51.96841 515.000
51.98835 553.000
52.00830 529.000
52.02825 566.000
52.04820 557.000
52.06814 515.000
52.08809 577.000
52.10804 532.000
52.12798 567.000
52.14793 514.000
52.16788 549.000
52.18782 535.000
52.20777 544.000
52.22772 568.000
52.24767 526.000
52.26761 547.000
52.28756 504.000
52.30751 512.000
52.32745 537.000
52.34740 498.000
52.36735 532.000
52.38729 510.000
52.40724 523.000
52.42719 510.000
52.44713 561.000
52.46708 518.000
52.48703 508.000
52.50698 545.000
52.52692 510.000
52.54687 521.000
52.56682 551.000
52.58676 496.000
52.60671 574.000
52.62666 514.000
52.64660 552.000
52.66655 503.000
52.68650 522.000
52.70645 569.000
52.72639 575.000
52.74634 491.000
52.76629 549.000
52.78623 559.000
52.80618 561.000
52.82613 570.000
52.84607 581.000
52.86602 568.000
52.88597 583.000
52.90591 542.000
52.92586 582.000
52.94581 563.000
52.96576 658.000
52.98570 656.000
53.00565 723.000
53.02560 732.000
53.04554 758.000
53.06549 807.000
53.08544 794.000
53.10538 759.000
53.12533 773.000
53.14528 735.000
53.16523 827.000
53.18517 796.000
53.20512 865.000
53.22507 789.000
53.24501 766.000
53.26496 779.000
53.28491 808.000
53.30485 794.000
53.32480 754.000
53.34475 721.000
53.36469 719.000
53.38464 704.000
53.40459 716.000
53.42454 734.000
53.44448 716.000
53.46443 677.000
53.48438 662.000
53.50432 670.000
53.52427 662.000
53.54422 616.000
53.56416 653.000
53.58411 585.000
53.60406 571.000
53.62401 567.000
53.64395 570.000
53.66390 579.000
53.68385 582.000
53.70379 558.000
53.72374 575.000
53.74369 522.000
53.76363 579.000
53.78358 539.000
53.80353 531.000
53.82348 549.000
53.84342 542.000
53.86337 553.000
53.88332 522.000
53.90326 475.000
53.92321 512.000
53.94316 544.000
53.96310 510.000
53.98305 475.000
54.00300 473.000
54.02294 509.000
54.04289 527.000
54.06284 503.000
54.08279 512.000
54.10273 519.000
54.12268 519.000
54.14263 548.000
54.16257 519.000
54.18252 487.000
54.20247 503.000
54.22241 516.000
54.24236 553.000
54.26231 525.000
54.28226 501.000
54.30220 520.000
54.32215 525.000
54.34210 538.000
54.36204 558.000
54.38199 536.000
54.40194 470.000
54.42188 515.000
54.44183 488.000
54.46178 492.000
54.48172 541.000
54.50167 490.000
54.52162 511.000
54.54157 532.000
54.56151 487.000
54.58146 520.000
54.60141 495.000
54.62135 472.000
54.64130 491.000
54.66125 518.000
54.68119 492.000
54.70114 451.000
54.72109 468.000
54.74104 553.000
54.76098 476.000
54.78093 477.000
54.80088 510.000
54.82082 483.000
54.84077 518.000
54.86072 492.000
54.88066 521.000
54.90061 481.000
54.92056 480.000
54.94050 496.000
54.96045 476.000
54.98040 502.000
55.00035 469.000
55.02029 529.000
55.04024 532.000
55.06019 532.000
55.08013 497.000
55.10008 490.000
55.12003 479.000
55.13997 522.000
55.15992 471.000
55.17987 520.000
55.19982 535.000
55.21976 485.000
55.23971 489.000
55.25966 494.000
55.27960 495.000
55.29955 479.000
55.31950 468.000
55.33944 509.000
55.35939 524.000
55.37934 504.000
55.39929 515.000
55.41923 491.000
55.43918 464.000
55.45913 501.000
55.47907 502.000
55.49902 511.000
55.51897 461.000
55.53891 482.000
55.55886 471.000
55.57881 501.000
55.59875 488.000
55.61870 503.000
55.63865 519.000
55.65860 546.000
55.67854 528.000
55.69849 496.000
55.71844 478.000
55.73838 522.000
55.75833 528.000
55.77828 552.000
55.79822 507.000
55.81817 527.000
55.83812 507.000
55.85807 498.000
55.87801 526.000
55.89796 535.000
55.91791 475.000
55.93785 509.000
55.95780 489.000
55.97775 448.000
55.99769 510.000
56.01764 531.000
56.03759 496.000
56.05753 541.000
56.07748 503.000
56.09743 524.000
56.11738 524.000
56.13732 557.000
56.15727 547.000
56.17722 508.000
56.19716 506.000
56.21711 519.000
56.23706 484.000
56.25700 486.000
56.27695 523.000
56.29690 465.000
56.31685 477.000
56.33679 569.000
56.35674 524.000
56.37669 512.000
56.39663 539.000
56.41658 526.000
56.43653 531.000
56.45647 493.000
56.47642 504.000
56.49637 492.000
56.51631 534.000
56.53626 519.000
56.55621 539.000
56.57616 528.000
56.59610 542.000
56.61605 514.000
56.63600 566.000
56.65594 543.000
56.67589 577.000
56.69584 524.000
56.71578 536.000
56.73573 508.000
56.75568 520.000
56.77563 528.000
56.79557 495.000
56.81552 557.000
56.83547 527.000
56.85541 518.000
56.87536 515.000
56.89531 505.000
56.91525 520.000
56.93520 552.000
56.95515 536.000
56.97510 513.000
56.99504 553.000
57.01499 534.000
57.03494 541.000
57.05488 528.000
57.07483 492.000
57.09478 544.000
57.11472 517.000
57.13467 524.000
57.15462 536.000
57.17456 559.000
57.19451 544.000
57.21446 552.000
57.23441 551.000
57.25435 529.000
57.27430 534.000
57.29425 565.000
57.31419 538.000
57.33414 559.000
57.35409 563.000
57.37403 560.000
57.39398 550.000
57.41393 554.000
57.43388 621.000
57.45382 552.000
57.47377 578.000
57.49372 580.000
57.51366 592.000
57.53361 645.000
57.55356 637.000
57.57350 645.000
57.59345 634.000
57.61340 654.000
57.63334 699.000
57.65329 739.000
57.67324 789.000
57.69319 735.000
57.71313 780.000
57.73308 721.000
57.75303 747.000
57.77297 724.000
57.79292 740.000
57.81287 702.000
57.83281 692.000
57.85276 674.000
57.87271 672.000
57.89266 697.000
57.91260 658.000
57.93255 595.000
57.95250 696.000
57.97244 640.000
57.99239 689.000
58.01234 676.000
58.03228 704.000
58.05223 742.000
58.07218 686.000
58.09212 756.000
58.11207 826.000
58.13202 856.000
58.15197 857.000
58.17191 917.000
58.19186 917.000
58.21181 941.000
58.23175 955.000
58.25170 1000.000
58.27165 887.000
58.29159 921.000
58.31154 798.000
58.33149 829.000
58.35144 844.000
58.37138 856.000
58.39133 760.000
58.41128 784.000
58.43122 759.000
58.45117 660.000
58.47112 654.000
58.49106 617.000
58.51101 602.000
58.53096 612.000
58.55090 627.000
58.57085 605.000
58.59080 549.000
58.61075 550.000
58.63069 561.000
58.65064 523.000
58.67059 567.000
58.69053 541.000
58.71048 538.000
58.73043 548.000
58.75037 468.000
58.77032 510.000
58.79027 478.000
58.81022 551.000
58.83016 517.000
58.85011 506.000
58.87006 515.000
58.89000 492.000
58.90995 527.000
58.92990 529.000
58.94984 532.000
58.96979 530.000
58.98974 511.000
59.00969 510.000
59.02963 565.000
59.04958 532.000
59.06953 532.000
59.08947 526.000
59.10942 523.000
59.12937 506.000
59.14931 527.000
59.16926 491.000
59.18921 474.000
59.20915 532.000
59.22910 485.000
59.24905 490.000
59.26900 504.000
59.28894 514.000
59.30889 486.000
59.32884 534.000
59.34878 483.000
59.36873 532.000
59.38868 557.000
59.40862 496.000
59.42857 510.000
59.44852 506.000
59.46847 522.000
59.48841 532.000
59.50836 500.000
59.52831 531.000
59.54825 489.000
59.56820 542.000
59.58815 514.000
59.60809 527.000
59.62804 504.000
59.64799 539.000
59.66793 539.000
59.68788 496.000
59.70783 502.000
59.72778 479.000
59.74772 489.000
59.76767 539.000
59.78762 528.000
59.80756 515.000
59.82751 511.000
59.84746 514.000
59.86740 503.000
59.88735 495.000
59.90730 535.000
59.92725 475.000
59.94719 566.000
59.96714 498.000
59.98709 531.000
60.00703 491.000
60.02698 539.000
60.04693 500.000
60.06687 504.000
60.08682 493.000
60.10677 501.000
60.12671 549.000
60.14666 516.000
60.16661 496.000
60.18656 493.000
60.20650 503.000
60.22645 477.000
60.24640 583.000
60.26634 512.000
60.28629 546.000
60.30624 528.000
60.32618 546.000
60.34613 524.000
60.36608 531.000
60.38603 498.000
60.40597 522.000
60.42592 525.000
60.44587 479.000
60.46581 512.000
60.48576 535.000
60.50571 515.000
60.52565 519.000
60.54560 492.000
60.56555 482.000
60.58550 535.000
60.60544 506.000
60.62539 496.000
60.64534 518.000
60.66528 534.000
60.68523 534.000
60.70518 540.000
60.72512 537.000
60.74507 566.000
60.76502 520.000
60.78496 526.000
60.80491 520.000
60.82486 544.000
60.84481 539.000
60.86475 545.000
60.88470 509.000
60.90465 559.000
60.92459 528.000
60.94454 544.000
60.96449 509.000
60.98443 565.000
61.00438 523.000
61.02433 549.000
61.04428 540.000
61.06422 584.000
61.08417 546.000
61.10412 554.000
61.12406 555.000
61.14401 605.000
61.16396 561.000
61.18390 592.000
61.20385 570.000
61.22380 587.000
61.24374 627.000
61.26369 639.000
61.28364 660.000
61.30359 632.000
61.32353 713.000
61.34348 760.000
61.36343 794.000
61.38337 832.000
61.40332 857.000
61.42327 895.000
61.44321 998.000
61.46316 986.000
61.48311 1123.000
61.50306 1187.000
61.52300 1159.000
61.54295 1157.000
61.56290 1145.000
61.58284 1105.000
61.60279 1130.000
61.62274 985.000
61.64268 1005.000
61.66263 971.000
61.68258 1007.000
61.70252 948.000
61.72247 941.000
61.74242 844.000
61.76237 793.000
61.78231 803.000
61.80226 728.000
61.82221 718.000
61.84215 695.000
61.86210 651.000
61.88205 672.000
61.90199 635.000
61.92194 604.000
61.94189 618.000
61.96184 617.000
61.98178 627.000
62.00173 639.000
62.02168 614.000
62.04162 601.000
62.06157 608.000
62.08152 634.000
62.10146 642.000
62.12141 609.000
62.14136 634.000
62.16131 597.000
62.18125 610.000
62.20120 591.000
62.22115 600.000
62.24109 606.000
62.26104 625.000
62.28099 637.000
62.30093 619.000
62.32088 695.000
62.34083 654.000
62.36077 654.000
62.38072 649.000
62.40067 672.000
62.42062 699.000
62.44056 676.000
62.46051 735.000
62.48046 647.000
62.50040 710.000
62.52035 735.000
62.54030 697.000
62.56024 714.000
62.58019 718.000
62.60014 741.000
62.62009 681.000
62.64003 698.000
62.65998 652.000
62.67993 687.000
62.69987 648.000
62.71982 682.000
62.73977 648.000
62.75971 660.000
62.77966 621.000
62.79961 620.000
62.81955 680.000
62.83950 631.000
62.85945 660.000
62.87940 711.000
62.89934 680.000
62.91929 664.000
62.93924 666.000
62.95918 667.000
62.97913 670.000
62.99908 657.000
63.01902 669.000
63.03897 706.000
63.05892 679.000
63.07887 636.000
63.09881 654.000
63.11876 697.000
63.13871 645.000
63.15865 654.000
63.17860 633.000
63.19855 624.000
63.21849 635.000
63.23844 643.000
63.25839 669.000
63.27833 642.000
63.29828 650.000
63.31823 595.000
63.33818 602.000
63.35812 558.000
63.37807 635.000
63.39802 633.000
63.41796 639.000
63.43791 562.000
63.45786 590.000
63.47780 559.000
63.49775 572.000
63.51770 521.000
63.53765 568.000
63.55759 558.000
63.57754 541.000
63.59749 514.000
63.61743 585.000
63.63738 553.000
63.65733 544.000
63.67727 554.000
63.69722 558.000
63.71717 554.000
63.73712 554.000
63.75706 548.000
63.77701 550.000
63.79696 529.000
63.81690 551.000
63.83685 565.000
63.85680 517.000
63.87674 530.000
63.89669 535.000
63.91664 549.000
63.93658 566.000
63.95653 516.000
63.97648 530.000
63.99643 525.000
64.01637 567.000
64.03632 538.000
64.05627 523.000
64.07621 545.000
64.09616 516.000
64.11611 550.000
64.13605 558.000
64.15600 532.000
64.17595 565.000
64.19590 566.000
64.21584 555.000
64.23579 530.000
64.25574 535.000
64.27568 582.000
64.29563 555.000
64.31558 541.000
64.33552 537.000
64.35547 554.000
64.37542 595.000
64.39536 547.000
64.41531 529.000
64.43526 563.000
64.45521 560.000
64.47515 525.000
64.49510 520.000
64.51505 523.000
64.53499 571.000
64.55494 562.000
64.57489 514.000
64.59483 555.000
64.61478 544.000
64.63473 551.000
64.65468 535.000
64.67462 508.000
64.69457 537.000
64.71452 510.000
64.73446 541.000
64.75441 540.000
64.77436 545.000
64.79430 531.000
64.81425 535.000
64.83420 542.000
64.85414 567.000
64.87409 489.000
64.89404 524.000
64.91399 575.000
64.93393 530.000
64.95388 518.000
64.97383 565.000
64.99377 509.000
65.01372 559.000
65.03367 546.000
65.05361 537.000
65.07356 536.000
65.09351 567.000
65.11346 553.000
65.13340 539.000
65.15335 578.000
65.17330 541.000
65.19324 576.000
65.21319 609.000
65.23314 572.000
65.25308 619.000
65.27303 578.000
65.29298 601.000
65.31293 621.000
65.33287 617.000
65.35282 631.000
65.37277 647.000
65.39271 659.000
65.41266 679.000
65.43261 685.000
65.45255 689.000
65.47250 794.000
65.49245 801.000
65.51239 786.000
65.53234 780.000
65.55229 872.000
65.57224 902.000
65.59218 897.000
65.61213 920.000
65.63208 874.000
65.65202 932.000
65.67197 930.000
65.69192 870.000
65.71186 903.000
65.73181 891.000
65.75176 881.000
65.77171 893.000
65.79165 900.000
65.81160 812.000
65.83155 888.000
65.85149 739.000
65.87144 760.000
65.89139 751.000
65.91133 763.000
65.93128 723.000
65.95123 742.000
65.97117 727.000
65.99112 702.000
66.01107 811.000
66.03102 713.000
66.05096 707.000
66.07091 670.000
66.09086 693.000
66.11080 682.000
66.13075 712.000
66.15070 776.000
66.17064 810.000
66.19059 789.000
66.21054 851.000
66.23049 871.000
66.25043 882.000
66.27038 1022.000
66.29033 937.000
66.31027 1012.000
66.33022 1022.000
66.35017 971.000
66.37011 943.000
66.39006 967.000
66.41001 928.000
66.42995 896.000
66.44990 894.000
66.46985 853.000
66.48980 846.000
66.50974 811.000
66.52969 839.000
66.54964 777.000
66.56958 751.000
66.58953 742.000
66.60948 757.000
66.62942 670.000
66.64937 711.000
66.66932 657.000
66.68927 642.000
66.70921 615.000
66.72916 597.000
66.74911 598.000
66.76905 599.000
66.78900 592.000
66.80895 616.000
66.82889 591.000
66.84884 581.000
66.86879 613.000
66.88874 593.000
66.90868 557.000
66.92863 564.000
66.94858 571.000
66.96852 597.000
66.98847 580.000
67.00842 536.000
67.02836 598.000
67.04831 572.000
67.06826 562.000
67.08820 612.000
67.10815 562.000
67.12810 611.000
67.14805 552.000
67.16799 533.000
67.18794 551.000
67.20789 555.000
67.22783 518.000
67.24778 558.000
67.26773 556.000
67.28767 553.000
67.30762 570.000
67.32757 565.000
67.34752 562.000
67.36746 568.000
67.38741 617.000
67.40736 596.000
67.42730 605.000
67.44725 602.000
67.46720 563.000
67.48714 609.000
67.50709 596.000
67.52704 623.000
67.54698 624.000
67.56693 610.000
67.58688 627.000
67.60683 673.000
67.62677 722.000
67.64672 724.000
67.66667 776.000
67.68661 724.000
67.70656 786.000
67.72651 801.000
67.74645 874.000
67.76640 848.000
67.78635 880.000
67.80630 880.000
67.82624 945.000
67.84619 909.000
67.86614 927.000
67.88608 991.000
67.90603 1022.000
67.92598 1016.000
67.94592 981.000
67.96587 1065.000
67.98582 1010.000
68.00576 1002.000
68.02571 1040.000
68.04566 1007.000
68.06561 947.000
68.08555 908.000
68.10550 910.000
68.12545 886.000
68.14539 867.000
68.16534 803.000
68.18529 815.000
68.20523 773.000
68.22518 749.000
68.24513 792.000
68.26508 720.000
68.28502 713.000
68.30497 682.000
68.32492 656.000
68.34486 627.000
68.36481 642.000
68.38476 568.000
68.40470 575.000
68.42465 593.000
68.44460 561.000
68.46455 598.000
68.48449 509.000
68.50444 567.000
68.52439 557.000
68.54433 549.000
68.56428 524.000
68.58423 544.000
68.60417 526.000
68.62412 557.000
68.64407 539.000
68.66401 543.000
68.68396 532.000
68.70391 495.000
68.72386 578.000
68.74380 527.000
68.76375 579.000
68.78370 562.000
68.80364 526.000
68.82359 546.000
68.84354 570.000
68.86348 546.000
68.88343 538.000
68.90338 529.000
68.92333 449.000
68.94327 504.000
68.96322 562.000
68.98317 489.000
69.00311 541.000
69.02306 510.000
69.04301 506.000
69.06295 515.000
69.08290 528.000
69.10285 521.000
69.12279 558.000
69.14274 512.000
69.16269 464.000
69.18264 527.000
69.20258 576.000
69.22253 501.000
69.24248 507.000
69.26242 523.000
69.28237 507.000
69.30232 511.000
69.32226 540.000
69.34221 482.000
69.36216 536.000
69.38211 499.000
69.40205 505.000
69.42200 500.000
69.44195 491.000
69.46189 514.000
69.48184 510.000
69.50179 470.000
69.52173 517.000
69.54168 534.000
69.56163 469.000
69.58157 467.000
69.60152 513.000
69.62147 494.000
69.64142 500.000
69.66136 483.000
69.68131 519.000
69.70126 482.000
69.72120 472.000
69.74115 504.000
69.76110 515.000
69.78104 492.000
69.80099 523.000
69.82094 473.000
69.84089 521.000
69.86083 527.000
69.88078 475.000
69.90073 502.000
69.92067 505.000
69.94062 478.000
69.96057 498.000
69.98051 534.000
70.00046 492.000
70.02041 512.000
70.04035 478.000
70.06030 503.000
70.08025 526.000
70.10020 546.000
70.12014 495.000
70.14009 467.000
70.16004 508.000
70.17998 499.000
70.19993 461.000
70.21988 493.000
70.23982 499.000
70.25977 487.000
70.27972 512.000
70.29967 503.000
70.31961 528.000
70.33956 498.000
70.35951 536.000
70.37945 529.000
70.39940 527.000
70.41935 533.000
70.43929 503.000
70.45924 525.000
70.47919 500.000
70.49914 546.000
70.51908 477.000
70.53903 488.000
70.55898 523.000
70.57892 448.000
70.59887 533.000
70.61882 466.000
70.63876 466.000
70.65871 515.000
70.67866 504.000
70.69860 536.000
70.71855 504.000
70.73850 517.000
70.75845 467.000
70.77839 521.000
70.79834 512.000
70.81829 506.000
70.83823 479.000
70.85818 496.000
70.87813 509.000
70.89807 496.000
70.91802 537.000
70.93797 516.000
70.95792 515.000
70.97786 500.000
70.99781 522.000
71.01776 485.000
71.03770 488.000
71.05765 492.000
71.07760 503.000
71.09754 503.000
71.11749 476.000
71.13744 493.000
71.15738 503.000
71.17733 511.000
71.19728 519.000
71.21723 520.000
71.23717 483.000
71.25712 471.000
71.27707 510.000
71.29701 501.000
71.31696 469.000
71.33691 535.000
71.35685 524.000
71.37680 496.000
71.39675 493.000
71.41670 493.000
71.43664 488.000
71.45659 492.000
71.47654 527.000
71.49648 504.000
71.51643 498.000
71.53638 516.000
71.55632 532.000
71.57627 511.000
71.59622 502.000
71.61616 541.000
71.63611 509.000
71.65606 535.000
71.67601 510.000
71.69595 527.000
71.71590 513.000
71.73585 505.000
71.75579 519.000
71.77574 524.000
71.79569 490.000
71.81563 513.000
71.83558 500.000
71.85553 551.000
71.87548 478.000
71.89542 532.000
71.91537 498.000
71.93532 530.000
71.95526 520.000
71.97521 550.000
71.99516 548.000
72.01510 511.000
72.03505 550.000
72.05500 556.000
72.07495 517.000
72.09489 541.000
72.11484 566.000
72.13479 541.000
72.15473 577.000
72.17468 541.000
72.19463 601.000
72.21457 622.000
72.23452 643.000
72.25447 629.000
72.27441 641.000
72.29436 633.000
72.31431 615.000
72.33426 668.000
72.35420 701.000
72.37415 693.000
72.39410 743.000
72.41404 634.000
72.43399 693.000
72.45394 672.000
72.47388 689.000
72.49383 664.000
72.51378 633.000
72.53373 644.000
72.55367 653.000
72.57362 660.000
72.59357 670.000
72.61351 607.000
72.63346 599.000
72.65341 622.000
72.67335 585.000
72.69330 566.000
72.71325 587.000
72.73319 581.000
72.75314 605.000
72.77309 566.000
72.79304 597.000
72.81298 559.000
72.83293 580.000
72.85288 617.000
72.87282 571.000
72.89277 586.000
72.91272 574.000
72.93266 571.000
72.95261 600.000
72.97256 560.000
72.99251 616.000
73.01245 541.000
73.03240 576.000
73.05235 560.000
73.07229 556.000
73.09224 563.000
73.11219 550.000
73.13213 531.000
73.15208 519.000
73.17203 585.000
73.19197 547.000
73.21192 600.000
73.23187 562.000
73.25182 514.000
73.27176 527.000
73.29171 556.000
73.31166 568.000
73.33160 552.000
73.35155 526.000
73.37150 524.000
73.39144 523.000
73.41139 522.000
73.43134 580.000
73.45129 574.000
73.47123 539.000
73.49118 524.000
73.51113 557.000
73.53107 544.000
73.55102 563.000
73.57097 565.000
73.59091 538.000
73.61086 506.000
73.63081 576.000
73.65076 553.000
73.67070 538.000
73.69065 530.000
73.71060 565.000
73.73054 554.000
73.75049 527.000
73.77044 588.000
73.79038 519.000
73.81033 544.000
73.83028 524.000
73.85022 542.000
73.87017 493.000
73.89012 524.000
73.91007 536.000
73.93001 496.000
73.94996 520.000
73.96991 464.000
73.98985 527.000
74.00980 548.000
74.02975 536.000
74.04969 490.000
74.06964 493.000
74.08959 506.000
74.10954 535.000
74.12948 552.000
74.14943 497.000
74.16938 504.000
74.18932 474.000
74.20927 547.000
74.22922 529.000
74.24916 488.000
74.26911 502.000
74.28906 502.000
74.30900 536.000
74.32895 506.000
74.34890 468.000
74.36885 493.000
74.38879 526.000
74.40874 546.000
74.42869 473.000
74.44863 552.000
74.46858 563.000
74.48853 526.000
74.50847 563.000
74.52842 545.000
74.54837 535.000
74.56832 576.000
74.58826 542.000
74.60821 517.000
74.62816 557.000
74.64810 559.000
74.66805 567.000
74.68800 544.000
74.70794 573.000
74.72789 621.000
74.74784 578.000
74.76778 613.000
74.78773 690.000
74.80768 673.000
74.82763 672.000
74.84757 680.000
74.86752 710.000
74.88747 723.000
74.90741 705.000
74.92736 790.000
74.94731 744.000
74.96725 763.000
74.98720 755.000
75.00715 743.000
75.02710 708.000
75.04704 781.000
75.06699 741.000
75.08694 757.000
75.10688 739.000
75.12683 812.000
75.14678 742.000
75.16672 750.000
75.18667 698.000
75.20662 775.000
75.22657 734.000
75.24651 741.000
75.26646 755.000
75.28641 678.000
75.30635 697.000
75.32630 648.000
75.34625 614.000
75.36619 652.000
75.38614 650.000
75.40609 651.000
75.42603 641.000
75.44598 569.000
75.46593 569.000
75.48588 586.000
75.50582 613.000
75.52577 616.000
75.54572 584.000
75.56566 577.000
75.58561 526.000
75.60556 568.000
75.62550 563.000
75.64545 551.000
75.66540 555.000
75.68535 520.000
75.70529 567.000
75.72524 577.000
75.74519 534.000
75.76513 540.000
75.78508 529.000
75.80503 504.000
75.82497 512.000
75.84492 546.000
75.86487 491.000
75.88481 501.000
75.90476 504.000
75.92471 494.000
75.94466 500.000
75.96460 550.000
75.98455 479.000
76.00450 500.000
76.02444 501.000
76.04439 517.000
76.06434 521.000
76.08428 501.000
76.10423 484.000
76.12418 511.000
76.14413 496.000
76.16407 456.000
76.18402 482.000
76.20397 490.000
76.22391 580.000
76.24386 532.000
76.26381 509.000
76.28375 519.000
76.30370 517.000
76.32365 518.000
76.34359 526.000
76.36354 477.000
76.38349 492.000
76.40344 488.000
76.42338 501.000
76.44333 501.000
76.46328 495.000
76.48322 512.000
76.50317 499.000
76.52312 521.000
76.54306 496.000
76.56301 473.000
76.58296 484.000
76.60291 482.000
76.62285 530.000
76.64280 472.000
76.66275 525.000
76.68269 489.000
76.70264 530.000
76.72259 518.000
76.74253 467.000
76.76248 485.000
76.78243 501.000
76.80238 539.000
76.82232 484.000
76.84227 524.000
76.86222 494.000
76.88216 494.000
76.90211 489.000
76.92206 494.000
76.94200 482.000
76.96195 484.000
76.98190 513.000
77.00184 523.000
77.02179 521.000
77.04174 506.000
77.06169 513.000
77.08163 458.000
77.10158 492.000
77.12153 515.000
77.14147 464.000
77.16142 460.000
77.18137 494.000
77.20131 459.000
77.22126 501.000
77.24121 481.000
77.26116 477.000
77.28110 493.000
77.30105 501.000
77.32100 525.000
77.34094 489.000
77.36089 483.000
77.38084 493.000
77.40078 484.000
77.42073 493.000
77.44068 512.000
77.46062 440.000
77.48057 477.000
77.50052 470.000
77.52047 523.000
77.54041 485.000
77.56036 482.000
77.58031 493.000
77.60025 523.000
77.62020 516.000
77.64015 516.000
77.66009 501.000
77.68004 485.000
77.69999 506.000
77.71994 501.000
77.73988 498.000
77.75983 453.000
77.77978 495.000
77.79972 510.000
77.81967 482.000
77.83962 487.000
77.85956 528.000
77.87951 497.000
77.89946 488.000
77.91940 516.000
77.93935 502.000
77.95930 513.000
77.97925 506.000
77.99919 494.000
78.01914 547.000
78.03909 492.000
78.05903 535.000
78.07898 522.000
78.09893 510.000
78.11887 512.000
78.13882 507.000
78.15877 518.000
78.17872 489.000
78.19866 510.000
78.21861 503.000
78.23856 539.000
78.25850 525.000
78.27845 511.000
78.29840 535.000
78.31834 506.000
78.33829 543.000
78.35824 556.000
78.37819 526.000
78.39813 544.000
78.41808 551.000
78.43803 587.000
78.45797 549.000
78.47792 599.000
78.49787 558.000
78.51781 565.000
78.53776 534.000
78.55771 549.000
78.57765 511.000
78.59760 551.000
78.61755 576.000
78.63750 519.000
78.65744 569.000
78.67739 547.000
78.69734 593.000
78.71728 540.000
78.73723 561.000
78.75718 558.000
78.77712 527.000
78.79707 532.000
78.81702 518.000
78.83697 556.000
78.85691 588.000
78.87686 520.000
78.89681 561.000
78.91675 569.000
78.93670 502.000
78.95665 583.000
78.97659 536.000
78.99654 515.000
79.01649 545.000
79.03643 563.000
79.05638 512.000
79.07633 530.000
79.09628 522.000
79.11622 540.000
79.13617 544.000
79.15612 536.000
79.17606 556.000
79.19601 538.000
79.21596 497.000
79.23590 504.000
79.25585 528.000
79.27580 526.000
79.29575 489.000
79.31569 521.000
79.33564 556.000
79.35559 516.000
79.37553 512.000
79.39548 531.000
79.41543 510.000
79.43537 522.000
79.45532 529.000
79.47527 449.000
79.49521 470.000
79.51516 513.000
79.53511 480.000
79.55506 488.000
79.57500 508.000
79.59495 482.000
79.61490 485.000
79.63484 484.000
79.65479 487.000
79.67474 455.000
79.69468 505.000
79.71463 525.000
79.73458 453.000
79.75453 504.000
79.77447 461.000
79.79442 523.000
79.81437 494.000
79.83431 474.000
79.85426 497.000
79.87421 458.000
79.89415 506.000
79.91410 512.000
79.93405 515.000
79.95399 536.000
79.97394 490.000
79.99389 510.000
80.01384 511.000
80.03378 515.000
80.05373 516.000
80.07368 497.000
80.09362 522.000
80.11357 552.000
80.13352 540.000
80.15346 516.000
80.17341 548.000
80.19336 568.000
80.21331 538.000
80.23325 593.000
80.25320 542.000
80.27315 499.000
80.29309 591.000
80.31304 586.000
80.33299 564.000
80.35293 538.000
80.37288 460.000
80.39283 530.000
80.41278 555.000
80.43272 498.000
80.45267 558.000
80.47262 535.000
80.49256 537.000
80.51251 567.000
80.53246 479.000
80.55240 546.000
80.57235 501.000
80.59230 509.000
80.61224 502.000
80.63219 526.000
80.65214 531.000
80.67209 481.000
80.69203 502.000
80.71198 529.000
80.73193 503.000
80.75187 493.000
80.77182 517.000
80.79177 509.000
80.81171 480.000
80.83166 504.000
80.85161 473.000
80.87156 477.000
80.89150 514.000
80.91145 495.000
80.93140 493.000
80.95134 501.000
80.97129 508.000
80.99124 501.000
81.01118 476.000
81.03113 517.000
81.05108 537.000
81.07102 480.000
81.09097 465.000
81.11092 509.000
81.13087 518.000
81.15081 518.000
81.17076 503.000
81.19071 461.000
81.21065 467.000
81.23060 532.000
81.25055 514.000
81.27049 490.000
81.29044 539.000
81.31039 498.000
81.33034 527.000
81.35028 506.000
81.37023 510.000
81.39018 494.000
81.41012 486.000
81.43007 507.000
81.45002 525.000
81.46996 466.000
81.48991 490.000
81.50986 502.000
81.52980 511.000
81.54975 506.000
81.56970 499.000
81.58965 472.000
81.60959 536.000
81.62954 493.000
81.64949 510.000
81.66943 488.000
81.68938 479.000
81.70933 519.000
81.72927 507.000
81.74922 542.000
81.76917 536.000
81.78912 501.000
81.80906 489.000
81.82901 506.000
81.84896 540.000
81.86890 508.000
81.88885 494.000
81.90880 542.000
81.92874 518.000
81.94869 516.000
81.96864 516.000
81.98859 494.000
82.00853 559.000
82.02848 493.000
82.04843 508.000
82.06837 479.000
82.08832 526.000
82.10827 482.000
82.12821 539.000
82.14816 472.000
82.16811 468.000
82.18805 517.000
82.20800 537.000
82.22795 536.000
82.24790 530.000
82.26784 509.000
82.28779 543.000
82.30774 571.000
82.32768 515.000
82.34763 555.000
82.36758 569.000
82.38752 596.000
82.40747 578.000
82.42742 594.000
82.44737 602.000
82.46731 634.000
82.48726 586.000
82.50721 574.000
82.52715 601.000
82.54710 650.000
82.56705 585.000
82.58699 618.000
82.60694 650.000
82.62689 594.000
82.64683 602.000
82.66678 654.000
82.68673 618.000
82.70668 643.000
82.72662 608.000
82.74657 625.000
82.76652 581.000
82.78646 620.000
82.80641 580.000
82.82636 608.000
82.84630 634.000
82.86625 637.000
82.88620 582.000
82.90615 599.000
82.92609 584.000
82.94604 621.000
82.96599 632.000
82.98593 541.000
83.00588 601.000
83.02583 603.000
83.04577 569.000
83.06572 589.000
83.08567 571.000
83.10561 581.000
83.12556 609.000
83.14551 585.000
83.16546 546.000
83.18540 582.000
83.20535 576.000
83.22530 553.000
83.24524 567.000
83.26519 536.000
83.28514 537.000
83.30508 576.000
83.32503 533.000
83.34498 532.000
83.36493 538.000
83.38487 553.000
83.40482 549.000
83.42477 548.000
83.44471 535.000
83.46466 567.000
83.48461 542.000
83.50455 516.000
83.52450 576.000
83.54445 590.000
83.56440 552.000
83.58434 555.000
83.60429 544.000
83.62424 565.000
83.64418 543.000
83.66413 551.000
83.68408 543.000
83.70402 583.000
83.72397 549.000
83.74392 572.000
83.76386 613.000
83.78381 608.000
83.80376 584.000
83.82371 546.000
83.84365 561.000
83.86360 536.000
83.88355 542.000
83.90349 562.000
83.92344 555.000
83.94339 525.000
83.96333 602.000
83.98328 511.000
84.00323 552.000
84.02318 580.000
84.04312 535.000
84.06307 525.000
84.08302 535.000
84.10296 570.000
84.12291 495.000
84.14286 510.000
84.16280 524.000
84.18275 528.000
84.20270 534.000
84.22264 533.000
84.24259 584.000
84.26254 511.000
84.28249 507.000
84.30243 536.000
84.32238 532.000
84.34233 485.000
84.36227 519.000
84.38222 522.000
84.40217 505.000
84.42211 537.000
84.44206 516.000
84.46201 539.000
84.48196 509.000
84.50190 525.000
84.52185 540.000
84.54180 508.000
84.56174 466.000
84.58169 575.000
84.60164 515.000
84.62158 494.000
84.64153 508.000
84.66148 511.000
84.68142 498.000
84.70137 488.000
84.72132 537.000
84.74127 516.000
84.76121 497.000
84.78116 484.000
84.80111 495.000
84.82105 507.000
84.84100 493.000
84.86095 523.000
84.88089 528.000
84.90084 490.000
84.92079 481.000
84.94074 507.000
84.96068 526.000
84.98063 491.000
85.00058 493.000
85.02052 487.000
85.04047 498.000
85.06042 485.000
85.08036 493.000
85.10031 475.000
85.12026 499.000
85.14021 466.000
85.16015 464.000
85.18010 499.000
85.20005 504.000
85.21999 489.000
85.23994 493.000
85.25989 514.000
85.27983 462.000
85.29978 483.000
85.31973 475.000
85.33967 472.000
85.35962 529.000
85.37957 512.000
85.39952 489.000
85.41946 527.000
85.43941 469.000
85.45936 485.000
85.47930 460.000
85.49925 465.000
85.51920 482.000
85.53914 459.000
85.55909 482.000
85.57904 511.000
85.59899 501.000
85.61893 466.000
85.63888 495.000
85.65883 493.000
85.67877 443.000
85.69872 459.000
85.71867 525.000
85.73861 498.000
85.75856 471.000
85.77851 469.000
85.79845 484.000
85.81840 540.000
85.83835 499.000
85.85830 493.000
85.87824 504.000
85.89819 511.000
85.91814 509.000
85.93808 518.000
85.95803 513.000
85.97798 521.000
85.99792 524.000
86.01787 509.000
86.03782 487.000
86.05777 505.000
86.07771 480.000
86.09766 481.000
86.11761 527.000
86.13755 502.000
86.15750 489.000
86.17745 481.000
86.19739 531.000
86.21734 481.000
86.23729 518.000
86.25723 497.000
86.27718 466.000
86.29713 492.000
86.31708 472.000
86.33702 469.000
86.35697 539.000
86.37692 472.000
86.39686 556.000
86.41681 497.000
86.43676 546.000
86.45670 510.000
86.47665 508.000
86.49660 474.000
86.51655 521.000
86.53649 476.000
86.55644 538.000
86.57639 515.000
86.59633 538.000
86.61628 517.000
86.63623 542.000
86.65617 531.000
86.67612 521.000
86.69607 527.000
86.71602 513.000
86.73596 536.000
86.75591 545.000
86.77586 520.000
86.79580 532.000
86.81575 516.000
86.83570 519.000
86.85564 537.000
86.87559 587.000
86.89554 592.000
86.91548 502.000
86.93543 519.000
86.95538 537.000
86.97533 548.000
86.99527 557.000
87.01522 538.000
87.03517 568.000
87.05511 558.000
87.07506 555.000
87.09501 545.000
87.11495 563.000
87.13490 531.000
87.15485 515.000
87.17480 527.000
87.19474 550.000
87.21469 530.000
87.23464 481.000
87.25458 485.000
87.27453 518.000
87.29448 517.000
87.31442 553.000
87.33437 517.000
87.35432 525.000
87.37426 528.000
87.39421 547.000
87.41416 514.000
87.43411 523.000
87.45405 509.000
87.47400 551.000
87.49395 521.000
87.51389 523.000
87.53384 505.000
87.55379 513.000
87.57373 460.000
87.59368 512.000
87.61363 493.000
87.63358 532.000
87.65352 500.000
87.67347 522.000
87.69342 492.000
87.71336 533.000
87.73331 517.000
87.75326 510.000
87.77320 496.000
87.79315 470.000
87.81310 498.000
87.83304 557.000
87.85299 501.000
87.87294 520.000
87.89289 489.000
87.91283 482.000
87.93278 508.000
87.95273 518.000
87.97267 498.000
87.99262 507.000
88.01257 488.000
88.03251 496.000
88.05246 532.000
88.07241 467.000
88.09236 519.000
88.11230 520.000
88.13225 519.000
88.15220 514.000
88.17214 504.000
88.19209 510.000
88.21204 488.000
88.23198 532.000
88.25193 530.000
88.27188 522.000
88.29183 483.000
88.31177 473.000
88.33172 462.000
88.35167 493.000
88.37161 488.000
88.39156 514.000
88.41151 498.000
88.43145 488.000
88.45140 530.000
88.47135 508.000
88.49129 467.000
88.51124 454.000
88.53119 481.000
88.55114 500.000
88.57108 499.000
88.59103 522.000
88.61098 504.000
88.63092 518.000
88.65087 486.000
88.67082 558.000
88.69076 512.000
88.71071 498.000
88.73066 483.000
88.75061 506.000
88.77055 481.000
88.79050 470.000
88.81045 509.000
88.83039 523.000
88.85034 507.000
88.87029 525.000
88.89023 503.000
88.91018 503.000
88.93013 525.000
88.95007 534.000
88.97002 504.000
88.98997 516.000
89.00992 525.000
89.02986 506.000
89.04981 503.000
89.06976 498.000
89.08970 558.000
89.10965 484.000
89.12960 530.000
89.14954 516.000
89.16949 540.000
89.18944 502.000
89.20939 532.000
89.22933 546.000
89.24928 524.000
89.26923 556.000
89.28917 533.000
89.30912 519.000
89.32907 544.000
89.34901 556.000
89.36896 526.000
89.38891 526.000
89.40885 627.000
89.42880 558.000
89.44875 578.000
89.46870 515.000
89.48864 539.000
89.50859 558.000
89.52854 586.000
89.54848 558.000
89.56843 578.000
89.58838 587.000
89.60832 597.000
89.62827 537.000
89.64822 597.000
89.66817 549.000
89.68811 584.000
89.70806 588.000
89.72801 552.000
89.74795 558.000
89.76790 576.000
89.78785 561.000
89.80779 536.000
89.82774 573.000
89.84769 560.000
89.86764 545.000
89.88758 576.000
89.90753 538.000
89.92748 530.000
89.94742 586.000
89.96737 527.000
89.98732 522.000
90.00726 523.000
