10.00000 251.000
10.01995 201.000
10.03989 186.000
10.05984 216.000
10.07979 208.000
10.09973 222.000
10.11968 201.000
10.13963 221.000
10.15958 194.000
10.17952 217.000
10.19947 169.000
10.21942 182.000
10.23936 223.000
10.25931 172.000
10.27926 205.000
10.29920 203.000
10.31915 204.000
10.33910 219.000
10.35905 211.000
10.37899 178.000
10.39894 225.000
10.41889 187.000
10.43883 221.000
10.45878 193.000
10.47873 185.000
10.49867 204.000
10.51862 202.000
10.53857 228.000
10.55851 199.000
10.57846 208.000
10.59841 201.000
10.61836 192.000
10.63830 180.000
10.65825 179.000
10.67820 150.000
10.69814 195.000
10.71809 217.000
10.73804 223.000
10.75798 200.000
10.77793 224.000
10.79788 195.000
10.81783 195.000
10.83777 180.000
10.85772 225.000
10.87767 196.000
10.89761 198.000
10.91756 237.000
10.93751 194.000
10.95745 203.000
10.97740 193.000
10.99735 180.000
11.01730 200.000
11.03724 196.000
11.05719 207.000
11.07714 182.000
11.09708 196.000
11.11703 210.000
11.13698 238.000
11.15692 204.000
11.17687 220.000
11.19682 213.000
11.21676 200.000
11.23671 215.000
11.25666 208.000
11.27661 228.000
11.29655 190.000
11.31650 187.000
11.33645 207.000
11.35639 200.000
11.37634 221.000
11.39629 210.000
11.41623 218.000
11.43618 231.000
11.45613 229.000
11.47608 211.000
11.49602 181.000
11.51597 224.000
11.53592 169.000
11.55586 204.000
11.57581 226.000
11.59576 219.000
11.61570 219.000
11.63565 218.000
11.65560 219.000
11.67554 192.000
11.69549 207.000
11.71544 223.000
11.73539 206.000
11.75533 216.000
11.77528 188.000
11.79523 209.000
11.81517 247.000
11.83512 235.000
11.85507 203.000
11.87501 190.000
11.89496 192.000
11.91491 195.000
11.93486 231.000
11.95480 190.000
11.97475 221.000
11.99470 213.000
12.01464 194.000
12.03459 200.000
12.05454 204.000
12.07448 205.000
12.09443 225.000
12.11438 211.000
12.13432 219.000
12.15427 200.000
12.17422 206.000
12.19417 216.000
12.21411 193.000
12.23406 190.000
12.25401 200.000
12.27395 213.000
12.29390 226.000
12.31385 197.000
12.33379 186.000
12.35374 208.000
12.37369 228.000
12.39364 193.000
12.41358 193.000
12.43353 206.000
12.45348 210.000
12.47342 219.000
12.49337 210.000
12.51332 210.000
12.53326 202.000
12.55321 219.000
12.57316 209.000
12.59311 206.000
12.61305 225.000
12.63300 203.000
12.65295 199.000
12.67289 237.000
12.69284 183.000
12.71279 245.000
12.73273 214.000
12.75268 207.000
12.77263 216.000
12.79257 230.000
12.81252 213.000
12.83247 233.000
12.85242 208.000
12.87236 198.000
12.89231 206.000
12.91226 216.000
12.93220 201.000
12.95215 237.000
12.97210 210.000
12.99204 223.000
13.01199 219.000
13.03194 200.000
13.05189 190.000
13.07183 207.000
13.09178 209.000
13.11173 213.000
13.13167 221.000
13.15162 229.000
13.17157 223.000
13.19151 232.000
13.21146 202.000
13.23141 228.000
13.25135 218.000
13.27130 213.000
13.29125 230.000
13.31120 222.000
13.33114 203.000
13.35109 196.000
13.37104 224.000
13.39098 202.000
13.41093 194.000
13.43088 191.000
13.45082 251.000
13.47077 224.000
13.49072 199.000
13.51067 191.000
13.53061 213.000
13.55056 226.000
13.57051 213.000
13.59045 207.000
13.61040 206.000
13.63035 241.000
13.65029 198.000
13.67024 212.000
13.69019 200.000
13.71013 221.000
13.73008 208.000
13.75003 201.000
13.76998 199.000
13.78992 228.000
13.80987 235.000
13.82982 207.000
13.84976 213.000
13.86971 220.000
13.88966 216.000
13.90960 225.000
13.92955 229.000
13.94950 207.000
13.96945 196.000
13.98939 231.000
14.00934 196.000
14.02929 202.000
14.04923 228.000
14.06918 227.000
14.08913 202.000
14.10907 228.000
14.12902 193.000
14.14897 224.000
14.16892 217.000
14.18886 193.000
14.20881 224.000
14.22876 188.000
14.24870 196.000
14.26865 218.000
14.28860 181.000
14.30854 219.000
14.32849 225.000
14.34844 219.000
14.36838 195.000
14.38833 207.000
14.40828 220.000
14.42823 209.000
14.44817 247.000
14.46812 197.000
14.48807 239.000
14.50801 204.000
14.52796 225.000
14.54791 225.000
14.56785 220.000
14.58780 198.000
14.60775 221.000
14.62770 217.000
14.64764 229.000
14.66759 236.000
14.68754 240.000
14.70748 234.000
14.72743 230.000
14.74738 201.000
14.76732 212.000
14.78727 226.000
14.80722 235.000
14.82716 205.000
14.84711 235.000
14.86706 233.000
14.88701 222.000
14.90695 209.000
14.92690 208.000
14.94685 221.000
14.96679 226.000
14.98674 211.000
15.00669 235.000
15.02663 218.000
15.04658 206.000
15.06653 209.000
15.08648 224.000
15.10642 217.000
15.12637 219.000
15.14632 207.000
15.16626 215.000
15.18621 231.000
15.20616 222.000
15.22610 227.000
15.24605 238.000
15.26600 219.000
15.28594 223.000
15.30589 216.000
15.32584 233.000
15.34579 218.000
15.36573 245.000
15.38568 217.000
15.40563 213.000
15.42557 232.000
15.44552 225.000
15.46547 214.000
15.48541 242.000
15.50536 216.000
15.52531 240.000
15.54526 244.000
15.56520 206.000
15.58515 230.000
15.60510 247.000
15.62504 254.000
15.64499 228.000
15.66494 228.000
15.68488 251.000
15.70483 282.000
15.72478 302.000
15.74472 285.000
15.76467 302.000
15.78462 309.000
15.80457 271.000
15.82451 269.000
15.84446 288.000
15.86441 250.000
15.88435 254.000
15.90430 257.000
15.92425 259.000
15.94419 200.000
15.96414 219.000
15.98409 209.000
16.00404 255.000
16.02398 250.000
16.04393 245.000
16.06388 226.000
16.08382 190.000
16.10377 210.000
16.12372 192.000
16.14366 195.000
16.16361 243.000
16.18356 223.000
16.20351 233.000
16.22345 220.000
16.24340 251.000
16.26335 227.000
16.28329 204.000
16.30324 235.000
16.32319 223.000
16.34313 203.000
16.36308 229.000
16.38303 234.000
16.40297 244.000
16.42292 245.000
16.44287 225.000
16.46282 200.000
16.48276 245.000
16.50271 240.000
16.52266 250.000
16.54260 246.000
16.56255 223.000
16.58250 254.000
16.60244 249.000
16.62239 237.000
16.64234 211.000
16.66229 212.000
16.68223 238.000
16.70218 238.000
16.72213 267.000
16.74207 265.000
16.76202 269.000
16.78197 287.000
16.80191 322.000
16.82186 311.000
16.84181 351.000
16.86175 395.000
16.88170 378.000
16.90165 324.000
16.92160 336.000
16.94154 319.000
16.96149 257.000
16.98144 264.000
17.00138 246.000
17.02133 246.000
17.04128 234.000
17.06122 225.000
17.08117 250.000
17.10112 247.000
17.12107 267.000
17.14101 228.000
17.16096 229.000
17.18091 251.000
17.20085 284.000
17.22080 235.000
17.24075 261.000
17.26069 262.000
17.28064 286.000
17.30059 270.000
17.32053 304.000
17.34048 298.000
17.36043 295.000
17.38038 280.000
17.40032 298.000
17.42027 252.000
17.44022 258.000
17.46016 259.000
17.48011 239.000
17.50006 252.000
17.52000 276.000
17.53995 241.000
17.55990 231.000
17.57985 220.000
17.59979 244.000
17.61974 250.000
17.63969 222.000
17.65963 234.000
17.67958 220.000
17.69953 253.000
17.71947 224.000
17.73942 220.000
17.75937 228.000
17.77932 236.000
17.79926 250.000
17.81921 239.000
17.83916 225.000
17.85910 224.000
17.87905 220.000
17.89900 193.000
17.91894 238.000
17.93889 217.000
17.95884 234.000
17.97878 235.000
17.99873 231.000
18.01868 217.000
18.03863 190.000
18.05857 252.000
18.07852 218.000
18.09847 201.000
18.11841 234.000
18.13836 221.000
18.15831 230.000
18.17825 235.000
18.19820 218.000
18.21815 232.000
18.23810 221.000
18.25804 226.000
18.27799 262.000
18.29794 251.000
18.31788 248.000
18.33783 229.000
18.35778 266.000
18.37772 235.000
18.39767 251.000
18.41762 263.000
18.43756 269.000
18.45751 264.000
18.47746 265.000
18.49741 256.000
18.51735 228.000
18.53730 237.000
18.55725 238.000
18.57719 231.000
18.59714 232.000
18.61709 183.000
18.63703 218.000
18.65698 231.000
18.67693 253.000
18.69688 242.000
18.71682 215.000
18.73677 238.000
18.75672 213.000
18.77666 232.000
18.79661 213.000
18.81656 208.000
18.83650 237.000
18.85645 230.000
18.87640 192.000
18.89634 239.000
18.91629 228.000
18.93624 249.000
18.95619 207.000
18.97613 228.000
18.99608 215.000
19.01603 225.000
19.03597 251.000
19.05592 210.000
19.07587 221.000
19.09581 236.000
19.11576 240.000
19.13571 238.000
19.15566 219.000
19.17560 222.000
19.19555 268.000
19.21550 221.000
19.23544 216.000
19.25539 233.000
19.27534 223.000
19.29528 224.000
19.31523 232.000
19.33518 230.000
19.35513 219.000
19.37507 231.000
19.39502 225.000
19.41497 236.000
19.43491 225.000
19.45486 225.000
19.47481 231.000
19.49475 245.000
19.51470 268.000
19.53465 237.000
19.55459 231.000
19.57454 228.000
19.59449 242.000
19.61444 218.000
19.63438 208.000
19.65433 231.000
19.67428 236.000
19.69422 233.000
19.71417 218.000
19.73412 222.000
19.75406 203.000
19.77401 232.000
19.79396 241.000
19.81391 218.000
19.83385 219.000
19.85380 251.000
19.87375 207.000
19.89369 232.000
19.91364 211.000
19.93359 250.000
19.95353 245.000
19.97348 249.000
19.99343 259.000
20.01337 250.000
20.03332 229.000
20.05327 234.000
20.07322 231.000
20.09316 250.000
20.11311 226.000
20.13306 225.000
20.15300 250.000
20.17295 234.000
20.19290 253.000
20.21284 231.000
20.23279 258.000
20.25274 256.000
20.27269 250.000
20.29263 257.000
20.31258 230.000
20.33253 228.000
20.35247 239.000
20.37242 266.000
20.39237 245.000
20.41231 259.000
20.43226 260.000
20.45221 228.000
20.47215 269.000
20.49210 227.000
20.51205 259.000
20.53200 274.000
20.55194 275.000
20.57189 260.000
20.59184 298.000
20.61178 303.000
20.63173 308.000
20.65168 350.000
20.67162 374.000
20.69157 387.000
20.71152 392.000
20.73147 412.000
20.75141 454.000
20.77136 514.000
20.79131 533.000
20.81125 505.000
20.83120 593.000
20.85115 552.000
20.87109 547.000
20.89104 562.000
20.91099 536.000
20.93094 523.000
20.95088 535.000
20.97083 491.000
20.99078 487.000
21.01072 477.000
21.03067 378.000
21.05062 441.000
21.07056 432.000
21.09051 425.000
21.11046 411.000
21.13040 358.000
21.15035 339.000
21.17030 298.000
21.19025 297.000
21.21019 300.000
21.23014 267.000
21.25009 266.000
21.27003 238.000
21.28998 270.000
21.30993 269.000
21.32987 275.000
21.34982 226.000
21.36977 219.000
21.38972 253.000
21.40966 246.000
21.42961 262.000
21.44956 207.000
21.46950 247.000
21.48945 240.000
21.50940 280.000
21.52934 252.000
21.54929 255.000
21.56924 223.000
21.58918 277.000
21.60913 222.000
21.62908 238.000
21.64903 242.000
21.66897 259.000
21.68892 212.000
21.70887 242.000
21.72881 266.000
21.74876 229.000
21.76871 230.000
21.78865 249.000
21.80860 245.000
21.82855 227.000
21.84850 227.000
21.86844 238.000
21.88839 244.000
21.90834 264.000
21.92828 233.000
21.94823 255.000
21.96818 237.000
21.98812 239.000
22.00807 244.000
22.02802 246.000
22.04796 237.000
22.06791 262.000
22.08786 269.000
22.10781 253.000
22.12775 215.000
22.14770 260.000
22.16765 221.000
22.18759 228.000
22.20754 206.000
22.22749 242.000
22.24743 219.000
22.26738 224.000
22.28733 229.000
22.30728 233.000
22.32722 269.000
22.34717 252.000
22.36712 219.000
22.38706 234.000
22.40701 258.000
22.42696 239.000
22.44690 251.000
22.46685 245.000
22.48680 244.000
22.50675 283.000
22.52669 249.000
22.54664 249.000
22.56659 247.000
22.58653 233.000
22.60648 243.000
22.62643 258.000
22.64637 224.000
22.66632 235.000
22.68627 233.000
22.70621 251.000
22.72616 228.000
22.74611 259.000
22.76606 275.000
22.78600 231.000
22.80595 271.000
22.82590 243.000
22.84584 233.000
22.86579 255.000
22.88574 278.000
22.90568 241.000
22.92563 267.000
22.94558 272.000
22.96553 268.000
22.98547 274.000
23.00542 294.000
23.02537 241.000
23.04531 248.000
23.06526 250.000
23.08521 247.000
23.10515 259.000
23.12510 268.000
23.14505 236.000
23.16499 230.000
23.18494 252.000
23.20489 236.000
23.22484 287.000
23.24478 237.000
23.26473 268.000
23.28468 264.000
23.30462 253.000
23.32457 244.000
23.34452 253.000
23.36446 267.000
23.38441 252.000
23.40436 248.000
23.42431 229.000
23.44425 253.000
23.46420 269.000
23.48415 240.000
23.50409 243.000
23.52404 224.000
23.54399 253.000
23.56393 268.000
23.58388 248.000
23.60383 233.000
23.62377 245.000
23.64372 251.000
23.66367 232.000
23.68362 258.000
23.70356 263.000
23.72351 257.000
23.74346 264.000
23.76340 243.000
23.78335 254.000
23.80330 252.000
23.82324 261.000
23.84319 266.000
23.86314 241.000
23.88309 263.000
23.90303 242.000
23.92298 244.000
23.94293 241.000
23.96287 234.000
23.98282 256.000
24.00277 260.000
24.02271 263.000
24.04266 238.000
24.06261 237.000
24.08256 272.000
24.10250 281.000
24.12245 222.000
24.14240 251.000
24.16234 247.000
24.18229 259.000
24.20224 271.000
24.22218 270.000
24.24213 238.000
24.26208 292.000
24.28202 245.000
24.30197 288.000
24.32192 273.000
24.34187 278.000
24.36181 243.000
24.38176 257.000
24.40171 260.000
24.42165 285.000
24.44160 251.000
24.46155 276.000
24.48149 238.000
24.50144 242.000
24.52139 251.000
24.54134 249.000
24.56128 267.000
24.58123 256.000
24.60118 250.000
24.62112 216.000
24.64107 276.000
24.66102 247.000
24.68096 271.000
24.70091 268.000
24.72086 253.000
24.74080 240.000
24.76075 274.000
24.78070 281.000
24.80065 271.000
24.82059 280.000
24.84054 264.000
24.86049 264.000
24.88043 280.000
24.90038 308.000
24.92033 335.000
24.94027 316.000
24.96022 302.000
24.98017 342.000
25.00012 327.000
25.02006 301.000
25.04001 345.000
25.05996 323.000
25.07990 319.000
25.09985 302.000
25.11980 291.000
25.13974 282.000
25.15969 282.000
25.17964 273.000
25.19958 273.000
25.21953 298.000
25.23948 279.000
25.25943 242.000
25.27937 249.000
25.29932 238.000
25.31927 295.000
25.33921 251.000
25.35916 264.000
25.37911 294.000
25.39905 274.000
25.41900 258.000
25.43895 270.000
25.45890 251.000
25.47884 259.000
25.49879 293.000
25.51874 257.000
25.53868 274.000
25.55863 280.000
25.57858 292.000
25.59852 258.000
25.61847 253.000
25.63842 270.000
25.65837 288.000
25.67831 247.000
25.69826 249.000
25.71821 272.000
25.73815 285.000
25.75810 273.000
25.77805 261.000
25.79799 257.000
25.81794 262.000
25.83789 258.000
25.85783 239.000
25.87778 231.000
25.89773 263.000
25.91768 265.000
25.93762 269.000
25.95757 300.000
25.97752 253.000
25.99746 294.000
26.01741 259.000
26.03736 286.000
26.05730 283.000
26.07725 287.000
26.09720 266.000
26.11715 297.000
26.13709 267.000
26.15704 278.000
26.17699 256.000
26.19693 264.000
26.21688 259.000
26.23683 281.000
26.25677 276.000
26.27672 254.000
26.29667 271.000
26.31661 276.000
26.33656 299.000
26.35651 270.000
26.37646 259.000
26.39640 299.000
26.41635 279.000
26.43630 291.000
26.45624 287.000
26.47619 266.000
26.49614 283.000
26.51608 275.000
26.53603 287.000
26.55598 234.000
26.57593 262.000
26.59587 275.000
26.61582 298.000
26.63577 290.000
26.65571 280.000
26.67566 298.000
26.69561 252.000
26.71555 256.000
26.73550 282.000
26.75545 286.000
26.77539 300.000
26.79534 254.000
26.81529 252.000
26.83524 277.000
26.85518 278.000
26.87513 288.000
26.89508 283.000
26.91502 257.000
26.93497 287.000
26.95492 277.000
26.97486 296.000
26.99481 299.000
27.01476 293.000
27.03471 281.000
27.05465 288.000
27.07460 293.000
27.09455 296.000
27.11449 279.000
27.13444 279.000
27.15439 287.000
27.17433 284.000
27.19428 252.000
27.21423 298.000
27.23417 297.000
27.25412 277.000
27.27407 252.000
27.29402 274.000
27.31396 286.000
27.33391 274.000
27.35386 276.000
27.37380 284.000
27.39375 272.000
27.41370 262.000
27.43364 271.000
27.45359 287.000
27.47354 285.000
27.49349 284.000
27.51343 279.000
27.53338 298.000
27.55333 302.000
27.57327 251.000
27.59322 265.000
27.61317 295.000
27.63311 292.000
27.65306 275.000
27.67301 240.000
27.69296 311.000
27.71290 280.000
27.73285 264.000
27.75280 286.000
27.77274 276.000
27.79269 297.000
27.81264 280.000
27.83258 266.000
27.85253 289.000
27.87248 292.000
27.89242 300.000
27.91237 270.000
27.93232 305.000
27.95227 272.000
27.97221 277.000
27.99216 316.000
28.01211 297.000
28.03205 309.000
28.05200 287.000
28.07195 308.000
28.09189 251.000
28.11184 304.000
28.13179 312.000
28.15174 273.000
28.17168 327.000
28.19163 283.000
28.21158 292.000
28.23152 268.000
28.25147 250.000
28.27142 316.000
28.29136 292.000
28.31131 286.000
28.33126 302.000
28.35120 304.000
28.37115 288.000
28.39110 288.000
28.41105 304.000
28.43099 265.000
28.45094 296.000
28.47089 318.000
28.49083 273.000
28.51078 295.000
28.53073 299.000
28.55067 313.000
28.57062 342.000
28.59057 272.000
28.61052 292.000
28.63046 288.000
28.65041 301.000
28.67036 327.000
28.69030 274.000
28.71025 309.000
28.73020 305.000
28.75014 300.000
28.77009 286.000
28.79004 304.000
28.80998 311.000
28.82993 294.000
28.84988 297.000
28.86983 299.000
28.88977 334.000
28.90972 309.000
28.92967 328.000
28.94961 287.000
28.96956 346.000
28.98951 307.000
29.00945 326.000
29.02940 309.000
29.04935 325.000
29.06930 326.000
29.08924 312.000
29.10919 351.000
29.12914 306.000
29.14908 334.000
29.16903 302.000
29.18898 306.000
29.20892 346.000
29.22887 393.000
29.24882 360.000
29.26877 394.000
29.28871 405.000
29.30866 454.000
29.32861 506.000
29.34855 561.000
29.36850 574.000
29.38845 592.000
29.40839 581.000
29.42834 593.000
29.44829 554.000
29.46823 546.000
29.48818 562.000
29.50813 474.000
29.52808 471.000
29.54802 427.000
29.56797 426.000
29.58792 384.000
29.60786 418.000
29.62781 385.000
29.64776 353.000
29.66770 371.000
29.68765 316.000
29.70760 316.000
29.72755 303.000
29.74749 336.000
29.76744 319.000
29.78739 320.000
29.80733 325.000
29.82728 302.000
29.84723 335.000
29.86717 319.000
29.88712 321.000
29.90707 337.000
29.92701 301.000
29.94696 310.000
29.96691 296.000
29.98686 296.000
30.00680 306.000
30.02675 324.000
30.04670 343.000
30.06664 316.000
30.08659 318.000
30.10654 328.000
30.12648 319.000
30.14643 348.000
30.16638 321.000
30.18633 359.000
30.20627 354.000
30.22622 354.000
30.24617 353.000
30.26611 365.000
30.28606 377.000
30.30601 360.000
30.32595 338.000
30.34590 326.000
30.36585 324.000
30.38579 327.000
30.40574 321.000
30.42569 298.000
30.44564 341.000
30.46558 326.000
30.48553 317.000
30.50548 297.000
30.52542 302.000
30.54537 309.000
30.56532 348.000
30.58526 333.000
30.60521 283.000
30.62516 326.000
30.64511 301.000
30.66505 307.000
30.68500 354.000
30.70495 304.000
30.72489 313.000
30.74484 325.000
30.76479 285.000
30.78473 282.000
30.80468 311.000
30.82463 300.000
30.84458 306.000
30.86452 299.000
30.88447 309.000
30.90442 331.000
30.92436 293.000
30.94431 294.000
30.96426 282.000
30.98420 317.000
31.00415 313.000
31.02410 272.000
31.04404 306.000
31.06399 288.000
31.08394 294.000
31.10389 295.000
31.12383 281.000
31.14378 318.000
31.16373 277.000
31.18367 317.000
31.20362 319.000
31.22357 317.000
31.24351 303.000
31.26346 303.000
31.28341 321.000
31.30336 284.000
31.32330 332.000
31.34325 297.000
31.36320 301.000
31.38314 304.000
31.40309 321.000
31.42304 265.000
31.44298 307.000
31.46293 305.000
31.48288 295.000
31.50282 295.000
31.52277 300.000
31.54272 328.000
31.56267 288.000
31.58261 291.000
31.60256 278.000
31.62251 300.000
31.64245 314.000
31.66240 307.000
31.68235 310.000
31.70229 285.000
31.72224 317.000
31.74219 306.000
31.76214 281.000
31.78208 288.000
31.80203 342.000
31.82198 320.000
31.84192 313.000
31.86187 286.000
31.88182 295.000
31.90176 277.000
31.92171 319.000
31.94166 274.000
31.96160 261.000
31.98155 286.000
32.00150 312.000
32.02145 307.000
32.04139 301.000
32.06134 301.000
32.08129 287.000
32.10123 306.000
32.12118 317.000
32.14113 290.000
32.16107 328.000
32.18102 321.000
32.20097 318.000
32.22092 290.000
32.24086 305.000
32.26081 296.000
32.28076 273.000
32.30070 293.000
32.32065 294.000
32.34060 278.000
32.36054 307.000
32.38049 296.000
32.40044 271.000
32.42039 315.000
32.44033 279.000
32.46028 271.000
32.48023 334.000
32.50017 276.000
32.52012 320.000
32.54007 286.000
32.56001 299.000
32.57996 306.000
32.59991 297.000
32.61985 334.000
32.63980 279.000
32.65975 302.000
32.67970 297.000
32.69964 263.000
32.71959 295.000
32.73954 266.000
32.75948 300.000
32.77943 312.000
32.79938 315.000
32.81932 307.000
32.83927 312.000
32.85922 283.000
32.87917 298.000
32.89911 313.000
32.91906 272.000
32.93901 267.000
32.95895 288.000
32.97890 276.000
32.99885 296.000
33.01879 317.000
33.03874 299.000
33.05869 302.000
33.07863 287.000
33.09858 275.000
33.11853 296.000
33.13848 292.000
33.15842 303.000
33.17837 269.000
33.19832 299.000
33.21826 312.000
33.23821 296.000
33.25816 305.000
33.27810 322.000
33.29805 299.000
33.31800 328.000
33.33795 324.000
33.35789 279.000
33.37784 333.000
33.39779 305.000
33.41773 287.000
33.43768 302.000
33.45763 252.000
33.47757 307.000
33.49752 305.000
33.51747 318.000
33.53741 341.000
33.55736 334.000
33.57731 309.000
33.59726 323.000
33.61720 320.000
33.63715 337.000
33.65710 329.000
33.67704 340.000
33.69699 365.000
33.71694 320.000
33.73688 338.000
33.75683 336.000
33.77678 323.000
33.79673 346.000
33.81667 339.000
33.83662 356.000
33.85657 339.000
33.87651 352.000
33.89646 341.000
33.91641 405.000
33.93635 361.000
33.95630 385.000
33.97625 372.000
33.99620 398.000
34.01614 399.000
34.03609 423.000
34.05604 442.000
34.07598 411.000
34.09593 461.000
34.11588 422.000
34.13582 490.000
34.15577 510.000
34.17572 509.000
34.19566 542.000
34.21561 567.000
34.23556 593.000
34.25551 590.000
34.27545 620.000
34.29540 715.000
34.31535 702.000
34.33529 666.000
34.35524 638.000
34.37519 674.000
34.39513 652.000
34.41508 585.000
34.43503 593.000
34.45498 643.000
34.47492 628.000
34.49487 623.000
34.51482 636.000
34.53476 570.000
34.55471 620.000
34.57466 601.000
34.59460 610.000
34.61455 582.000
34.63450 617.000
34.65444 573.000
34.67439 557.000
34.69434 541.000
34.71429 481.000
34.73423 529.000
34.75418 524.000
34.77413 512.000
34.79407 513.000
34.81402 554.000
34.83397 517.000
34.85391 581.000
34.87386 580.000
34.89381 501.000
34.91376 497.000
34.93370 498.000
34.95365 483.000
34.97360 519.000
34.99354 456.000
35.01349 471.000
35.03344 443.000
35.05338 450.000
35.07333 455.000
35.09328 439.000
35.11322 477.000
35.13317 440.000
35.15312 398.000
35.17307 423.000
35.19301 432.000
35.21296 365.000
35.23291 360.000
35.25285 405.000
35.27280 354.000
35.29275 381.000
35.31269 350.000
35.33264 361.000
35.35259 356.000
35.37254 377.000
35.39248 347.000
35.41243 403.000
35.43238 414.000
35.45232 403.000
35.47227 387.000
35.49222 377.000
35.51216 364.000
35.53211 359.000
35.55206 423.000
35.57201 410.000
35.59195 438.000
35.61190 443.000
35.63185 434.000
35.65179 501.000
35.67174 470.000
35.69169 522.000
35.71163 511.000
35.73158 487.000
35.75153 492.000
35.77147 491.000
35.79142 456.000
35.81137 406.000
35.83132 416.000
35.85126 433.000
35.87121 420.000
35.89116 407.000
35.91110 396.000
35.93105 402.000
35.95100 385.000
35.97094 370.000
35.99089 364.000
36.01084 338.000
36.03079 362.000
36.05073 371.000
36.07068 383.000
36.09063 370.000
36.11057 366.000
36.13052 405.000
36.15047 364.000
36.17041 392.000
36.19036 422.000
36.21031 429.000
36.23025 455.000
36.25020 410.000
36.27015 454.000
36.29010 459.000
36.31004 482.000
36.32999 480.000
36.34994 526.000
36.36988 574.000
36.38983 655.000
36.40978 715.000
36.42972 683.000
36.44967 658.000
36.46962 651.000
36.48957 607.000
36.50951 628.000
36.52946 643.000
36.54941 592.000
36.56935 592.000
36.58930 569.000
36.60925 625.000
36.62919 608.000
36.64914 601.000
36.66909 696.000
36.68903 694.000
36.70898 752.000
36.72893 822.000
36.74888 904.000
36.76882 981.000
36.78877 1044.000
36.80872 1136.000
36.82866 1284.000
36.84861 1394.000
36.86856 1533.000
36.88850 1648.000
36.90845 1726.000
36.92840 1952.000
36.94835 2031.000
36.96829 2203.000
36.98824 2312.000
37.00819 2357.000
37.02813 2416.000
37.04808 2381.000
37.06803 2435.000
37.08797 2399.000
37.10792 2371.000
37.12787 2428.000
37.14781 2359.000
37.16776 2209.000
37.18771 2128.000
37.20766 1941.000
37.22760 1668.000
37.24755 1616.000
37.26750 1331.000
37.28744 1120.000
37.30739 949.000
37.32734 874.000
37.34728 731.000
37.36723 597.000
37.38718 580.000
37.40713 462.000
37.42707 432.000
37.44702 420.000
37.46697 360.000
37.48691 379.000
37.50686 333.000
37.52681 348.000
37.54675 329.000
37.56670 349.000
37.58665 363.000
37.60660 349.000
37.62654 348.000
37.64649 330.000
37.66644 322.000
37.68638 313.000
37.70633 327.000
37.72628 325.000
37.74622 315.000
37.76617 334.000
37.78612 317.000
37.80606 309.000
37.82601 311.000
37.84596 291.000
37.86591 290.000
37.88585 335.000
37.90580 291.000
37.92575 294.000
37.94569 349.000
37.96564 284.000
37.98559 322.000
38.00553 346.000
38.02548 315.000
38.04543 347.000
38.06538 318.000
38.08532 313.000
38.10527 288.000
38.12522 316.000
38.14516 315.000
38.16511 285.000
38.18506 328.000
38.20500 309.000
38.22495 298.000
38.24490 332.000
38.26484 307.000
38.28479 287.000
38.30474 311.000
38.32469 285.000
38.34463 294.000
38.36458 298.000
38.38453 315.000
38.40447 293.000
38.42442 288.000
38.44437 330.000
38.46431 325.000
38.48426 319.000
38.50421 284.000
38.52416 339.000
38.54410 283.000
38.56405 293.000
38.58400 287.000
38.60394 327.000
38.62389 276.000
38.64384 307.000
38.66378 294.000
38.68373 308.000
38.70368 319.000
38.72362 324.000
38.74357 279.000
38.76352 312.000
38.78347 287.000
38.80341 297.000
38.82336 310.000
38.84331 263.000
38.86325 294.000
38.88320 300.000
38.90315 298.000
38.92309 318.000
38.94304 273.000
38.96299 289.000
38.98294 325.000
39.00288 317.000
39.02283 289.000
39.04278 280.000
39.06272 275.000
39.08267 296.000
39.10262 310.000
39.12256 300.000
39.14251 304.000
39.16246 309.000
39.18241 287.000
39.20235 255.000
39.22230 270.000
39.24225 283.000
39.26219 320.000
39.28214 327.000
39.30209 307.000
39.32203 320.000
39.34198 306.000
39.36193 294.000
39.38187 263.000
39.40182 276.000
39.42177 285.000
39.44172 247.000
39.46166 284.000
39.48161 302.000
39.50156 289.000
39.52150 315.000
39.54145 249.000
39.56140 323.000
39.58134 285.000
39.60129 282.000
39.62124 288.000
39.64119 257.000
39.66113 307.000
39.68108 302.000
39.70103 313.000
39.72097 287.000
39.74092 283.000
39.76087 304.000
39.78081 302.000
39.80076 311.000
39.82071 295.000
39.84065 304.000
39.86060 271.000
39.88055 290.000
39.90050 301.000
39.92044 291.000
39.94039 300.000
39.96034 295.000
39.98028 286.000
40.00023 275.000
40.02018 277.000
40.04012 272.000
40.06007 300.000
40.08002 289.000
40.09997 300.000
40.11991 298.000
40.13986 280.000
40.15981 278.000
40.17975 268.000
40.19970 270.000
40.21965 299.000
40.23959 320.000
40.25954 309.000
40.27949 289.000
40.29943 320.000
40.31938 305.000
40.33933 270.000
40.35928 304.000
40.37922 289.000
40.39917 267.000
40.41912 281.000
40.43906 314.000
40.45901 278.000
40.47896 320.000
40.49890 296.000
40.51885 295.000
40.53880 276.000
40.55875 256.000
40.57869 301.000
40.59864 308.000
40.61859 300.000
40.63853 293.000
40.65848 282.000
40.67843 291.000
40.69837 303.000
40.71832 315.000
40.73827 273.000
40.75822 291.000
40.77816 314.000
40.79811 280.000
40.81806 283.000
40.83800 285.000
40.85795 329.000
40.87790 293.000
40.89784 292.000
40.91779 347.000
40.93774 296.000
40.95768 333.000
40.97763 315.000
40.99758 317.000
41.01753 288.000
41.03747 307.000
41.05742 267.000
41.07737 294.000
41.09731 301.000
41.11726 331.000
41.13721 331.000
41.15715 331.000
41.17710 347.000
41.19705 328.000
41.21700 327.000
41.23694 337.000
41.25689 364.000
41.27684 350.000
41.29678 380.000
41.31673 329.000
41.33668 338.000
41.35662 355.000
41.37657 333.000
41.39652 386.000
41.41646 387.000
41.43641 365.000
41.45636 356.000
41.47631 348.000
41.49625 351.000
41.51620 334.000
41.53615 349.000
41.55609 384.000
41.57604 396.000
41.59599 395.000
41.61593 367.000
41.63588 381.000
41.65583 446.000
41.67578 393.000
41.69572 387.000
41.71567 473.000
41.73562 507.000
41.75556 465.000
41.77551 511.000
41.79546 553.000
41.81540 627.000
41.83535 735.000
41.85530 816.000
41.87524 813.000
41.89519 820.000
41.91514 857.000
41.93509 831.000
41.95503 870.000
41.97498 786.000
41.99493 759.000
42.01487 712.000
42.03482 701.000
42.05477 685.000
42.07471 586.000
42.09466 514.000
42.11461 497.000
42.13456 522.000
42.15450 446.000
42.17445 494.000
42.19440 498.000
42.21434 474.000
42.23429 451.000
42.25424 460.000
42.27418 531.000
42.29413 518.000
42.31408 455.000
42.33403 515.000
42.35397 538.000
42.37392 540.000
42.39387 575.000
42.41381 560.000
42.43376 619.000
42.45371 594.000
42.47365 613.000
42.49360 646.000
42.51355 676.000
42.53349 688.000
42.55344 726.000
42.57339 776.000
42.59334 850.000
42.61328 925.000
42.63323 946.000
42.65318 1019.000
42.67312 1098.000
42.69307 1145.000
42.71302 1357.000
42.73296 1458.000
42.75291 1528.000
42.77286 1618.000
42.79281 1829.000
42.81275 1926.000
42.83270 2112.000
42.85265 2124.000
42.87259 2288.000
42.89254 2505.000
42.91249 2617.000
42.93243 2704.000
42.95238 2851.000
42.97233 2858.000
42.99227 2925.000
43.01222 2971.000
43.03217 2956.000
43.05212 3061.000
43.07206 3021.000
43.09201 2957.000
43.11196 2962.000
43.13190 2886.000
43.15185 2807.000
43.17180 2768.000
43.19174 2570.000
43.21169 2589.000
43.23164 2446.000
43.25159 2349.000
43.27153 2200.000
43.29148 1933.000
43.31143 1664.000
43.33137 1425.000
43.35132 1251.000
43.37127 1133.000
43.39121 1030.000
43.41116 901.000
43.43111 732.000
43.45105 652.000
43.47100 548.000
43.49095 531.000
43.51090 500.000
43.53084 436.000
43.55079 440.000
43.57074 380.000
43.59068 385.000
43.61063 355.000
43.63058 360.000
43.65052 376.000
43.67047 354.000
43.69042 320.000
43.71037 287.000
43.73031 297.000
43.75026 323.000
43.77021 336.000
43.79015 297.000
43.81010 320.000
43.83005 324.000
43.84999 334.000
43.86994 338.000
43.88989 320.000
43.90984 307.000
43.92978 312.000
43.94973 307.000
43.96968 309.000
43.98962 291.000
44.00957 310.000
44.02952 324.000
44.04946 297.000
44.06941 287.000
44.08936 309.000
44.10930 293.000
44.12925 272.000
44.14920 296.000
44.16915 279.000
44.18909 319.000
44.20904 294.000
44.22899 313.000
44.24893 284.000
44.26888 283.000
44.28883 295.000
44.30877 298.000
44.32872 285.000
44.34867 283.000
44.36862 308.000
44.38856 293.000
44.40851 277.000
44.42846 310.000
44.44840 307.000
44.46835 305.000
44.48830 278.000
44.50824 292.000
44.52819 284.000
44.54814 297.000
44.56808 271.000
44.58803 281.000
44.60798 308.000
44.62793 292.000
44.64787 268.000
44.66782 277.000
44.68777 294.000
44.70771 298.000
44.72766 305.000
44.74761 285.000
44.76755 283.000
44.78750 290.000
44.80745 274.000
44.82740 310.000
44.84734 292.000
44.86729 285.000
44.88724 271.000
44.90718 268.000
44.92713 284.000
44.94708 281.000
44.96702 276.000
44.98697 301.000
45.00692 265.000
45.02686 249.000
45.04681 314.000
45.06676 283.000
45.08671 296.000
45.10665 261.000
45.12660 268.000
45.14655 285.000
45.16649 286.000
45.18644 282.000
45.20639 278.000
45.22633 290.000
45.24628 284.000
45.26623 280.000
45.28618 291.000
45.30612 262.000
45.32607 256.000
45.34602 286.000
45.36596 284.000
45.38591 305.000
45.40586 274.000
45.42580 269.000
45.44575 278.000
45.46570 264.000
45.48565 272.000
45.50559 308.000
45.52554 273.000
45.54549 277.000
45.56543 326.000
45.58538 316.000
45.60533 310.000
45.62527 282.000
45.64522 292.000
45.66517 286.000
45.68511 325.000
45.70506 304.000
45.72501 290.000
45.74496 296.000
45.76490 267.000
45.78485 276.000
45.80480 287.000
45.82474 289.000
45.84469 278.000
45.86464 277.000
45.88458 268.000
45.90453 261.000
45.92448 270.000
45.94443 279.000
45.96437 258.000
45.98432 268.000
46.00427 260.000
46.02421 267.000
46.04416 271.000
46.06411 276.000
46.08405 235.000
46.10400 230.000
46.12395 291.000
46.14389 276.000
46.16384 288.000
46.18379 265.000
46.20374 282.000
46.22368 302.000
46.24363 258.000
46.26358 280.000
46.28352 308.000
46.30347 260.000
46.32342 279.000
46.34336 233.000
46.36331 284.000
46.38326 273.000
46.40321 249.000
46.42315 295.000
46.44310 246.000
46.46305 247.000
46.48299 267.000
46.50294 281.000
46.52289 270.000
46.54283 273.000
46.56278 234.000
46.58273 231.000
46.60267 274.000
46.62262 281.000
46.64257 256.000
46.66252 287.000
46.68246 249.000
46.70241 296.000
46.72236 255.000
46.74230 255.000
46.76225 264.000
46.78220 262.000
46.80214 272.000
46.82209 279.000
46.84204 270.000
46.86199 253.000
46.88193 265.000
46.90188 250.000
46.92183 280.000
46.94177 277.000
46.96172 277.000
46.98167 268.000
47.00161 237.000
47.02156 295.000
47.04151 254.000
47.06146 256.000
47.08140 272.000
47.10135 240.000
47.12130 267.000
47.14124 278.000
47.16119 262.000
47.18114 245.000
47.20108 265.000
47.22103 259.000
47.24098 248.000
47.26092 227.000
47.28087 256.000
47.30082 247.000
47.32077 255.000
47.34071 271.000
47.36066 288.000
47.38061 268.000
47.40055 254.000
47.42050 299.000
47.44045 262.000
47.46039 251.000
47.48034 306.000
47.50029 267.000
47.52024 263.000
47.54018 252.000
47.56013 289.000
47.58008 274.000
47.60002 274.000
47.61997 273.000
47.63992 282.000
47.65986 280.000
47.67981 264.000
47.69976 305.000
47.71970 306.000
47.73965 287.000
47.75960 272.000
47.77955 263.000
47.79949 285.000
47.81944 259.000
47.83939 284.000
47.85933 304.000
47.87928 335.000
47.89923 294.000
47.91917 304.000
47.93912 289.000
47.95907 326.000
47.97902 278.000
47.99896 282.000
48.01891 301.000
48.03886 294.000
48.05880 356.000
48.07875 306.000
48.09870 312.000
48.11864 326.000
48.13859 309.000
48.15854 283.000
48.17848 299.000
48.19843 309.000
48.21838 308.000
48.23833 287.000
48.25827 270.000
48.27822 315.000
48.29817 290.000
48.31811 308.000
48.33806 286.000
48.35801 270.000
48.37795 272.000
48.39790 269.000
48.41785 238.000
48.43780 282.000
48.45774 280.000
48.47769 275.000
48.49764 268.000
48.51758 280.000
48.53753 278.000
48.55748 261.000
48.57742 279.000
48.59737 265.000
48.61732 302.000
48.63726 264.000
48.65721 282.000
48.67716 291.000
48.69711 289.000
48.71705 330.000
48.73700 273.000
48.75695 265.000
48.77689 257.000
48.79684 288.000
48.81679 258.000
48.83673 287.000
48.85668 293.000
48.87663 292.000
48.89658 276.000
48.91652 292.000
48.93647 317.000
48.95642 279.000
48.97636 275.000
48.99631 271.000
49.01626 307.000
49.03620 282.000
49.05615 263.000
49.07610 295.000
49.09605 282.000
49.11599 290.000
49.13594 293.000
49.15589 285.000
49.17583 297.000
49.19578 275.000
49.21573 304.000
49.23567 281.000
49.25562 296.000
49.27557 272.000
49.29551 279.000
49.31546 283.000
49.33541 307.000
49.35536 264.000
49.37530 278.000
49.39525 302.000
49.41520 292.000
49.43514 320.000
49.45509 310.000
49.47504 307.000
49.49498 277.000
49.51493 290.000
49.53488 317.000
49.55483 297.000
49.57477 285.000
49.59472 248.000
49.61467 280.000
49.63461 292.000
49.65456 291.000
49.67451 290.000
49.69445 284.000
49.71440 281.000
49.73435 258.000
49.75429 260.000
49.77424 260.000
49.79419 252.000
49.81414 256.000
49.83408 259.000
49.85403 273.000
49.87398 266.000
49.89392 275.000
49.91387 265.000
49.93382 263.000
49.95376 270.000
49.97371 269.000
49.99366 272.000
50.01361 260.000
50.03355 274.000
50.05350 272.000
50.07345 268.000
50.09339 264.000
50.11334 287.000
50.13329 263.000
50.15323 249.000
50.17318 232.000
50.19313 263.000
50.21307 266.000
50.23302 249.000
50.25297 266.000
50.27292 267.000
50.29286 269.000
50.31281 246.000
50.33276 285.000
50.35270 236.000
50.37265 262.000
50.39260 251.000
50.41254 222.000
50.43249 252.000
50.45244 254.000
50.47239 265.000
50.49233 258.000
50.51228 260.000
50.53223 259.000
50.55217 275.000
50.57212 243.000
50.59207 302.000
50.61201 268.000
50.63196 222.000
50.65191 224.000
50.67186 289.000
50.69180 263.000
50.71175 247.000
50.73170 265.000
50.75164 255.000
50.77159 265.000
50.79154 268.000
50.81148 269.000
50.83143 259.000
50.85138 239.000
50.87132 262.000
50.89127 228.000
50.91122 258.000
50.93117 254.000
50.95111 252.000
50.97106 291.000
50.99101 278.000
51.01095 251.000
51.03090 250.000
51.05085 265.000
51.07079 275.000
51.09074 266.000
51.11069 272.000
51.13064 262.000
51.15058 252.000
51.17053 283.000
51.19048 259.000
51.21042 253.000
51.23037 296.000
51.25032 281.000
51.27026 248.000
51.29021 296.000
51.31016 288.000
51.33010 307.000
51.35005 251.000
51.37000 275.000
51.38995 250.000
51.40989 272.000
51.42984 270.000
51.44979 226.000
51.46973 261.000
51.48968 244.000
51.50963 243.000
51.52957 270.000
51.54952 253.000
51.56947 248.000
51.58942 270.000
51.60936 281.000
51.62931 246.000
51.64926 269.000
51.66920 251.000
51.68915 239.000
51.70910 252.000
51.72904 239.000
51.74899 279.000
51.76894 252.000
51.78888 268.000
51.80883 291.000
51.82878 274.000
51.84873 282.000
51.86867 294.000
51.88862 278.000
51.90857 270.000
51.92851 310.000
51.94846 284.000
51.96841 306.000
51.98835 271.000
52.00830 283.000
52.02825 285.000
52.04820 295.000
52.06814 320.000
52.08809 334.000
52.10804 311.000
52.12798 341.000
52.14793 317.000
52.16788 326.000
52.18782 316.000
52.20777 303.000
52.22772 302.000
52.24767 312.000
52.26761 298.000
52.28756 274.000
52.30751 300.000
52.32745 268.000
52.34740 269.000
52.36735 258.000
52.38729 286.000
52.40724 257.000
52.42719 272.000
52.44713 256.000
52.46708 265.000
52.48703 253.000
52.50698 250.000
52.52692 281.000
52.54687 233.000
52.56682 249.000
52.58676 281.000
52.60671 253.000
52.62666 262.000
52.64660 256.000
52.66655 246.000
52.68650 237.000
52.70645 248.000
52.72639 270.000
52.74634 218.000
52.76629 240.000
52.78623 272.000
52.80618 282.000
52.82613 240.000
52.84607 246.000
52.86602 257.000
52.88597 264.000
52.90591 280.000
52.92586 257.000
52.94581 232.000
52.96576 221.000
52.98570 252.000
53.00565 286.000
53.02560 268.000
53.04554 283.000
53.06549 264.000
53.08544 231.000
53.10538 228.000
53.12533 261.000
53.14528 249.000
53.16523 248.000
53.18517 246.000
53.20512 250.000
53.22507 237.000
53.24501 237.000
53.26496 260.000
53.28491 258.000
53.30485 275.000
53.32480 276.000
53.34475 276.000
53.36469 261.000
53.38464 251.000
53.40459 222.000
53.42454 288.000
53.44448 249.000
53.46443 248.000
53.48438 263.000
53.50432 253.000
53.52427 234.000
53.54422 256.000
53.56416 276.000
53.58411 256.000
53.60406 295.000
53.62401 233.000
53.64395 253.000
53.66390 274.000
53.68385 258.000
53.70379 264.000
53.72374 285.000
53.74369 282.000
53.76363 292.000
53.78358 251.000
53.80353 277.000
53.82348 273.000
53.84342 264.000
53.86337 295.000
53.88332 265.000
53.90326 265.000
53.92321 273.000
53.94316 299.000
53.96310 273.000
53.98305 291.000
54.00300 312.000
54.02294 269.000
54.04289 260.000
54.06284 245.000
54.08279 265.000
54.10273 284.000
54.12268 302.000
54.14263 253.000
54.16257 245.000
54.18252 270.000
54.20247 315.000
54.22241 272.000
54.24236 265.000
54.26231 256.000
54.28226 248.000
54.30220 260.000
54.32215 246.000
54.34210 259.000
54.36204 262.000
54.38199 287.000
54.40194 263.000
54.42188 268.000
54.44183 245.000
54.46178 274.000
54.48172 275.000
54.50167 260.000
54.52162 277.000
54.54157 279.000
54.56151 253.000
54.58146 231.000
54.60141 228.000
54.62135 257.000
54.64130 238.000
54.66125 286.000
54.68119 302.000
54.70114 324.000
54.72109 279.000
54.74104 269.000
54.76098 285.000
54.78093 240.000
54.80088 266.000
54.82082 222.000
54.84077 282.000
54.86072 274.000
54.88066 245.000
54.90061 257.000
54.92056 260.000
54.94050 221.000
54.96045 253.000
54.98040 241.000
55.00035 269.000
55.02029 267.000
55.04024 231.000
55.06019 240.000
55.08013 250.000
55.10008 246.000
55.12003 244.000
55.13997 249.000
55.15992 211.000
55.17987 264.000
55.19982 274.000
55.21976 229.000
55.23971 264.000
55.25966 262.000
55.27960 218.000
55.29955 279.000
55.31950 255.000
55.33944 248.000
55.35939 261.000
55.37934 267.000
55.39929 238.000
55.41923 256.000
55.43918 289.000
55.45913 264.000
55.47907 282.000
55.49902 272.000
55.51897 268.000
55.53891 232.000
55.55886 274.000
55.57881 249.000
55.59875 248.000
55.61870 223.000
55.63865 251.000
55.65860 275.000
55.67854 259.000
55.69849 270.000
55.71844 263.000
55.73838 263.000
55.75833 270.000
55.77828 286.000
55.79822 253.000
55.81817 274.000
55.83812 266.000
55.85807 254.000
55.87801 233.000
55.89796 256.000
55.91791 238.000
55.93785 254.000
55.95780 259.000
55.97775 258.000
55.99769 252.000
56.01764 239.000
56.03759 240.000
56.05753 267.000
56.07748 252.000
56.09743 223.000
56.11738 256.000
56.13732 239.000
56.15727 250.000
56.17722 274.000
56.19716 243.000
56.21711 263.000
56.23706 267.000
56.25700 243.000
56.27695 257.000
56.29690 238.000
56.31685 263.000
56.33679 268.000
56.35674 280.000
56.37669 240.000
56.39663 263.000
56.41658 254.000
56.43653 259.000
56.45647 284.000
56.47642 263.000
56.49637 262.000
56.51631 255.000
56.53626 272.000
56.55621 232.000
56.57616 243.000
56.59610 261.000
56.61605 273.000
56.63600 285.000
56.65594 271.000
56.67589 260.000
56.69584 250.000
56.71578 253.000
56.73573 238.000
56.75568 266.000
56.77563 241.000
56.79557 249.000
56.81552 248.000
56.83547 267.000
56.85541 260.000
56.87536 273.000
56.89531 277.000
56.91525 234.000
56.93520 268.000
56.95515 293.000
56.97510 261.000
56.99504 270.000
57.01499 274.000
57.03494 254.000
57.05488 260.000
57.07483 278.000
57.09478 299.000
57.11472 274.000
57.13467 286.000
57.15462 310.000
57.17456 294.000
57.19451 277.000
57.21446 258.000
57.23441 299.000
57.25435 288.000
57.27430 255.000
57.29425 284.000
57.31419 322.000
57.33414 292.000
57.35409 277.000
57.37403 293.000
57.39398 286.000
57.41393 279.000
57.43388 317.000
57.45382 283.000
57.47377 304.000
57.49372 271.000
57.51366 288.000
57.53361 289.000
57.55356 293.000
57.57350 266.000
57.59345 267.000
57.61340 305.000
57.63334 259.000
57.65329 268.000
57.67324 253.000
57.69319 260.000
57.71313 299.000
57.73308 290.000
57.75303 261.000
57.77297 264.000
57.79292 242.000
57.81287 271.000
57.83281 305.000
57.85276 261.000
57.87271 277.000
57.89266 246.000
57.91260 249.000
57.93255 250.000
57.95250 262.000
57.97244 238.000
57.99239 240.000
58.01234 261.000
58.03228 264.000
58.05223 240.000
58.07218 274.000
58.09212 255.000
58.11207 273.000
58.13202 246.000
58.15197 211.000
58.17191 266.000
58.19186 230.000
58.21181 250.000
58.23175 271.000
58.25170 254.000
58.27165 262.000
58.29159 282.000
58.31154 262.000
58.33149 240.000
58.35144 256.000
58.37138 263.000
58.39133 278.000
58.41128 240.000
58.43122 276.000
58.45117 279.000
58.47112 256.000
58.49106 241.000
58.51101 263.000
58.53096 283.000
58.55090 226.000
58.57085 284.000
58.59080 243.000
58.61075 237.000
58.63069 267.000
58.65064 285.000
58.67059 288.000
58.69053 267.000
58.71048 274.000
58.73043 268.000
58.75037 280.000
58.77032 260.000
58.79027 287.000
58.81022 255.000
58.83016 277.000
58.85011 272.000
58.87006 258.000
58.89000 269.000
58.90995 232.000
58.92990 282.000
58.94984 272.000
58.96979 267.000
58.98974 279.000
59.00969 293.000
59.02963 257.000
59.04958 283.000
59.06953 262.000
59.08947 273.000
59.10942 265.000
59.12937 273.000
59.14931 256.000
59.16926 258.000
59.18921 271.000
59.20915 278.000
59.22910 286.000
59.24905 278.000
59.26900 241.000
59.28894 273.000
59.30889 237.000
59.32884 253.000
59.34878 296.000
59.36873 281.000
59.38868 253.000
59.40862 265.000
59.42857 284.000
59.44852 254.000
59.46847 328.000
59.48841 296.000
59.50836 297.000
59.52831 271.000
59.54825 287.000
59.56820 295.000
59.58815 312.000
59.60809 296.000
59.62804 292.000
59.64799 322.000
59.66793 318.000
59.68788 308.000
59.70783 309.000
59.72778 321.000
59.74772 333.000
59.76767 336.000
59.78762 353.000
59.80756 398.000
59.82751 380.000
59.84746 344.000
59.86740 385.000
59.88735 387.000
59.90730 399.000
59.92725 343.000
59.94719 354.000
59.96714 375.000
59.98709 345.000
60.00703 357.000
60.02698 339.000
60.04693 337.000
60.06687 328.000
60.08682 313.000
60.10677 286.000
60.12671 307.000
60.14666 323.000
60.16661 307.000
60.18656 280.000
60.20650 275.000
60.22645 309.000
60.24640 301.000
60.26634 302.000
60.28629 279.000
60.30624 261.000
60.32618 299.000
60.34613 294.000
60.36608 274.000
60.38603 299.000
60.40597 278.000
60.42592 303.000
60.44587 249.000
60.46581 279.000
60.48576 309.000
60.50571 290.000
60.52565 312.000
60.54560 266.000
60.56555 291.000
60.58550 274.000
60.60544 260.000
60.62539 273.000
60.64534 283.000
60.66528 296.000
60.68523 278.000
60.70518 293.000
60.72512 287.000
60.74507 287.000
60.76502 301.000
60.78496 303.000
60.80491 279.000
60.82486 297.000
60.84481 316.000
60.86475 289.000
60.88470 293.000
60.90465 274.000
60.92459 312.000
60.94454 299.000
60.96449 303.000
60.98443 314.000
61.00438 319.000
61.02433 328.000
61.04428 309.000
61.06422 296.000
61.08417 302.000
61.10412 310.000
61.12406 329.000
61.14401 336.000
61.16396 316.000
61.18390 347.000
61.20385 314.000
61.22380 326.000
61.24374 356.000
61.26369 360.000
61.28364 345.000
61.30359 347.000
61.32353 375.000
61.34348 373.000
61.36343 360.000
61.38337 405.000
61.40332 408.000
61.42327 372.000
61.44321 408.000
61.46316 393.000
61.48311 389.000
61.50306 375.000
61.52300 436.000
61.54295 451.000
61.56290 498.000
61.58284 492.000
61.60279 497.000
61.62274 492.000
61.64268 511.000
61.66263 515.000
61.68258 507.000
61.70252 504.000
61.72247 493.000
61.74242 492.000
61.76237 503.000
61.78231 503.000
61.80226 489.000
61.82221 487.000
61.84215 512.000
61.86210 544.000
61.88205 514.000
61.90199 526.000
61.92194 565.000
61.94189 552.000
61.96184 579.000
61.98178 618.000
62.00173 627.000
62.02168 640.000
62.04162 701.000
62.06157 754.000
62.08152 739.000
62.10146 821.000
62.12141 813.000
62.14136 883.000
62.16131 828.000
62.18125 886.000
62.20120 965.000
62.22115 1035.000
62.24109 983.000
62.26104 1047.000
62.28099 1081.000
62.30093 1116.000
62.32088 1187.000
62.34083 1223.000
62.36077 1246.000
62.38072 1306.000
62.40067 1347.000
62.42062 1318.000
62.44056 1350.000
62.46051 1334.000
62.48046 1403.000
62.50040 1352.000
62.52035 1410.000
62.54030 1384.000
62.56024 1377.000
62.58019 1364.000
62.60014 1297.000
62.62009 1342.000
62.64003 1343.000
62.65998 1301.000
62.67993 1184.000
62.69987 1204.000
62.71982 1174.000
62.73977 1225.000
62.75971 1185.000
62.77966 1119.000
62.79961 1054.000
62.81955 998.000
62.83950 989.000
62.85945 889.000
62.87940 867.000
62.89934 779.000
62.91929 707.000
62.93924 754.000
62.95918 638.000
62.97913 631.000
62.99908 612.000
63.01902 604.000
63.03897 540.000
63.05892 492.000
63.07887 443.000
63.09881 441.000
63.11876 396.000
63.13871 379.000
63.15865 380.000
63.17860 358.000
63.19855 329.000
63.21849 331.000
63.23844 337.000
63.25839 307.000
63.27833 303.000
63.29828 326.000
63.31823 313.000
63.33818 304.000
63.35812 306.000
63.37807 314.000
63.39802 303.000
63.41796 310.000
63.43791 264.000
63.45786 283.000
63.47780 292.000
63.49775 270.000
63.51770 294.000
63.53765 279.000
63.55759 282.000
63.57754 290.000
63.59749 279.000
63.61743 265.000
63.63738 287.000
63.65733 277.000
63.67727 264.000
63.69722 299.000
63.71717 269.000
63.73712 253.000
63.75706 297.000
63.77701 297.000
63.79696 280.000
63.81690 289.000
63.83685 286.000
63.85680 296.000
63.87674 271.000
63.89669 306.000
63.91664 307.000
63.93658 334.000
63.95653 275.000
63.97648 299.000
63.99643 287.000
64.01637 267.000
64.03632 294.000
64.05627 286.000
64.07621 293.000
64.09616 290.000
64.11611 303.000
64.13605 294.000
64.15600 299.000
64.17595 331.000
64.19590 317.000
64.21584 320.000
64.23579 285.000
64.25574 318.000
64.27568 264.000
64.29563 276.000
64.31558 295.000
64.33552 282.000
64.35547 280.000
64.37542 311.000
64.39536 282.000
64.41531 287.000
64.43526 293.000
64.45521 265.000
64.47515 251.000
64.49510 281.000
64.51505 314.000
64.53499 284.000
64.55494 303.000
64.57489 308.000
64.59483 303.000
64.61478 315.000
64.63473 293.000
64.65468 264.000
64.67462 269.000
64.69457 300.000
64.71452 269.000
64.73446 270.000
64.75441 313.000
64.77436 271.000
64.79430 250.000
64.81425 276.000
64.83420 288.000
64.85414 265.000
64.87409 267.000
64.89404 259.000
64.91399 289.000
64.93393 275.000
64.95388 276.000
64.97383 305.000
64.99377 284.000
65.01372 264.000
65.03367 298.000
65.05361 271.000
65.07356 267.000
65.09351 283.000
65.11346 270.000
65.13340 274.000
65.15335 267.000
65.17330 275.000
65.19324 260.000
65.21319 291.000
65.23314 265.000
65.25308 275.000
65.27303 282.000
65.29298 283.000
65.31293 298.000
65.33287 284.000
65.35282 301.000
65.37277 329.000
65.39271 265.000
65.41266 297.000
65.43261 296.000
65.45255 268.000
65.47250 313.000
65.49245 310.000
65.51239 321.000
65.53234 295.000
65.55229 314.000
65.57224 267.000
65.59218 318.000
65.61213 315.000
65.63208 298.000
65.65202 301.000
65.67197 297.000
65.69192 297.000
65.71186 344.000
65.73181 327.000
65.75176 339.000
65.77171 346.000
65.79165 311.000
65.81160 287.000
65.83155 333.000
65.85149 282.000
65.87144 276.000
65.89139 284.000
65.91133 284.000
65.93128 294.000
65.95123 267.000
65.97117 289.000
65.99112 294.000
66.01107 272.000
66.03102 284.000
66.05096 261.000
66.07091 253.000
66.09086 261.000
66.11080 304.000
66.13075 272.000
66.15070 268.000
66.17064 247.000
66.19059 290.000
66.21054 284.000
66.23049 241.000
66.25043 279.000
66.27038 239.000
66.29033 251.000
66.31027 283.000
66.33022 261.000
66.35017 274.000
66.37011 282.000
66.39006 253.000
66.41001 270.000
66.42995 266.000
66.44990 247.000
66.46985 254.000
66.48980 233.000
66.50974 261.000
66.52969 241.000
66.54964 251.000
66.56958 267.000
66.58953 259.000
66.60948 253.000
66.62942 253.000
66.64937 255.000
66.66932 289.000
66.68927 268.000
66.70921 232.000
66.72916 273.000
66.74911 264.000
66.76905 241.000
66.78900 252.000
66.80895 257.000
66.82889 258.000
66.84884 240.000
66.86879 280.000
66.88874 264.000
66.90868 258.000
66.92863 270.000
66.94858 271.000
66.96852 259.000
66.98847 271.000
67.00842 249.000
67.02836 262.000
67.04831 274.000
67.06826 271.000
67.08820 245.000
67.10815 228.000
67.12810 238.000
67.14805 267.000
67.16799 267.000
67.18794 239.000
67.20789 266.000
67.22783 235.000
67.24778 261.000
67.26773 293.000
67.28767 245.000
67.30762 255.000
67.32757 229.000
67.34752 263.000
67.36746 224.000
67.38741 243.000
67.40736 230.000
67.42730 257.000
67.44725 245.000
67.46720 248.000
67.48714 253.000
67.50709 226.000
67.52704 253.000
67.54698 236.000
67.56693 249.000
67.58688 241.000
67.60683 271.000
67.62677 243.000
67.64672 240.000
67.66667 247.000
67.68661 220.000
67.70656 233.000
67.72651 248.000
67.74645 240.000
67.76640 244.000
67.78635 232.000
67.80630 282.000
67.82624 240.000
67.84619 271.000
67.86614 257.000
67.88608 248.000
67.90603 228.000
67.92598 237.000
67.94592 234.000
67.96587 292.000
67.98582 269.000
68.00576 237.000
68.02571 269.000
68.04566 278.000
68.06561 267.000
68.08555 278.000
68.10550 244.000
68.12545 273.000
68.14539 265.000
68.16534 261.000
68.18529 271.000
68.20523 255.000
68.22518 238.000
68.24513 247.000
68.26508 274.000
68.28502 258.000
68.30497 259.000
68.32492 239.000
68.34486 264.000
68.36481 246.000
68.38476 261.000
68.40470 247.000
68.42465 278.000
68.44460 255.000
68.46455 246.000
68.48449 248.000
68.50444 280.000
68.52439 260.000
68.54433 259.000
68.56428 246.000
68.58423 255.000
68.60417 255.000
68.62412 252.000
68.64407 233.000
68.66401 240.000
68.68396 243.000
68.70391 257.000
68.72386 261.000
68.74380 234.000
68.76375 249.000
68.78370 290.000
68.80364 259.000
68.82359 255.000
68.84354 254.000
68.86348 267.000
68.88343 249.000
68.90338 245.000
68.92333 240.000
68.94327 268.000
68.96322 252.000
68.98317 246.000
69.00311 225.000
69.02306 242.000
69.04301 240.000
69.06295 266.000
69.08290 246.000
69.10285 253.000
69.12279 245.000
69.14274 260.000
69.16269 236.000
69.18264 223.000
69.20258 244.000
69.22253 259.000
69.24248 256.000
69.26242 249.000
69.28237 256.000
69.30232 262.000
69.32226 272.000
69.34221 242.000
69.36216 238.000
69.38211 285.000
69.40205 244.000
69.42200 246.000
69.44195 232.000
69.46189 245.000
69.48184 239.000
69.50179 261.000
69.52173 245.000
69.54168 269.000
69.56163 263.000
69.58157 225.000
69.60152 236.000
69.62147 263.000
69.64142 237.000
69.66136 272.000
69.68131 242.000
69.70126 256.000
69.72120 236.000
69.74115 252.000
69.76110 230.000
69.78104 220.000
69.80099 241.000
69.82094 238.000
69.84089 228.000
69.86083 288.000
69.88078 240.000
69.90073 262.000
69.92067 244.000
69.94062 230.000
69.96057 228.000
69.98051 270.000
70.00046 229.000
70.02041 248.000
70.04035 268.000
70.06030 238.000
70.08025 263.000
70.10020 256.000
70.12014 270.000
70.14009 238.000
70.16004 262.000
70.17998 244.000
70.19993 245.000
70.21988 226.000
70.23982 258.000
70.25977 264.000
70.27972 251.000
70.29967 250.000
70.31961 272.000
70.33956 258.000
70.35951 262.000
70.37945 244.000
70.39940 240.000
70.41935 238.000
70.43929 235.000
70.45924 245.000
70.47919 274.000
70.49914 231.000
70.51908 239.000
70.53903 252.000
70.55898 264.000
70.57892 266.000
70.59887 272.000
70.61882 238.000
70.63876 268.000
70.65871 247.000
70.67866 254.000
70.69860 233.000
70.71855 224.000
70.73850 258.000
70.75845 276.000
70.77839 246.000
70.79834 267.000
70.81829 266.000
70.83823 228.000
70.85818 265.000
70.87813 278.000
70.89807 250.000
70.91802 239.000
70.93797 256.000
70.95792 254.000
70.97786 255.000
70.99781 253.000
71.01776 257.000
71.03770 277.000
71.05765 249.000
71.07760 249.000
71.09754 249.000
71.11749 293.000
71.13744 265.000
71.15738 263.000
71.17733 283.000
71.19728 305.000
71.21723 284.000
71.23717 286.000
71.25712 264.000
71.27707 271.000
71.29701 292.000
71.31696 284.000
71.33691 287.000
71.35685 272.000
71.37680 278.000
71.39675 277.000
71.41670 265.000
71.43664 240.000
71.45659 292.000
71.47654 272.000
71.49648 281.000
71.51643 269.000
71.53638 281.000
71.55632 262.000
71.57627 283.000
71.59622 247.000
71.61616 271.000
71.63611 273.000
71.65606 263.000
71.67601 255.000
71.69595 295.000
71.71590 279.000
71.73585 271.000
71.75579 249.000
71.77574 251.000
71.79569 247.000
71.81563 233.000
71.83558 249.000
71.85553 270.000
71.87548 261.000
71.89542 252.000
71.91537 263.000
71.93532 232.000
71.95526 252.000
71.97521 263.000
71.99516 245.000
72.01510 282.000
72.03505 271.000
72.05500 256.000
72.07495 260.000
72.09489 247.000
72.11484 272.000
72.13479 262.000
72.15473 251.000
72.17468 266.000
72.19463 264.000
72.21457 242.000
72.23452 244.000
72.25447 253.000
72.27441 263.000
72.29436 252.000
72.31431 278.000
72.33426 248.000
72.35420 251.000
72.37415 265.000
72.39410 248.000
72.41404 257.000
72.43399 278.000
72.45394 278.000
72.47388 227.000
72.49383 265.000
72.51378 281.000
72.53373 260.000
72.55367 307.000
72.57362 256.000
72.59357 259.000
72.61351 257.000
72.63346 259.000
72.65341 269.000
72.67335 248.000
72.69330 265.000
72.71325 258.000
72.73319 269.000
72.75314 274.000
72.77309 275.000
72.79304 303.000
72.81298 281.000
72.83293 281.000
72.85288 295.000
72.87282 282.000
72.89277 316.000
72.91272 298.000
72.93266 307.000
72.95261 277.000
72.97256 308.000
72.99251 312.000
73.01245 301.000
73.03240 310.000
73.05235 296.000
73.07229 295.000
73.09224 291.000
73.11219 312.000
73.13213 311.000
73.15208 303.000
73.17203 246.000
73.19197 261.000
73.21192 308.000
73.23187 294.000
73.25182 320.000
73.27176 269.000
73.29171 283.000
73.31166 283.000
73.33160 246.000
73.35155 257.000
73.37150 303.000
73.39144 272.000
73.41139 281.000
73.43134 283.000
73.45129 299.000
73.47123 292.000
73.49118 283.000
73.51113 257.000
73.53107 298.000
73.55102 315.000
73.57097 295.000
73.59091 283.000
73.61086 294.000
73.63081 247.000
73.65076 317.000
73.67070 311.000
73.69065 288.000
73.71060 301.000
73.73054 286.000
73.75049 287.000
73.77044 287.000
73.79038 281.000
73.81033 302.000
73.83028 288.000
73.85022 281.000
73.87017 278.000
73.89012 326.000
73.91007 279.000
73.93001 279.000
73.94996 292.000
73.96991 283.000
73.98985 325.000
74.00980 319.000
74.02975 297.000
74.04969 319.000
74.06964 277.000
74.08959 312.000
74.10954 328.000
74.12948 323.000
74.14943 333.000
74.16938 334.000
74.18932 324.000
74.20927 332.000
74.22922 314.000
74.24916 374.000
74.26911 332.000
74.28906 380.000
74.30900 368.000
74.32895 359.000
74.34890 370.000
74.36885 390.000
74.38879 392.000
74.40874 417.000
74.42869 419.000
74.44863 432.000
74.46858 388.000
74.48853 449.000
74.50847 448.000
74.52842 471.000
74.54837 473.000
74.56832 500.000
74.58826 438.000
74.60821 472.000
74.62816 522.000
74.64810 492.000
74.66805 500.000
74.68800 568.000
74.70794 552.000
74.72789 523.000
74.74784 545.000
74.76778 553.000
74.78773 612.000
74.80768 541.000
74.82763 585.000
74.84757 567.000
74.86752 589.000
74.88747 605.000
74.90741 614.000
74.92736 538.000
74.94731 583.000
74.96725 582.000
74.98720 581.000
75.00715 612.000
75.02710 583.000
75.04704 576.000
75.06699 574.000
75.08694 563.000
75.10688 530.000
75.12683 527.000
75.14678 569.000
75.16672 529.000
75.18667 499.000
75.20662 510.000
75.22657 516.000
75.24651 549.000
75.26646 522.000
75.28641 500.000
75.30635 519.000
75.32630 489.000
75.34625 433.000
75.36619 489.000
75.38614 451.000
75.40609 458.000
75.42603 438.000
75.44598 410.000
75.46593 391.000
75.48588 362.000
75.50582 365.000
75.52577 382.000
75.54572 369.000
75.56566 362.000
75.58561 327.000
75.60556 317.000
75.62550 322.000
75.64545 305.000
75.66540 316.000
75.68535 300.000
75.70529 322.000
75.72524 295.000
75.74519 272.000
75.76513 291.000
75.78508 276.000
75.80503 267.000
75.82497 265.000
75.84492 256.000
75.86487 270.000
75.88481 250.000
75.90476 279.000
75.92471 250.000
75.94466 273.000
75.96460 311.000
75.98455 283.000
76.00450 265.000
76.02444 254.000
76.04439 257.000
76.06434 249.000
76.08428 275.000
76.10423 266.000
76.12418 272.000
76.14413 266.000
76.16407 248.000
76.18402 237.000
76.20397 246.000
76.22391 247.000
76.24386 267.000
76.26381 282.000
76.28375 254.000
76.30370 276.000
76.32365 240.000
76.34359 267.000
76.36354 258.000
76.38349 267.000
76.40344 266.000
76.42338 243.000
76.44333 265.000
76.46328 283.000
76.48322 245.000
76.50317 285.000
76.52312 268.000
76.54306 231.000
76.56301 229.000
76.58296 278.000
76.60291 274.000
76.62285 252.000
76.64280 269.000
76.66275 241.000
76.68269 250.000
76.70264 236.000
76.72259 238.000
76.74253 246.000
76.76248 273.000
76.78243 245.000
76.80238 277.000
76.82232 278.000
76.84227 289.000
76.86222 255.000
76.88216 244.000
76.90211 242.000
76.92206 270.000
76.94200 235.000
76.96195 256.000
76.98190 251.000
77.00184 277.000
77.02179 284.000
77.04174 234.000
77.06169 243.000
77.08163 268.000
77.10158 236.000
77.12153 302.000
77.14147 279.000
77.16142 288.000
77.18137 284.000
77.20131 278.000
77.22126 256.000
77.24121 276.000
77.26116 278.000
77.28110 305.000
77.30105 278.000
77.32100 277.000
77.34094 286.000
77.36089 305.000
77.38084 306.000
77.40078 274.000
77.42073 273.000
77.44068 304.000
77.46062 286.000
77.48057 288.000
77.50052 290.000
77.52047 306.000
77.54041 288.000
77.56036 261.000
77.58031 285.000
77.60025 264.000
77.62020 281.000
77.64015 290.000
77.66009 257.000
77.68004 304.000
77.69999 271.000
77.71994 259.000
77.73988 246.000
77.75983 250.000
77.77978 267.000
77.79972 286.000
77.81967 245.000
77.83962 246.000
77.85956 278.000
77.87951 275.000
77.89946 260.000
77.91940 260.000
77.93935 283.000
77.95930 286.000
77.97925 273.000
77.99919 304.000
78.01914 288.000
78.03909 289.000
78.05903 274.000
78.07898 311.000
78.09893 297.000
78.11887 286.000
78.13882 277.000
78.15877 288.000
78.17872 300.000
78.19866 315.000
78.21861 307.000
78.23856 315.000
78.25850 355.000
78.27845 317.000
78.29840 324.000
78.31834 335.000
78.33829 318.000
78.35824 338.000
78.37819 322.000
78.39813 350.000
78.41808 336.000
78.43803 359.000
78.45797 378.000
78.47792 370.000
78.49787 395.000
78.51781 386.000
78.53776 401.000
78.55771 380.000
78.57765 394.000
78.59760 396.000
78.61755 419.000
78.63750 457.000
78.65744 449.000
78.67739 435.000
78.69734 476.000
78.71728 432.000
78.73723 464.000
78.75718 473.000
78.77712 470.000
78.79707 460.000
78.81702 488.000
78.83697 489.000
78.85691 525.000
78.87686 510.000
78.89681 508.000
78.91675 504.000
78.93670 478.000
78.95665 482.000
78.97659 436.000
78.99654 476.000
79.01649 487.000
79.03643 485.000
79.05638 461.000
79.07633 490.000
79.09628 494.000
79.11622 453.000
79.13617 452.000
79.15612 426.000
79.17606 444.000
79.19601 458.000
79.21596 446.000
79.23590 412.000
79.25585 408.000
79.27580 408.000
79.29575 429.000
79.31569 388.000
79.33564 436.000
79.35559 391.000
79.37553 380.000
79.39548 371.000
79.41543 371.000
79.43537 363.000
79.45532 332.000
79.47527 354.000
79.49521 340.000
79.51516 324.000
79.53511 286.000
79.55506 322.000
79.57500 308.000
79.59495 309.000
79.61490 297.000
79.63484 312.000
79.65479 285.000
79.67474 272.000
79.69468 241.000
79.71463 286.000
79.73458 264.000
79.75453 249.000
79.77447 268.000
79.79442 240.000
79.81437 252.000
79.83431 282.000
79.85426 274.000
79.87421 252.000
79.89415 247.000
79.91410 244.000
79.93405 282.000
79.95399 247.000
79.97394 289.000
79.99389 260.000
80.01384 257.000
80.03378 234.000
80.05373 267.000
80.07368 241.000
80.09362 217.000
80.11357 277.000
80.13352 249.000
80.15346 228.000
80.17341 244.000
80.19336 256.000
80.21331 257.000
80.23325 228.000
80.25320 237.000
80.27315 266.000
80.29309 251.000
80.31304 248.000
80.33299 233.000
80.35293 262.000
80.37288 256.000
80.39283 256.000
80.41278 249.000
80.43272 241.000
80.45267 251.000
80.47262 255.000
80.49256 229.000
80.51251 268.000
80.53246 261.000
80.55240 235.000
80.57235 233.000
80.59230 255.000
80.61224 261.000
80.63219 262.000
80.65214 233.000
80.67209 239.000
80.69203 229.000
80.71198 282.000
80.73193 264.000
80.75187 250.000
80.77182 242.000
80.79177 242.000
80.81171 220.000
80.83166 251.000
80.85161 238.000
80.87156 254.000
80.89150 230.000
80.91145 273.000
80.93140 263.000
80.95134 208.000
80.97129 237.000
80.99124 239.000
81.01118 240.000
81.03113 239.000
81.05108 253.000
81.07102 245.000
81.09097 249.000
81.11092 254.000
81.13087 238.000
81.15081 253.000
81.17076 252.000
81.19071 250.000
81.21065 257.000
81.23060 249.000
81.25055 251.000
81.27049 255.000
81.29044 242.000
81.31039 269.000
81.33034 252.000
81.35028 277.000
81.37023 264.000
81.39018 250.000
81.41012 262.000
81.43007 244.000
81.45002 241.000
81.46996 236.000
81.48991 225.000
81.50986 249.000
81.52980 247.000
81.54975 234.000
81.56970 252.000
81.58965 250.000
81.60959 235.000
81.62954 251.000
81.64949 265.000
81.66943 239.000
81.68938 283.000
81.70933 270.000
81.72927 227.000
81.74922 234.000
81.76917 245.000
81.78912 260.000
81.80906 255.000
81.82901 247.000
81.84896 244.000
81.86890 247.000
81.88885 243.000
81.90880 244.000
81.92874 262.000
81.94869 268.000
81.96864 257.000
81.98859 245.000
82.00853 272.000
82.02848 238.000
82.04843 249.000
82.06837 244.000
82.08832 276.000
82.10827 263.000
82.12821 280.000
82.14816 260.000
82.16811 242.000
82.18805 261.000
82.20800 247.000
82.22795 230.000
82.24790 239.000
82.26784 243.000
82.28779 275.000
82.30774 275.000
82.32768 240.000
82.34763 263.000
82.36758 265.000
82.38752 261.000
82.40747 258.000
82.42742 251.000
82.44737 270.000
82.46731 278.000
82.48726 256.000
82.50721 224.000
82.52715 275.000
82.54710 263.000
82.56705 275.000
82.58699 242.000
82.60694 224.000
82.62689 256.000
82.64683 262.000
82.66678 254.000
82.68673 274.000
82.70668 280.000
82.72662 246.000
82.74657 246.000
82.76652 251.000
82.78646 233.000
82.80641 260.000
82.82636 244.000
82.84630 243.000
82.86625 265.000
82.88620 259.000
82.90615 260.000
82.92609 257.000
82.94604 265.000
82.96599 249.000
82.98593 243.000
83.00588 260.000
83.02583 246.000
83.04577 276.000
83.06572 252.000
83.08567 230.000
83.10561 272.000
83.12556 257.000
83.14551 232.000
83.16546 262.000
83.18540 250.000
83.20535 245.000
83.22530 249.000
83.24524 213.000
83.26519 241.000
83.28514 257.000
83.30508 266.000
83.32503 274.000
83.34498 245.000
83.36493 224.000
83.38487 270.000
83.40482 276.000
83.42477 262.000
83.44471 240.000
83.46466 214.000
83.48461 202.000
83.50455 242.000
83.52450 216.000
83.54445 274.000
83.56440 215.000
83.58434 242.000
83.60429 224.000
83.62424 257.000
83.64418 267.000
83.66413 245.000
83.68408 274.000
83.70402 238.000
83.72397 268.000
83.74392 245.000
83.76386 256.000
83.78381 262.000
83.80376 257.000
83.82371 258.000
83.84365 261.000
83.86360 276.000
83.88355 245.000
83.90349 267.000
83.92344 236.000
83.94339 249.000
83.96333 245.000
83.98328 218.000
84.00323 255.000
84.02318 245.000
84.04312 240.000
84.06307 257.000
84.08302 249.000
84.10296 263.000
84.12291 240.000
84.14286 244.000
84.16280 220.000
84.18275 250.000
84.20270 241.000
84.22264 244.000
84.24259 256.000
84.26254 252.000
84.28249 223.000
84.30243 244.000
84.32238 247.000
84.34233 260.000
84.36227 231.000
84.38222 258.000
84.40217 247.000
84.42211 272.000
84.44206 237.000
84.46201 259.000
84.48196 251.000
84.50190 271.000
84.52185 255.000
84.54180 238.000
84.56174 236.000
84.58169 236.000
84.60164 224.000
84.62158 264.000
84.64153 234.000
84.66148 247.000
84.68142 243.000
84.70137 229.000
84.72132 233.000
84.74127 253.000
84.76121 237.000
84.78116 264.000
84.80111 257.000
84.82105 235.000
84.84100 271.000
84.86095 234.000
84.88089 251.000
84.90084 226.000
84.92079 252.000
84.94074 239.000
84.96068 258.000
84.98063 242.000
85.00058 239.000
85.02052 240.000
85.04047 241.000
85.06042 256.000
85.08036 237.000
85.10031 248.000
85.12026 233.000
85.14021 254.000
85.16015 240.000
85.18010 265.000
85.20005 237.000
85.21999 246.000
85.23994 271.000
85.25989 243.000
85.27983 235.000
85.29978 237.000
85.31973 259.000
85.33967 199.000
85.35962 264.000
85.37957 245.000
85.39952 259.000
85.41946 239.000
85.43941 258.000
85.45936 250.000
85.47930 268.000
85.49925 229.000
85.51920 244.000
85.53914 204.000
85.55909 265.000
85.57904 247.000
85.59899 238.000
85.61893 229.000
85.63888 228.000
85.65883 237.000
85.67877 236.000
85.69872 236.000
85.71867 227.000
85.73861 253.000
85.75856 264.000
85.77851 260.000
85.79845 226.000
85.81840 229.000
85.83835 244.000
85.85830 263.000
85.87824 255.000
85.89819 248.000
85.91814 238.000
85.93808 239.000
85.95803 267.000
85.97798 251.000
85.99792 256.000
86.01787 258.000
86.03782 235.000
86.05777 271.000
86.07771 252.000
86.09766 221.000
86.11761 240.000
86.13755 256.000
86.15750 231.000
86.17745 247.000
86.19739 258.000
86.21734 240.000
86.23729 242.000
86.25723 243.000
86.27718 218.000
86.29713 250.000
86.31708 243.000
86.33702 282.000
86.35697 267.000
86.37692 227.000
86.39686 228.000
86.41681 238.000
86.43676 235.000
86.45670 262.000
86.47665 240.000
86.49660 269.000
86.51655 260.000
86.53649 223.000
86.55644 222.000
86.57639 265.000
86.59633 240.000
86.61628 224.000
86.63623 241.000
86.65617 246.000
86.67612 273.000
86.69607 253.000
86.71602 251.000
86.73596 265.000
86.75591 230.000
86.77586 251.000
86.79580 251.000
86.81575 255.000
86.83570 286.000
86.85564 271.000
86.87559 255.000
86.89554 234.000
86.91548 256.000
86.93543 249.000
86.95538 256.000
86.97533 247.000
86.99527 278.000
87.01522 256.000
87.03517 281.000
87.05511 287.000
87.07506 263.000
87.09501 268.000
87.11495 248.000
87.13490 281.000
87.15485 276.000
87.17480 289.000
87.19474 267.000
87.21469 269.000
87.23464 265.000
87.25458 274.000
87.27453 254.000
87.29448 270.000
87.31442 253.000
87.33437 268.000
87.35432 282.000
87.37426 284.000
87.39421 251.000
87.41416 265.000
87.43411 273.000
87.45405 265.000
87.47400 259.000
87.49395 276.000
87.51389 250.000
87.53384 243.000
87.55379 251.000
87.57373 268.000
87.59368 263.000
87.61363 288.000
87.63358 227.000
87.65352 264.000
87.67347 256.000
87.69342 285.000
87.71336 264.000
87.73331 248.000
87.75326 263.000
87.77320 254.000
87.79315 273.000
87.81310 231.000
87.83304 264.000
87.85299 255.000
87.87294 260.000
87.89289 271.000
87.91283 262.000
87.93278 259.000
87.95273 231.000
87.97267 248.000
87.99262 262.000
88.01257 236.000
88.03251 209.000
88.05246 234.000
88.07241 238.000
88.09236 252.000
88.11230 242.000
88.13225 282.000
88.15220 260.000
88.17214 235.000
88.19209 270.000
88.21204 242.000
88.23198 251.000
88.25193 217.000
88.27188 250.000
88.29183 248.000
88.31177 240.000
88.33172 227.000
88.35167 257.000
88.37161 235.000
88.39156 241.000
88.41151 266.000
88.43145 256.000
88.45140 241.000
88.47135 241.000
88.49129 251.000
88.51124 244.000
88.53119 233.000
88.55114 248.000
88.57108 249.000
88.59103 248.000
88.61098 212.000
88.63092 255.000
88.65087 252.000
88.67082 237.000
88.69076 230.000
88.71071 241.000
88.73066 268.000
88.75061 242.000
88.77055 257.000
88.79050 208.000
88.81045 260.000
88.83039 255.000
88.85034 255.000
88.87029 264.000
88.89023 260.000
88.91018 239.000
88.93013 241.000
88.95007 252.000
88.97002 225.000
88.98997 256.000
89.00992 252.000
89.02986 237.000
89.04981 266.000
89.06976 252.000
89.08970 254.000
89.10965 244.000
89.12960 260.000
89.14954 228.000
89.16949 230.000
89.18944 245.000
89.20939 253.000
89.22933 232.000
89.24928 252.000
89.26923 264.000
89.28917 214.000
89.30912 248.000
89.32907 248.000
89.34901 263.000
89.36896 258.000
89.38891 218.000
89.40885 218.000
89.42880 239.000
89.44875 250.000
89.46870 221.000
89.48864 256.000
89.50859 251.000
89.52854 230.000
89.54848 242.000
89.56843 238.000
89.58838 271.000
89.60832 246.000
89.62827 240.000
89.64822 241.000
89.66817 242.000
89.68811 201.000
89.70806 239.000
89.72801 250.000
89.74795 232.000
89.76790 240.000
89.78785 246.000
89.80779 271.000
89.82774 232.000
89.84769 261.000
89.86764 240.000
89.88758 233.000
89.90753 247.000
89.92748 251.000
89.94742 279.000
89.96737 229.000
89.98732 243.000
90.00726 255.000
