10.00000 56.000
10.01995 74.000
10.03989 59.000
10.05984 64.000
10.07979 79.000
10.09973 67.000
10.11968 57.000
10.13963 65.000
10.15958 69.000
10.17952 67.000
10.19947 69.000
10.21942 60.000
10.23936 65.000
10.25931 64.000
10.27926 58.000
10.29920 61.000
10.31915 64.000
10.33910 71.000
10.35905 66.000
10.37899 68.000
10.39894 47.000
10.41889 51.000
10.43883 60.000
10.45878 65.000
10.47873 66.000
10.49867 56.000
10.51862 76.000
10.53857 57.000
10.55851 70.000
10.57846 71.000
10.59841 62.000
10.61836 49.000
10.63830 84.000
10.65825 71.000
10.67820 59.000
10.69814 64.000
10.71809 73.000
10.73804 53.000
10.75798 65.000
10.77793 65.000
10.79788 69.000
10.81783 62.000
10.83777 71.000
10.85772 55.000
10.87767 62.000
10.89761 65.000
10.91756 57.000
10.93751 56.000
10.95745 65.000
10.97740 55.000
10.99735 86.000
11.01730 58.000
11.03724 59.000
11.05719 64.000
11.07714 63.000
11.09708 64.000
11.11703 70.000
11.13698 68.000
11.15692 65.000
11.17687 78.000
11.19682 74.000
11.21676 74.000
11.23671 58.000
11.25666 61.000
11.27661 74.000
11.29655 62.000
11.31650 49.000
11.33645 73.000
11.35639 84.000
11.37634 59.000
11.39629 58.000
11.41623 76.000
11.43618 66.000
11.45613 81.000
11.47608 60.000
11.49602 63.000
11.51597 75.000
11.53592 61.000
11.55586 72.000
11.57581 64.000
11.59576 61.000
11.61570 73.000
11.63565 69.000
11.65560 68.000
11.67554 76.000
11.69549 63.000
11.71544 70.000
11.73539 64.000
11.75533 62.000
11.77528 63.000
11.79523 58.000
11.81517 60.000
11.83512 78.000
11.85507 55.000
11.87501 80.000
11.89496 80.000
11.91491 58.000
11.93486 54.000
11.95480 68.000
11.97475 62.000
11.99470 72.000
12.01464 70.000
12.03459 66.000
12.05454 71.000
12.07448 73.000
12.09443 60.000
12.11438 52.000
12.13432 65.000
12.15427 71.000
12.17422 85.000
12.19417 79.000
12.21411 69.000
12.23406 60.000
12.25401 59.000
12.27395 53.000
12.29390 59.000
12.31385 69.000
12.33379 70.000
12.35374 77.000
12.37369 61.000
12.39364 73.000
12.41358 75.000
12.43353 78.000
12.45348 82.000
12.47342 66.000
12.49337 61.000
12.51332 70.000
12.53326 63.000
12.55321 86.000
12.57316 65.000
12.59311 69.000
12.61305 58.000
12.63300 71.000
12.65295 48.000
12.67289 80.000
12.69284 58.000
12.71279 77.000
12.73273 70.000
12.75268 72.000
12.77263 66.000
12.79257 76.000
12.81252 78.000
12.83247 71.000
12.85242 63.000
12.87236 79.000
12.89231 70.000
12.91226 64.000
12.93220 59.000
12.95215 67.000
12.97210 61.000
12.99204 72.000
13.01199 74.000
13.03194 64.000
13.05189 58.000
13.07183 74.000
13.09178 69.000
13.11173 66.000
13.13167 64.000
13.15162 59.000
13.17157 60.000
13.19151 60.000
13.21146 74.000
13.23141 74.000
13.25135 72.000
13.27130 69.000
13.29125 62.000
13.31120 75.000
13.33114 70.000
13.35109 71.000
13.37104 62.000
13.39098 81.000
13.41093 63.000
13.43088 75.000
13.45082 60.000
13.47077 66.000
13.49072 59.000
13.51067 65.000
13.53061 63.000
13.55056 59.000
13.57051 65.000
13.59045 62.000
13.61040 67.000
13.63035 70.000
13.65029 59.000
13.67024 54.000
13.69019 68.000
13.71013 57.000
13.73008 82.000
13.75003 61.000
13.76998 61.000
13.78992 64.000
13.80987 60.000
13.82982 67.000
13.84976 67.000
13.86971 66.000
13.88966 78.000
13.90960 61.000
13.92955 76.000
13.94950 50.000
13.96945 60.000
13.98939 58.000
14.00934 59.000
14.02929 70.000
14.04923 62.000
14.06918 76.000
14.08913 69.000
14.10907 65.000
14.12902 62.000
14.14897 81.000
14.16892 47.000
14.18886 72.000
14.20881 61.000
14.22876 80.000
14.24870 57.000
14.26865 64.000
14.28860 82.000
14.30854 85.000
14.32849 66.000
14.34844 60.000
14.36838 85.000
14.38833 82.000
14.40828 69.000
14.42823 77.000
14.44817 78.000
14.46812 58.000
14.48807 66.000
14.50801 75.000
14.52796 82.000
14.54791 67.000
14.56785 63.000
14.58780 73.000
14.60775 64.000
14.62770 80.000
14.64764 77.000
14.66759 76.000
14.68754 61.000
14.70748 80.000
14.72743 67.000
14.74738 59.000
14.76732 67.000
14.78727 86.000
14.80722 80.000
14.82716 84.000
14.84711 84.000
14.86706 75.000
14.88701 87.000
14.90695 82.000
14.92690 82.000
14.94685 91.000
14.96679 64.000
14.98674 75.000
15.00669 65.000
15.02663 98.000
15.04658 72.000
15.06653 83.000
15.08648 66.000
15.10642 94.000
15.12637 76.000
15.14632 92.000
15.16626 93.000
15.18621 82.000
15.20616 78.000
15.22610 111.000
15.24605 101.000
15.26600 89.000
15.28594 110.000
15.30589 112.000
15.32584 123.000
15.34579 100.000
15.36573 103.000
15.38568 110.000
15.40563 110.000
15.42557 106.000
15.44552 120.000
15.46547 106.000
15.48541 105.000
15.50536 128.000
15.52531 119.000
15.54526 120.000
15.56520 141.000
15.58515 122.000
15.60510 139.000
15.62504 146.000
15.64499 155.000
15.66494 161.000
15.68488 208.000
15.70483 220.000
15.72478 280.000
15.74472 377.000
15.76467 479.000
15.78462 661.000
15.80457 955.000
15.82451 1270.000
15.84446 1767.000
15.86441 2254.000
15.88435 3087.000
15.90430 3837.000
15.92425 4393.000
15.94419 4365.000
15.96414 3719.000
15.98409 2859.000
16.00404 1665.000
16.02398 1032.000
16.04393 625.000
16.06388 449.000
16.08382 399.000
16.10377 541.000
16.12372 671.000
16.14366 985.000
16.16361 1329.000
16.18356 1753.000
16.20351 2145.000
16.22345 2270.000
16.24340 2202.000
16.26335 1989.000
16.28329 1653.000
16.30324 1273.000
16.32319 999.000
16.34313 813.000
16.36308 603.000
16.38303 423.000
16.40297 311.000
16.42292 233.000
16.44287 173.000
16.46282 174.000
16.48276 155.000
16.50271 109.000
16.52266 92.000
16.54260 103.000
16.56255 102.000
16.58250 99.000
16.60244 91.000
16.62239 105.000
16.64234 98.000
16.66229 79.000
16.68223 79.000
16.70218 89.000
16.72213 78.000
16.74207 89.000
16.76202 94.000
16.78197 90.000
16.80191 94.000
16.82186 86.000
16.84181 96.000
16.86175 94.000
16.88170 87.000
16.90165 75.000
16.92160 86.000
16.94154 89.000
16.96149 70.000
16.98144 75.000
17.00138 96.000
17.02133 76.000
17.04128 86.000
17.06122 69.000
17.08117 91.000
17.10112 71.000
17.12107 65.000
17.14101 78.000
17.16096 57.000
17.18091 71.000
17.20085 71.000
17.22080 71.000
17.24075 61.000
17.26069 76.000
17.28064 78.000
17.30059 61.000
17.32053 77.000
17.34048 79.000
17.36043 68.000
17.38038 65.000
17.40032 96.000
17.42027 66.000
17.44022 78.000
17.46016 66.000
17.48011 64.000
17.50006 79.000
17.52000 78.000
17.53995 76.000
17.55990 85.000
17.57985 68.000
17.59979 78.000
17.61974 78.000
17.63969 79.000
17.65963 76.000
17.67958 76.000
17.69953 74.000
17.71947 68.000
17.73942 66.000
17.75937 83.000
17.77932 78.000
17.79926 74.000
17.81921 62.000
17.83916 75.000
17.85910 63.000
17.87905 61.000
17.89900 70.000
17.91894 65.000
17.93889 78.000
17.95884 71.000
17.97878 57.000
17.99873 75.000
18.01868 72.000
18.03863 73.000
18.05857 88.000
18.07852 76.000
18.09847 84.000
18.11841 71.000
18.13836 73.000
18.15831 66.000
18.17825 66.000
18.19820 83.000
18.21815 80.000
18.23810 66.000
18.25804 82.000
18.27799 79.000
18.29794 84.000
18.31788 84.000
18.33783 109.000
18.35778 93.000
18.37772 111.000
18.39767 139.000
18.41762 123.000
18.43756 131.000
18.45751 99.000
18.47746 118.000
18.49741 68.000
18.51735 87.000
18.53730 90.000
18.55725 65.000
18.57719 68.000
18.59714 74.000
18.61709 78.000
18.63703 73.000
18.65698 69.000
18.67693 62.000
18.69688 95.000
18.71682 88.000
18.73677 66.000
18.75672 64.000
18.77666 72.000
18.79661 87.000
18.81656 92.000
18.83650 72.000
18.85645 70.000
18.87640 76.000
18.89634 60.000
18.91629 66.000
18.93624 62.000
18.95619 73.000
18.97613 75.000
18.99608 74.000
19.01603 70.000
19.03597 62.000
19.05592 65.000
19.07587 71.000
19.09581 69.000
19.11576 69.000
19.13571 74.000
19.15566 62.000
19.17560 71.000
19.19555 75.000
19.21550 80.000
19.23544 50.000
19.25539 71.000
19.27534 66.000
19.29528 63.000
19.31523 80.000
19.33518 86.000
19.35513 65.000
19.37507 75.000
19.39502 79.000
19.41497 78.000
19.43491 59.000
19.45486 68.000
19.47481 71.000
19.49475 54.000
19.51470 79.000
19.53465 73.000
19.55459 71.000
19.57454 70.000
19.59449 78.000
19.61444 64.000
19.63438 68.000
19.65433 67.000
19.67428 71.000
19.69422 71.000
19.71417 77.000
19.73412 81.000
19.75406 80.000
19.77401 81.000
19.79396 65.000
19.81391 71.000
19.83385 75.000
19.85380 57.000
19.87375 76.000
19.89369 82.000
19.91364 96.000
19.93359 65.000
19.95353 75.000
19.97348 74.000
19.99343 69.000
20.01337 71.000
20.03332 76.000
20.05327 60.000
20.07322 77.000
20.09316 79.000
20.11311 69.000
20.13306 62.000
20.15300 85.000
20.17295 70.000
20.19290 71.000
20.21284 82.000
20.23279 68.000
20.25274 80.000
20.27269 73.000
20.29263 85.000
20.31258 59.000
20.33253 68.000
20.35247 66.000
20.37242 62.000
20.39237 58.000
20.41231 70.000
20.43226 67.000
20.45221 76.000
20.47215 92.000
20.49210 70.000
20.51205 72.000
20.53200 76.000
20.55194 53.000
20.57189 72.000
20.59184 70.000
20.61178 58.000
20.63173 80.000
20.65168 71.000
20.67162 66.000
20.69157 94.000
20.71152 67.000
20.73147 77.000
20.75141 73.000
20.77136 72.000
20.79131 67.000
20.81125 76.000
20.83120 91.000
20.85115 93.000
20.87109 103.000
20.89104 112.000
20.91099 104.000
20.93094 112.000
20.95088 111.000
20.97083 108.000
20.99078 136.000
21.01072 110.000
21.03067 85.000
21.05062 110.000
21.07056 73.000
21.09051 88.000
21.11046 99.000
21.13040 84.000
21.15035 78.000
21.17030 87.000
21.19025 81.000
21.21019 74.000
21.23014 62.000
21.25009 75.000
21.27003 73.000
21.28998 70.000
21.30993 91.000
21.32987 66.000
21.34982 88.000
21.36977 78.000
21.38972 70.000
21.40966 76.000
21.42961 75.000
21.44956 79.000
21.46950 74.000
21.48945 69.000
21.50940 67.000
21.52934 76.000
21.54929 80.000
21.56924 77.000
21.58918 72.000
21.60913 56.000
21.62908 69.000
21.64903 63.000
21.66897 72.000
21.68892 86.000
21.70887 79.000
21.72881 65.000
21.74876 88.000
21.76871 76.000
21.78865 75.000
21.80860 75.000
21.82855 75.000
21.84850 65.000
21.86844 70.000
21.88839 77.000
21.90834 68.000
21.92828 75.000
21.94823 83.000
21.96818 73.000
21.98812 69.000
22.00807 71.000
22.02802 63.000
22.04796 80.000
22.06791 68.000
22.08786 68.000
22.10781 75.000
22.12775 67.000
22.14770 73.000
22.16765 71.000
22.18759 71.000
22.20754 79.000
22.22749 78.000
22.24743 95.000
22.26738 58.000
22.28733 73.000
22.30728 71.000
22.32722 81.000
22.34717 75.000
22.36712 80.000
22.38706 75.000
22.40701 60.000
22.42696 59.000
22.44690 65.000
22.46685 69.000
22.48680 78.000
22.50675 71.000
22.52669 78.000
22.54664 79.000
22.56659 81.000
22.58653 62.000
22.60648 90.000
22.62643 70.000
22.64637 75.000
22.66632 64.000
22.68627 66.000
22.70621 69.000
22.72616 80.000
22.74611 83.000
22.76606 86.000
22.78600 77.000
22.80595 75.000
22.82590 72.000
22.84584 79.000
22.86579 73.000
22.88574 78.000
22.90568 78.000
22.92563 87.000
22.94558 89.000
22.96553 77.000
22.98547 59.000
23.00542 80.000
23.02537 92.000
23.04531 58.000
23.06526 88.000
23.08521 74.000
23.10515 62.000
23.12510 76.000
23.14505 83.000
23.16499 74.000
23.18494 82.000
23.20489 62.000
23.22484 78.000
23.24478 69.000
23.26473 89.000
23.28468 69.000
23.30462 60.000
23.32457 82.000
23.34452 78.000
23.36446 67.000
23.38441 71.000
23.40436 76.000
23.42431 77.000
23.44425 58.000
23.46420 71.000
23.48415 81.000
23.50409 70.000
23.52404 81.000
23.54399 65.000
23.56393 77.000
23.58388 76.000
23.60383 71.000
23.62377 83.000
23.64372 99.000
23.66367 80.000
23.68362 73.000
23.70356 76.000
23.72351 68.000
23.74346 74.000
23.76340 78.000
23.78335 77.000
23.80330 65.000
23.82324 68.000
23.84319 72.000
23.86314 83.000
23.88309 74.000
23.90303 78.000
23.92298 68.000
23.94293 54.000
23.96287 64.000
23.98282 71.000
24.00277 78.000
24.02271 84.000
24.04266 66.000
24.06261 78.000
24.08256 67.000
24.10250 75.000
24.12245 67.000
24.14240 70.000
24.16234 76.000
24.18229 79.000
24.20224 77.000
24.22218 94.000
24.24213 70.000
24.26208 65.000
24.28202 58.000
24.30197 83.000
24.32192 68.000
24.34187 74.000
24.36181 78.000
24.38176 72.000
24.40171 81.000
24.42165 70.000
24.44160 71.000
24.46155 81.000
24.48149 76.000
24.50144 75.000
24.52139 71.000
24.54134 72.000
24.56128 63.000
24.58123 89.000
24.60118 56.000
24.62112 72.000
24.64107 72.000
24.66102 89.000
24.68096 80.000
24.70091 66.000
24.72086 61.000
24.74080 74.000
24.76075 76.000
24.78070 89.000
24.80065 71.000
24.82059 74.000
24.84054 84.000
24.86049 86.000
24.88043 68.000
24.90038 77.000
24.92033 65.000
24.94027 88.000
24.96022 64.000
24.98017 95.000
25.00012 73.000
25.02006 75.000
25.04001 79.000
25.05996 80.000
25.07990 100.000
25.09985 74.000
25.11980 77.000
25.13974 90.000
25.15969 73.000
25.17964 75.000
25.19958 85.000
25.21953 61.000
25.23948 65.000
25.25943 61.000
25.27937 80.000
25.29932 68.000
25.31927 83.000
25.33921 80.000
25.35916 75.000
25.37911 51.000
25.39905 86.000
25.41900 67.000
25.43895 76.000
25.45890 67.000
25.47884 67.000
25.49879 71.000
25.51874 72.000
25.53868 80.000
25.55863 90.000
25.57858 71.000
25.59852 71.000
25.61847 66.000
25.63842 70.000
25.65837 70.000
25.67831 67.000
25.69826 77.000
25.71821 72.000
25.73815 70.000
25.75810 72.000
25.77805 77.000
25.79799 79.000
25.81794 65.000
25.83789 80.000
25.85783 82.000
25.87778 64.000
25.89773 76.000
25.91768 62.000
25.93762 68.000
25.95757 70.000
25.97752 91.000
25.99746 72.000
26.01741 84.000
26.03736 83.000
26.05730 85.000
26.07725 75.000
26.09720 74.000
26.11715 69.000
26.13709 71.000
26.15704 74.000
26.17699 73.000
26.19693 61.000
26.21688 83.000
26.23683 63.000
26.25677 80.000
26.27672 68.000
26.29667 83.000
26.31661 92.000
26.33656 76.000
26.35651 80.000
26.37646 66.000
26.39640 80.000
26.41635 60.000
26.43630 78.000
26.45624 67.000
26.47619 68.000
26.49614 76.000
26.51608 83.000
26.53603 86.000
26.55598 81.000
26.57593 85.000
26.59587 98.000
26.61582 75.000
26.63577 78.000
26.65571 73.000
26.67566 74.000
26.69561 96.000
26.71555 70.000
26.73550 81.000
26.75545 85.000
26.77539 79.000
26.79534 86.000
26.81529 80.000
26.83524 81.000
26.85518 61.000
26.87513 75.000
26.89508 81.000
26.91502 72.000
26.93497 89.000
26.95492 85.000
26.97486 74.000
26.99481 68.000
27.01476 79.000
27.03471 93.000
27.05465 69.000
27.07460 75.000
27.09455 87.000
27.11449 73.000
27.13444 77.000
27.15439 71.000
27.17433 79.000
27.19428 79.000
27.21423 84.000
27.23417 72.000
27.25412 70.000
27.27407 85.000
27.29402 66.000
27.31396 72.000
27.33391 87.000
27.35386 78.000
27.37380 60.000
27.39375 61.000
27.41370 73.000
27.43364 73.000
27.45359 69.000
27.47354 83.000
27.49349 82.000
27.51343 74.000
27.53338 77.000
27.55333 79.000
27.57327 75.000
27.59322 75.000
27.61317 77.000
27.63311 77.000
27.65306 80.000
27.67301 68.000
27.69296 100.000
27.71290 84.000
27.73285 81.000
27.75280 90.000
27.77274 93.000
27.79269 61.000
27.81264 79.000
27.83258 76.000
27.85253 71.000
27.87248 80.000
27.89242 80.000
27.91237 66.000
27.93232 77.000
27.95227 95.000
27.97221 78.000
27.99216 75.000
28.01211 86.000
28.03205 85.000
28.05200 99.000
28.07195 69.000
28.09189 76.000
28.11184 75.000
28.13179 84.000
28.15174 79.000
28.17168 79.000
28.19163 81.000
28.21158 73.000
28.23152 85.000
28.25147 87.000
28.27142 73.000
28.29136 77.000
28.31131 78.000
28.33126 90.000
28.35120 91.000
28.37115 72.000
28.39110 94.000
28.41105 81.000
28.43099 64.000
28.45094 84.000
28.47089 88.000
28.49083 78.000
28.51078 71.000
28.53073 78.000
28.55067 71.000
28.57062 88.000
28.59057 65.000
28.61052 50.000
28.63046 77.000
28.65041 84.000
28.67036 73.000
28.69030 87.000
28.71025 75.000
28.73020 70.000
28.75014 72.000
28.77009 60.000
28.79004 88.000
28.80998 85.000
28.82993 85.000
28.84988 88.000
28.86983 78.000
28.88977 82.000
28.90972 80.000
28.92967 71.000
28.94961 70.000
28.96956 91.000
28.98951 77.000
29.00945 77.000
29.02940 95.000
29.04935 77.000
29.06930 83.000
29.08924 90.000
29.10919 82.000
29.12914 84.000
29.14908 74.000
29.16903 69.000
29.18898 76.000
29.20892 78.000
29.22887 69.000
29.24882 75.000
29.26877 76.000
29.28871 81.000
29.30866 85.000
29.32861 78.000
29.34855 107.000
29.36850 75.000
29.38845 69.000
29.40839 91.000
29.42834 104.000
29.44829 84.000
29.46823 91.000
29.48818 85.000
29.50813 78.000
29.52808 94.000
29.54802 85.000
29.56797 84.000
29.58792 86.000
29.60786 78.000
29.62781 98.000
29.64776 91.000
29.66770 89.000
29.68765 76.000
29.70760 74.000
29.72755 67.000
29.74749 69.000
29.76744 94.000
29.78739 87.000
29.80733 68.000
29.82728 97.000
29.84723 89.000
29.86717 75.000
29.88712 93.000
29.90707 96.000
29.92701 93.000
29.94696 90.000
29.96691 92.000
29.98686 98.000
30.00680 99.000
30.02675 97.000
30.04670 101.000
30.06664 91.000
30.08659 97.000
30.10654 106.000
30.12648 118.000
30.14643 107.000
30.16638 106.000
30.18633 120.000
30.20627 149.000
30.22622 153.000
30.24617 162.000
30.26611 184.000
30.28606 198.000
30.30601 185.000
30.32595 176.000
30.34590 156.000
30.36585 136.000
30.38579 157.000
30.40574 121.000
30.42569 120.000
30.44564 91.000
30.46558 78.000
30.48553 90.000
30.50548 83.000
30.52542 91.000
30.54537 91.000
30.56532 96.000
30.58526 63.000
30.60521 78.000
30.62516 89.000
30.64511 85.000
30.66505 77.000
30.68500 92.000
30.70495 57.000
30.72489 96.000
30.74484 78.000
30.76479 85.000
30.78473 90.000
30.80468 76.000
30.82463 90.000
30.84458 85.000
30.86452 95.000
30.88447 97.000
30.90442 89.000
30.92436 81.000
30.94431 80.000
30.96426 77.000
30.98420 75.000
31.00415 71.000
31.02410 74.000
31.04404 81.000
31.06399 82.000
31.08394 84.000
31.10389 95.000
31.12383 82.000
31.14378 83.000
31.16373 86.000
31.18367 92.000
31.20362 80.000
31.22357 81.000
31.24351 83.000
31.26346 80.000
31.28341 70.000
31.30336 77.000
31.32330 90.000
31.34325 78.000
31.36320 84.000
31.38314 90.000
31.40309 68.000
31.42304 76.000
31.44298 90.000
31.46293 89.000
31.48288 63.000
31.50282 89.000
31.52277 72.000
31.54272 75.000
31.56267 92.000
31.58261 82.000
31.60256 83.000
31.62251 86.000
31.64245 75.000
31.66240 101.000
31.68235 93.000
31.70229 78.000
31.72224 88.000
31.74219 100.000
31.76214 97.000
31.78208 90.000
31.80203 105.000
31.82198 111.000
31.84192 113.000
31.86187 115.000
31.88182 134.000
31.90176 130.000
31.92171 142.000
31.94166 180.000
31.96160 202.000
31.98155 240.000
32.00150 258.000
32.02145 287.000
32.04139 312.000
32.06134 326.000
32.08129 388.000
32.10123 421.000
32.12118 457.000
32.14113 385.000
32.16107 393.000
32.18102 360.000
32.20097 312.000
32.22092 266.000
32.24086 189.000
32.26081 171.000
32.28076 146.000
32.30070 134.000
32.32065 108.000
32.34060 88.000
32.36054 106.000
32.38049 87.000
32.40044 92.000
32.42039 92.000
32.44033 89.000
32.46028 91.000
32.48023 114.000
32.50017 130.000
32.52012 137.000
32.54007 131.000
32.56001 146.000
32.57996 178.000
32.59991 189.000
32.61985 210.000
32.63980 248.000
32.65975 244.000
32.67970 286.000
32.69964 245.000
32.71959 277.000
32.73954 298.000
32.75948 247.000
32.77943 230.000
32.79938 216.000
32.81932 208.000
32.83927 207.000
32.85922 187.000
32.87917 182.000
32.89911 162.000
32.91906 151.000
32.93901 147.000
32.95895 151.000
32.97890 132.000
32.99885 110.000
33.01879 120.000
33.03874 105.000
33.05869 107.000
33.07863 91.000
33.09858 119.000
33.11853 86.000
33.13848 77.000
33.15842 88.000
33.17837 87.000
33.19832 88.000
33.21826 87.000
33.23821 101.000
33.25816 79.000
33.27810 80.000
33.29805 83.000
33.31800 87.000
33.33795 72.000
33.35789 78.000
33.37784 76.000
33.39779 65.000
33.41773 68.000
33.43768 86.000
33.45763 69.000
33.47757 95.000
33.49752 100.000
33.51747 69.000
33.53741 76.000
33.55736 102.000
33.57731 94.000
33.59726 86.000
33.61720 91.000
33.63715 70.000
33.65710 93.000
33.67704 87.000
33.69699 99.000
33.71694 80.000
33.73688 87.000
33.75683 94.000
33.77678 83.000
33.79673 89.000
33.81667 79.000
33.83662 74.000
33.85657 82.000
33.87651 99.000
33.89646 87.000
33.91641 82.000
33.93635 96.000
33.95630 78.000
33.97625 89.000
33.99620 98.000
34.01614 81.000
34.03609 89.000
34.05604 80.000
34.07598 103.000
34.09593 82.000
34.11588 90.000
34.13582 102.000
34.15577 85.000
34.17572 81.000
34.19566 96.000
34.21561 105.000
34.23556 111.000
34.25551 96.000
34.27545 95.000
34.29540 109.000
34.31535 113.000
34.33529 86.000
34.35524 94.000
34.37519 109.000
34.39513 97.000
34.41508 131.000
34.43503 140.000
34.45498 116.000
34.47492 114.000
34.49487 119.000
34.51482 107.000
34.53476 133.000
34.55471 138.000
34.57466 123.000
34.59460 132.000
34.61455 144.000
34.63450 117.000
34.65444 131.000
34.67439 120.000
34.69434 110.000
34.71429 89.000
34.73423 99.000
34.75418 112.000
34.77413 112.000
34.79407 83.000
34.81402 100.000
34.83397 104.000
34.85391 102.000
34.87386 109.000
34.89381 85.000
34.91376 103.000
34.93370 89.000
34.95365 82.000
34.97360 125.000
34.99354 90.000
35.01349 88.000
35.03344 113.000
35.05338 87.000
35.07333 98.000
35.09328 94.000
35.11322 102.000
35.13317 94.000
35.15312 100.000
35.17307 108.000
35.19301 115.000
35.21296 104.000
35.23291 116.000
35.25285 120.000
35.27280 126.000
35.29275 149.000
35.31269 118.000
35.33264 129.000
35.35259 196.000
35.37254 183.000
35.39248 242.000
35.41243 247.000
35.43238 260.000
35.45232 345.000
35.47227 468.000
35.49222 559.000
35.51216 638.000
35.53211 714.000
35.55206 829.000
35.57201 977.000
35.59195 1000.000
35.61190 1038.000
35.63185 1010.000
35.65179 1001.000
35.67174 1000.000
35.69169 911.000
35.71163 873.000
35.73158 720.000
35.75153 619.000
35.77147 539.000
35.79142 466.000
35.81137 367.000
35.83132 299.000
35.85126 252.000
35.87121 237.000
35.89116 174.000
35.91110 156.000
35.93105 118.000
35.95100 149.000
35.97094 134.000
35.99089 146.000
36.01084 94.000
36.03079 114.000
36.05073 100.000
36.07068 110.000
36.09063 93.000
36.11057 79.000
36.13052 92.000
36.15047 103.000
36.17041 100.000
36.19036 121.000
36.21031 111.000
36.23025 104.000
36.25020 84.000
36.27015 94.000
36.29010 73.000
36.31004 95.000
36.32999 100.000
36.34994 101.000
36.36988 123.000
36.38983 98.000
36.40978 111.000
36.42972 88.000
36.44967 117.000
36.46962 131.000
36.48957 127.000
36.50951 135.000
36.52946 123.000
36.54941 126.000
36.56935 107.000
36.58930 116.000
36.60925 125.000
36.62919 108.000
36.64914 134.000
36.66909 136.000
36.68903 142.000
36.70898 161.000
36.72893 131.000
36.74888 188.000
36.76882 197.000
36.78877 239.000
36.80872 248.000
36.82866 286.000
36.84861 339.000
36.86856 350.000
36.88850 373.000
36.90845 415.000
36.92840 359.000
36.94835 341.000
36.96829 336.000
36.98824 276.000
37.00819 234.000
37.02813 209.000
37.04808 181.000
37.06803 168.000
37.08797 148.000
37.10792 148.000
37.12787 156.000
37.14781 117.000
37.16776 105.000
37.18771 133.000
37.20766 110.000
37.22760 139.000
37.24755 122.000
37.26750 123.000
37.28744 122.000
37.30739 119.000
37.32734 118.000
37.34728 128.000
37.36723 120.000
37.38718 99.000
37.40713 90.000
37.42707 100.000
37.44702 100.000
37.46697 113.000
37.48691 94.000
37.50686 92.000
37.52681 91.000
37.54675 83.000
37.56670 98.000
37.58665 91.000
37.60660 93.000
37.62654 78.000
37.64649 81.000
37.66644 113.000
37.68638 99.000
37.70633 86.000
37.72628 84.000
37.74622 82.000
37.76617 94.000
37.78612 94.000
37.80606 89.000
37.82601 84.000
37.84596 85.000
37.86591 100.000
37.88585 100.000
37.90580 83.000
37.92575 99.000
37.94569 83.000
37.96564 89.000
37.98559 89.000
38.00553 81.000
38.02548 77.000
38.04543 96.000
38.06538 88.000
38.08532 83.000
38.10527 88.000
38.12522 110.000
38.14516 70.000
38.16511 99.000
38.18506 84.000
38.20500 86.000
38.22495 82.000
38.24490 96.000
38.26484 89.000
38.28479 95.000
38.30474 97.000
38.32469 86.000
38.34463 97.000
38.36458 102.000
38.38453 80.000
38.40447 97.000
38.42442 117.000
38.44437 88.000
38.46431 102.000
38.48426 98.000
38.50421 116.000
38.52416 111.000
38.54410 106.000
38.56405 99.000
38.58400 125.000
38.60394 136.000
38.62389 156.000
38.64384 169.000
38.66378 185.000
38.68373 207.000
38.70368 197.000
38.72362 216.000
38.74357 276.000
38.76352 241.000
38.78347 248.000
38.80341 266.000
38.82336 251.000
38.84331 250.000
38.86325 243.000
38.88320 271.000
38.90315 251.000
38.92309 232.000
38.94304 250.000
38.96299 247.000
38.98294 273.000
39.00288 303.000
39.02283 303.000
39.04278 363.000
39.06272 406.000
39.08267 513.000
39.10262 636.000
39.12256 834.000
39.14251 882.000
39.16246 911.000
39.18241 863.000
39.20235 869.000
39.22230 894.000
39.24225 792.000
39.26219 678.000
39.28214 574.000
39.30209 512.000
39.32203 455.000
39.34198 358.000
39.36193 296.000
39.38187 273.000
39.40182 234.000
39.42177 176.000
39.44172 189.000
39.46166 159.000
39.48161 137.000
39.50156 156.000
39.52150 126.000
39.54145 120.000
39.56140 123.000
39.58134 117.000
39.60129 120.000
39.62124 105.000
39.64119 96.000
39.66113 95.000
39.68108 106.000
39.70103 89.000
39.72097 97.000
39.74092 105.000
39.76087 95.000
39.78081 104.000
39.80076 111.000
39.82071 102.000
39.84065 103.000
39.86060 81.000
39.88055 117.000
39.90050 92.000
39.92044 97.000
39.94039 76.000
39.96034 90.000
39.98028 81.000
40.00023 87.000
40.02018 83.000
40.04012 93.000
40.06007 71.000
40.08002 85.000
40.09997 89.000
40.11991 77.000
40.13986 74.000
40.15981 79.000
40.17975 98.000
40.19970 81.000
40.21965 97.000
40.23959 92.000
40.25954 84.000
40.27949 97.000
40.29943 80.000
40.31938 65.000
40.33933 85.000
40.35928 110.000
40.37922 95.000
40.39917 73.000
40.41912 83.000
40.43906 94.000
40.45901 88.000
40.47896 90.000
40.49890 77.000
40.51885 95.000
40.53880 90.000
40.55875 96.000
40.57869 87.000
40.59864 83.000
40.61859 90.000
40.63853 88.000
40.65848 85.000
40.67843 103.000
40.69837 99.000
40.71832 87.000
40.73827 64.000
40.75822 83.000
40.77816 73.000
40.79811 88.000
40.81806 74.000
40.83800 96.000
40.85795 79.000
40.87790 84.000
40.89784 92.000
40.91779 85.000
40.93774 106.000
40.95768 82.000
40.97763 94.000
40.99758 113.000
41.01753 83.000
41.03747 95.000
41.05742 92.000
41.07737 80.000
41.09731 96.000
41.11726 102.000
41.13721 107.000
41.15715 92.000
41.17710 94.000
41.19705 105.000
41.21700 113.000
41.23694 101.000
41.25689 91.000
41.27684 119.000
41.29678 107.000
41.31673 116.000
41.33668 107.000
41.35662 114.000
41.37657 145.000
41.39652 121.000
41.41646 153.000
41.43641 175.000
41.45636 178.000
41.47631 205.000
41.49625 293.000
41.51620 331.000
41.53615 397.000
41.55609 493.000
41.57604 694.000
41.59599 858.000
41.61593 1121.000
41.63588 1415.000
41.65583 1611.000
41.67578 1710.000
41.69572 1590.000
41.71567 1420.000
41.73562 1172.000
41.75556 1059.000
41.77551 991.000
41.79546 852.000
41.81540 671.000
41.83535 497.000
41.85530 310.000
41.87524 248.000
41.89519 219.000
41.91514 151.000
41.93509 165.000
41.95503 130.000
41.97498 118.000
41.99493 132.000
42.01487 100.000
42.03482 117.000
42.05477 106.000
42.07471 99.000
42.09466 105.000
42.11461 116.000
42.13456 108.000
42.15450 113.000
42.17445 81.000
42.19440 90.000
42.21434 92.000
42.23429 95.000
42.25424 95.000
42.27418 102.000
42.29413 106.000
42.31408 98.000
42.33403 97.000
42.35397 101.000
42.37392 92.000
42.39387 79.000
42.41381 95.000
42.43376 108.000
42.45371 94.000
42.47365 96.000
42.49360 96.000
42.51355 88.000
42.53349 108.000
42.55344 92.000
42.57339 83.000
42.59334 81.000
42.61328 87.000
42.63323 74.000
42.65318 84.000
42.67312 98.000
42.69307 91.000
42.71302 74.000
42.73296 78.000
42.75291 92.000
42.77286 81.000
42.79281 81.000
42.81275 88.000
42.83270 78.000
42.85265 105.000
42.87259 97.000
42.89254 128.000
42.91249 126.000
42.93243 95.000
42.95238 96.000
42.97233 118.000
42.99227 102.000
43.01222 101.000
43.03217 119.000
43.05212 114.000
43.07206 128.000
43.09201 138.000
43.11196 138.000
43.13190 162.000
43.15185 172.000
43.17180 206.000
43.19174 204.000
43.21169 290.000
43.23164 319.000
43.25159 365.000
43.27153 461.000
43.29148 470.000
43.31143 509.000
43.33137 470.000
43.35132 437.000
43.37127 425.000
43.39121 416.000
43.41116 374.000
43.43111 355.000
43.45105 303.000
43.47100 274.000
43.49095 207.000
43.51090 165.000
43.53084 159.000
43.55079 130.000
43.57074 124.000
43.59068 120.000
43.61063 118.000
43.63058 115.000
43.65052 103.000
43.67047 88.000
43.69042 102.000
43.71037 96.000
43.73031 80.000
43.75026 103.000
43.77021 92.000
43.79015 100.000
43.81010 85.000
43.83005 85.000
43.84999 69.000
43.86994 91.000
43.88989 97.000
43.90984 78.000
43.92978 97.000
43.94973 98.000
43.96968 99.000
43.98962 76.000
44.00957 89.000
44.02952 74.000
44.04946 83.000
44.06941 77.000
44.08936 79.000
44.10930 81.000
44.12925 74.000
44.14920 66.000
44.16915 85.000
44.18909 90.000
44.20904 72.000
44.22899 85.000
44.24893 75.000
44.26888 93.000
44.28883 83.000
44.30877 91.000
44.32872 72.000
44.34867 73.000
44.36862 73.000
44.38856 78.000
44.40851 93.000
44.42846 91.000
44.44840 77.000
44.46835 83.000
44.48830 88.000
44.50824 74.000
44.52819 69.000
44.54814 82.000
44.56808 88.000
44.58803 94.000
44.60798 77.000
44.62793 91.000
44.64787 87.000
44.66782 83.000
44.68777 76.000
44.70771 81.000
44.72766 81.000
44.74761 83.000
44.76755 79.000
44.78750 89.000
44.80745 92.000
44.82740 68.000
44.84734 90.000
44.86729 108.000
44.88724 110.000
44.90718 116.000
44.92713 120.000
44.94708 126.000
44.96702 146.000
44.98697 138.000
45.00692 137.000
45.02686 141.000
45.04681 110.000
45.06676 112.000
45.08671 114.000
45.10665 102.000
45.12660 82.000
45.14655 101.000
45.16649 88.000
45.18644 77.000
45.20639 67.000
45.22633 75.000
45.24628 80.000
45.26623 86.000
45.28618 80.000
45.30612 84.000
45.32607 79.000
45.34602 74.000
45.36596 84.000
45.38591 94.000
45.40586 69.000
45.42580 93.000
45.44575 63.000
45.46570 105.000
45.48565 76.000
45.50559 79.000
45.52554 76.000
45.54549 81.000
45.56543 84.000
45.58538 79.000
45.60533 74.000
45.62527 80.000
45.64522 92.000
45.66517 79.000
45.68511 93.000
45.70506 85.000
45.72501 70.000
45.74496 87.000
45.76490 93.000
45.78485 69.000
45.80480 83.000
45.82474 75.000
45.84469 79.000
45.86464 80.000
45.88458 82.000
45.90453 83.000
45.92448 93.000
45.94443 65.000
45.96437 77.000
45.98432 82.000
46.00427 74.000
46.02421 79.000
46.04416 91.000
46.06411 83.000
46.08405 74.000
46.10400 86.000
46.12395 72.000
46.14389 91.000
46.16384 79.000
46.18379 94.000
46.20374 72.000
46.22368 75.000
46.24363 82.000
46.26358 90.000
46.28352 78.000
46.30347 68.000
46.32342 73.000
46.34336 83.000
46.36331 69.000
46.38326 87.000
46.40321 78.000
46.42315 91.000
46.44310 112.000
46.46305 87.000
46.48299 84.000
46.50294 73.000
46.52289 82.000
46.54283 86.000
46.56278 79.000
46.58273 74.000
46.60267 92.000
46.62262 80.000
46.64257 87.000
46.66252 85.000
46.68246 73.000
46.70241 68.000
46.72236 76.000
46.74230 72.000
46.76225 79.000
46.78220 83.000
46.80214 93.000
46.82209 75.000
46.84204 92.000
46.86199 79.000
46.88193 77.000
46.90188 96.000
46.92183 93.000
46.94177 79.000
46.96172 65.000
46.98167 82.000
47.00161 76.000
47.02156 88.000
47.04151 79.000
47.06146 80.000
47.08140 88.000
47.10135 81.000
47.12130 101.000
47.14124 86.000
47.16119 67.000
47.18114 71.000
47.20108 78.000
47.22103 88.000
47.24098 65.000
47.26092 81.000
47.28087 79.000
47.30082 79.000
47.32077 72.000
47.34071 90.000
47.36066 70.000
47.38061 76.000
47.40055 77.000
47.42050 79.000
47.44045 69.000
47.46039 76.000
47.48034 80.000
47.50029 71.000
47.52024 87.000
47.54018 111.000
47.56013 89.000
47.58008 87.000
47.60002 77.000
47.61997 86.000
47.63992 70.000
47.65986 72.000
47.67981 81.000
47.69976 76.000
47.71970 73.000
47.73965 74.000
47.75960 94.000
47.77955 76.000
47.79949 77.000
47.81944 69.000
47.83939 74.000
47.85933 82.000
47.87928 87.000
47.89923 97.000
47.91917 89.000
47.93912 99.000
47.95907 88.000
47.97902 111.000
47.99896 97.000
48.01891 80.000
48.03886 101.000
48.05880 101.000
48.07875 88.000
48.09870 98.000
48.11864 87.000
48.13859 94.000
48.15854 87.000
48.17848 100.000
48.19843 107.000
48.21838 92.000
48.23833 118.000
48.25827 123.000
48.27822 127.000
48.29817 106.000
48.31811 135.000
48.33806 111.000
48.35801 128.000
48.37795 149.000
48.39790 152.000
48.41785 177.000
48.43780 181.000
48.45774 204.000
48.47769 270.000
48.49764 317.000
48.51758 362.000
48.53753 484.000
48.55748 572.000
48.57742 760.000
48.59737 805.000
48.61732 865.000
48.63726 770.000
48.65721 694.000
48.67716 655.000
48.69711 574.000
48.71705 622.000
48.73700 530.000
48.75695 520.000
48.77689 407.000
48.79684 381.000
48.81679 286.000
48.83673 257.000
48.85668 242.000
48.87663 220.000
48.89658 189.000
48.91652 181.000
48.93647 165.000
48.95642 170.000
48.97636 152.000
48.99631 149.000
49.01626 126.000
49.03620 138.000
49.05615 111.000
49.07610 110.000
49.09605 127.000
49.11599 110.000
49.13594 107.000
49.15589 102.000
49.17583 92.000
49.19578 96.000
49.21573 79.000
49.23567 91.000
49.25562 94.000
49.27557 81.000
49.29551 90.000
49.31546 83.000
49.33541 89.000
49.35536 90.000
49.37530 86.000
49.39525 83.000
49.41520 88.000
49.43514 92.000
49.45509 84.000
49.47504 91.000
49.49498 84.000
49.51493 75.000
49.53488 93.000
49.55483 74.000
49.57477 58.000
49.59472 92.000
49.61467 80.000
49.63461 92.000
49.65456 76.000
49.67451 88.000
49.69445 73.000
49.71440 79.000
49.73435 96.000
49.75429 97.000
49.77424 78.000
49.79419 70.000
49.81414 81.000
49.83408 79.000
49.85403 83.000
49.87398 80.000
49.89392 93.000
49.91387 84.000
49.93382 77.000
49.95376 75.000
49.97371 79.000
49.99366 84.000
50.01361 72.000
50.03355 63.000
50.05350 84.000
50.07345 81.000
50.09339 86.000
50.11334 89.000
50.13329 80.000
50.15323 75.000
50.17318 69.000
50.19313 69.000
50.21307 70.000
50.23302 73.000
50.25297 67.000
50.27292 85.000
50.29286 77.000
50.31281 69.000
50.33276 75.000
50.35270 71.000
50.37265 86.000
50.39260 79.000
50.41254 84.000
50.43249 64.000
50.45244 54.000
50.47239 91.000
50.49233 77.000
50.51228 87.000
50.53223 74.000
50.55217 65.000
50.57212 88.000
50.59207 65.000
50.61201 95.000
50.63196 63.000
50.65191 75.000
50.67186 83.000
50.69180 66.000
50.71175 61.000
50.73170 80.000
50.75164 62.000
50.77159 96.000
50.79154 77.000
50.81148 83.000
50.83143 60.000
50.85138 83.000
50.87132 78.000
50.89127 81.000
50.91122 91.000
50.93117 88.000
50.95111 90.000
50.97106 66.000
50.99101 72.000
51.01095 85.000
51.03090 88.000
51.05085 67.000
51.07079 85.000
51.09074 72.000
51.11069 73.000
51.13064 73.000
51.15058 91.000
51.17053 72.000
51.19048 73.000
51.21042 85.000
51.23037 82.000
51.25032 78.000
51.27026 75.000
51.29021 80.000
51.31016 86.000
51.33010 90.000
51.35005 73.000
51.37000 88.000
51.38995 70.000
51.40989 86.000
51.42984 72.000
51.44979 81.000
51.46973 89.000
51.48968 75.000
51.50963 84.000
51.52957 64.000
51.54952 80.000
51.56947 81.000
51.58942 92.000
51.60936 81.000
51.62931 65.000
51.64926 85.000
51.66920 75.000
51.68915 77.000
51.70910 63.000
51.72904 82.000
51.74899 76.000
51.76894 77.000
51.78888 71.000
51.80883 74.000
51.82878 76.000
51.84873 79.000
51.86867 61.000
51.88862 74.000
51.90857 59.000
51.92851 69.000
51.94846 92.000
51.96841 93.000
51.98835 79.000
52.00830 67.000
52.02825 57.000
52.04820 74.000
52.06814 90.000
52.08809 73.000
52.10804 75.000
52.12798 77.000
52.14793 75.000
52.16788 72.000
52.18782 79.000
52.20777 73.000
52.22772 63.000
52.24767 81.000
52.26761 91.000
52.28756 74.000
52.30751 75.000
52.32745 88.000
52.34740 87.000
52.36735 72.000
52.38729 68.000
52.40724 87.000
52.42719 74.000
52.44713 103.000
52.46708 68.000
52.48703 70.000
52.50698 68.000
52.52692 66.000
52.54687 78.000
52.56682 69.000
52.58676 90.000
52.60671 93.000
52.62666 104.000
52.64660 83.000
52.66655 92.000
52.68650 86.000
52.70645 95.000
52.72639 83.000
52.74634 93.000
52.76629 77.000
52.78623 106.000
52.80618 98.000
52.82613 121.000
52.84607 135.000
52.86602 149.000
52.88597 206.000
52.90591 176.000
52.92586 255.000
52.94581 239.000
52.96576 310.000
52.98570 295.000
53.00565 268.000
53.02560 282.000
53.04554 225.000
53.06549 238.000
53.08544 204.000
53.10538 231.000
53.12533 215.000
53.14528 202.000
53.16523 163.000
53.18517 171.000
53.20512 142.000
53.22507 143.000
53.24501 113.000
53.26496 106.000
53.28491 105.000
53.30485 112.000
53.32480 107.000
53.34475 102.000
53.36469 75.000
53.38464 97.000
53.40459 100.000
53.42454 75.000
53.44448 96.000
53.46443 79.000
53.48438 82.000
53.50432 96.000
53.52427 106.000
53.54422 102.000
53.56416 100.000
53.58411 77.000
53.60406 89.000
53.62401 78.000
53.64395 100.000
53.66390 117.000
53.68385 107.000
53.70379 92.000
53.72374 119.000
53.74369 115.000
53.76363 93.000
53.78358 94.000
53.80353 110.000
53.82348 115.000
53.84342 91.000
53.86337 92.000
53.88332 104.000
53.90326 94.000
53.92321 97.000
53.94316 85.000
53.96310 76.000
53.98305 110.000
54.00300 74.000
54.02294 93.000
54.04289 71.000
54.06284 83.000
54.08279 77.000
54.10273 91.000
54.12268 90.000
54.14263 67.000
54.16257 76.000
54.18252 87.000
54.20247 87.000
54.22241 80.000
54.24236 68.000
54.26231 87.000
54.28226 73.000
54.30220 85.000
54.32215 81.000
54.34210 71.000
54.36204 88.000
54.38199 78.000
54.40194 81.000
54.42188 88.000
54.44183 69.000
54.46178 76.000
54.48172 82.000
54.50167 71.000
54.52162 67.000
54.54157 63.000
54.56151 75.000
54.58146 84.000
54.60141 73.000
54.62135 86.000
54.64130 78.000
54.66125 68.000
54.68119 87.000
54.70114 77.000
54.72109 98.000
54.74104 94.000
54.76098 66.000
54.78093 78.000
54.80088 87.000
54.82082 87.000
54.84077 88.000
54.86072 85.000
54.88066 59.000
54.90061 86.000
54.92056 78.000
54.94050 73.000
54.96045 67.000
54.98040 66.000
55.00035 76.000
55.02029 85.000
55.04024 77.000
55.06019 83.000
55.08013 83.000
55.10008 69.000
55.12003 74.000
55.13997 81.000
55.15992 82.000
55.17987 81.000
55.19982 88.000
55.21976 75.000
55.23971 69.000
55.25966 93.000
55.27960 72.000
55.29955 92.000
55.31950 81.000
55.33944 76.000
55.35939 75.000
55.37934 68.000
55.39929 78.000
55.41923 85.000
55.43918 81.000
55.45913 91.000
55.47907 96.000
55.49902 94.000
55.51897 96.000
55.53891 88.000
55.55886 94.000
55.57881 81.000
55.59875 78.000
55.61870 91.000
55.63865 75.000
55.65860 84.000
55.67854 74.000
55.69849 71.000
55.71844 76.000
55.73838 83.000
55.75833 75.000
55.77828 72.000
55.79822 72.000
55.81817 73.000
55.83812 72.000
55.85807 94.000
55.87801 70.000
55.89796 72.000
55.91791 73.000
55.93785 84.000
55.95780 77.000
55.97775 76.000
55.99769 72.000
56.01764 83.000
56.03759 81.000
56.05753 89.000
56.07748 79.000
56.09743 72.000
56.11738 66.000
56.13732 84.000
56.15727 91.000
56.17722 86.000
56.19716 82.000
56.21711 76.000
56.23706 91.000
56.25700 89.000
56.27695 79.000
56.29690 80.000
56.31685 65.000
56.33679 79.000
56.35674 80.000
56.37669 68.000
56.39663 91.000
56.41658 81.000
56.43653 100.000
56.45647 72.000
56.47642 77.000
56.49637 86.000
56.51631 95.000
56.53626 86.000
56.55621 77.000
56.57616 93.000
56.59610 78.000
56.61605 77.000
56.63600 74.000
56.65594 70.000
56.67589 92.000
56.69584 71.000
56.71578 81.000
56.73573 89.000
56.75568 89.000
56.77563 88.000
56.79557 82.000
56.81552 86.000
56.83547 96.000
56.85541 87.000
56.87536 100.000
56.89531 80.000
56.91525 85.000
56.93520 85.000
56.95515 111.000
56.97510 105.000
56.99504 115.000
57.01499 103.000
57.03494 82.000
57.05488 114.000
57.07483 103.000
57.09478 92.000
57.11472 121.000
57.13467 122.000
57.15462 136.000
57.17456 133.000
57.19451 140.000
57.21446 140.000
57.23441 152.000
57.25435 148.000
57.27430 162.000
57.29425 167.000
57.31419 154.000
57.33414 175.000
57.35409 198.000
57.37403 143.000
57.39398 204.000
57.41393 196.000
57.43388 188.000
57.45382 240.000
57.47377 270.000
57.49372 283.000
57.51366 302.000
57.53361 314.000
57.55356 327.000
57.57350 320.000
57.59345 326.000
57.61340 320.000
57.63334 324.000
57.65329 297.000
57.67324 349.000
57.69319 310.000
57.71313 296.000
57.73308 264.000
57.75303 264.000
57.77297 232.000
57.79292 201.000
57.81287 171.000
57.83281 169.000
57.85276 161.000
57.87271 142.000
57.89266 119.000
57.91260 114.000
57.93255 125.000
57.95250 110.000
57.97244 97.000
57.99239 96.000
58.01234 99.000
58.03228 104.000
58.05223 105.000
58.07218 98.000
58.09212 79.000
58.11207 96.000
58.13202 85.000
58.15197 87.000
58.17191 88.000
58.19186 89.000
58.21181 103.000
58.23175 83.000
58.25170 93.000
58.27165 88.000
58.29159 108.000
58.31154 100.000
58.33149 101.000
58.35144 113.000
58.37138 99.000
58.39133 92.000
58.41128 117.000
58.43122 95.000
58.45117 94.000
58.47112 82.000
58.49106 117.000
58.51101 107.000
58.53096 114.000
58.55090 82.000
58.57085 102.000
58.59080 92.000
58.61075 100.000
58.63069 76.000
58.65064 81.000
58.67059 95.000
58.69053 87.000
58.71048 67.000
58.73043 81.000
58.75037 82.000
58.77032 81.000
58.79027 72.000
58.81022 74.000
58.83016 77.000
58.85011 93.000
58.87006 91.000
58.89000 80.000
58.90995 78.000
58.92990 81.000
58.94984 85.000
58.96979 85.000
58.98974 64.000
59.00969 84.000
59.02963 75.000
59.04958 99.000
59.06953 77.000
59.08947 80.000
59.10942 70.000
59.12937 69.000
59.14931 92.000
59.16926 96.000
59.18921 101.000
59.20915 86.000
59.22910 88.000
59.24905 78.000
59.26900 90.000
59.28894 90.000
59.30889 81.000
59.32884 81.000
59.34878 92.000
59.36873 87.000
59.38868 85.000
59.40862 71.000
59.42857 66.000
59.44852 82.000
59.46847 81.000
59.48841 80.000
59.50836 86.000
59.52831 62.000
59.54825 80.000
59.56820 95.000
59.58815 76.000
59.60809 72.000
59.62804 78.000
59.64799 71.000
59.66793 98.000
59.68788 80.000
59.70783 103.000
59.72778 85.000
59.74772 79.000
59.76767 87.000
59.78762 72.000
59.80756 68.000
59.82751 62.000
59.84746 81.000
59.86740 88.000
59.88735 91.000
59.90730 100.000
59.92725 80.000
59.94719 71.000
59.96714 89.000
59.98709 75.000
60.00703 79.000
60.02698 70.000
60.04693 90.000
60.06687 79.000
60.08682 82.000
60.10677 75.000
60.12671 74.000
60.14666 73.000
60.16661 65.000
60.18656 91.000
60.20650 86.000
60.22645 68.000
60.24640 64.000
60.26634 78.000
60.28629 72.000
60.30624 71.000
60.32618 86.000
60.34613 86.000
60.36608 91.000
60.38603 93.000
60.40597 82.000
60.42592 64.000
60.44587 89.000
60.46581 77.000
60.48576 65.000
60.50571 93.000
60.52565 68.000
60.54560 83.000
60.56555 74.000
60.58550 74.000
60.60544 79.000
60.62539 70.000
60.64534 72.000
60.66528 81.000
60.68523 73.000
60.70518 75.000
60.72512 83.000
60.74507 87.000
60.76502 82.000
60.78496 76.000
60.80491 100.000
60.82486 74.000
60.84481 86.000
60.86475 95.000
60.88470 87.000
60.90465 81.000
60.92459 91.000
60.94454 85.000
60.96449 84.000
60.98443 82.000
61.00438 72.000
61.02433 77.000
61.04428 92.000
61.06422 84.000
61.08417 86.000
61.10412 77.000
61.12406 86.000
61.14401 88.000
61.16396 93.000
61.18390 108.000
61.20385 100.000
61.22380 87.000
61.24374 91.000
61.26369 99.000
61.28364 101.000
61.30359 91.000
61.32353 114.000
61.34348 99.000
61.36343 75.000
61.38337 105.000
61.40332 91.000
61.42327 94.000
61.44321 101.000
61.46316 101.000
61.48311 105.000
61.50306 105.000
61.52300 123.000
61.54295 140.000
61.56290 123.000
61.58284 136.000
61.60279 160.000
61.62274 159.000
61.64268 163.000
61.66263 164.000
61.68258 172.000
61.70252 194.000
61.72247 197.000
61.74242 205.000
61.76237 224.000
61.78231 245.000
61.80226 259.000
61.82221 271.000
61.84215 259.000
61.86210 321.000
61.88205 358.000
61.90199 344.000
61.92194 347.000
61.94189 330.000
61.96184 309.000
61.98178 324.000
62.00173 291.000
62.02168 273.000
62.04162 259.000
62.06157 263.000
62.08152 250.000
62.10146 250.000
62.12141 222.000
62.14136 202.000
62.16131 164.000
62.18125 152.000
62.20120 154.000
62.22115 124.000
62.24109 119.000
62.26104 118.000
62.28099 131.000
62.30093 103.000
62.32088 122.000
62.34083 116.000
62.36077 124.000
62.38072 95.000
62.40067 106.000
62.42062 112.000
62.44056 121.000
62.46051 104.000
62.48046 111.000
62.50040 108.000
62.52035 117.000
62.54030 124.000
62.56024 117.000
62.58019 102.000
62.60014 139.000
62.62009 137.000
62.64003 131.000
62.65998 152.000
62.67993 141.000
62.69987 158.000
62.71982 152.000
62.73977 152.000
62.75971 166.000
62.77966 198.000
62.79961 202.000
62.81955 209.000
62.83950 211.000
62.85945 223.000
62.87940 236.000
62.89934 263.000
62.91929 251.000
62.93924 323.000
62.95918 291.000
62.97913 272.000
62.99908 297.000
63.01902 282.000
63.03897 312.000
63.05892 331.000
63.07887 292.000
63.09881 302.000
63.11876 298.000
63.13871 299.000
63.15865 254.000
63.17860 268.000
63.19855 286.000
63.21849 245.000
63.23844 218.000
63.25839 218.000
63.27833 194.000
63.29828 189.000
63.31823 177.000
63.33818 144.000
63.35812 163.000
63.37807 145.000
63.39802 144.000
63.41796 147.000
63.43791 112.000
63.45786 129.000
63.47780 111.000
63.49775 123.000
63.51770 119.000
63.53765 109.000
63.55759 105.000
63.57754 120.000
63.59749 145.000
63.61743 142.000
63.63738 156.000
63.65733 190.000
63.67727 196.000
63.69722 197.000
63.71717 200.000
63.73712 230.000
63.75706 226.000
63.77701 238.000
63.79696 233.000
63.81690 252.000
63.83685 233.000
63.85680 207.000
63.87674 234.000
63.89669 214.000
63.91664 206.000
63.93658 243.000
63.95653 203.000
63.97648 199.000
63.99643 200.000
64.01637 180.000
64.03632 194.000
64.05627 154.000
64.07621 155.000
64.09616 157.000
64.11611 136.000
64.13605 129.000
64.15600 116.000
64.17595 115.000
64.19590 124.000
64.21584 125.000
64.23579 132.000
64.25574 123.000
64.27568 136.000
64.29563 123.000
64.31558 110.000
64.33552 103.000
64.35547 112.000
64.37542 96.000
64.39536 116.000
64.41531 103.000
64.43526 78.000
64.45521 100.000
64.47515 95.000
64.49510 91.000
64.51505 97.000
64.53499 81.000
64.55494 91.000
64.57489 86.000
64.59483 78.000
64.61478 93.000
64.63473 99.000
64.65468 96.000
64.67462 91.000
64.69457 81.000
64.71452 90.000
64.73446 94.000
64.75441 98.000
64.77436 80.000
64.79430 98.000
64.81425 99.000
64.83420 104.000
64.85414 92.000
64.87409 85.000
64.89404 83.000
64.91399 66.000
64.93393 97.000
64.95388 79.000
64.97383 91.000
64.99377 98.000
65.01372 79.000
65.03367 92.000
65.05361 91.000
65.07356 80.000
65.09351 74.000
65.11346 77.000
65.13340 89.000
65.15335 106.000
65.17330 115.000
65.19324 102.000
65.21319 97.000
65.23314 104.000
65.25308 104.000
65.27303 97.000
65.29298 114.000
65.31293 104.000
65.33287 136.000
65.35282 129.000
65.37277 126.000
65.39271 148.000
65.41266 149.000
65.43261 160.000
65.45255 128.000
65.47250 166.000
65.49245 139.000
65.51239 189.000
65.53234 178.000
65.55229 207.000
65.57224 176.000
65.59218 180.000
65.61213 203.000
65.63208 179.000
65.65202 182.000
65.67197 184.000
65.69192 196.000
65.71186 173.000
65.73181 183.000
65.75176 160.000
65.77171 155.000
65.79165 157.000
65.81160 166.000
65.83155 139.000
65.85149 135.000
65.87144 121.000
65.89139 142.000
65.91133 134.000
65.93128 112.000
65.95123 118.000
65.97117 138.000
65.99112 135.000
66.01107 157.000
66.03102 157.000
66.05096 168.000
66.07091 148.000
66.09086 176.000
66.11080 177.000
66.13075 182.000
66.15070 208.000
66.17064 199.000
66.19059 200.000
66.21054 204.000
66.23049 201.000
66.25043 176.000
66.27038 213.000
66.29033 193.000
66.31027 179.000
66.33022 205.000
66.35017 187.000
66.37011 182.000
66.39006 177.000
66.41001 179.000
66.42995 156.000
66.44990 161.000
66.46985 177.000
66.48980 161.000
66.50974 163.000
66.52969 139.000
66.54964 135.000
66.56958 128.000
66.58953 126.000
66.60948 118.000
66.62942 105.000
66.64937 130.000
66.66932 110.000
66.68927 113.000
66.70921 103.000
66.72916 110.000
66.74911 119.000
66.76905 105.000
66.78900 125.000
66.80895 106.000
66.82889 112.000
66.84884 99.000
66.86879 119.000
66.88874 96.000
66.90868 112.000
66.92863 106.000
66.94858 121.000
66.96852 101.000
66.98847 113.000
67.00842 106.000
67.02836 112.000
67.04831 111.000
67.06826 116.000
67.08820 97.000
67.10815 117.000
67.12810 101.000
67.14805 106.000
67.16799 100.000
67.18794 99.000
67.20789 95.000
67.22783 108.000
67.24778 111.000
67.26773 118.000
67.28767 88.000
67.30762 105.000
67.32757 78.000
67.34752 83.000
67.36746 86.000
67.38741 92.000
67.40736 83.000
67.42730 80.000
67.44725 79.000
67.46720 97.000
67.48714 93.000
67.50709 105.000
67.52704 96.000
67.54698 98.000
67.56693 88.000
67.58688 115.000
67.60683 110.000
67.62677 106.000
67.64672 125.000
67.66667 117.000
67.68661 121.000
67.70656 106.000
67.72651 145.000
67.74645 140.000
67.76640 148.000
67.78635 149.000
67.80630 141.000
67.82624 143.000
67.84619 146.000
67.86614 145.000
67.88608 141.000
67.90603 121.000
67.92598 133.000
67.94592 146.000
67.96587 128.000
67.98582 105.000
68.00576 129.000
68.02571 128.000
68.04566 151.000
68.06561 135.000
68.08555 124.000
68.10550 130.000
68.12545 128.000
68.14539 122.000
68.16534 130.000
68.18529 109.000
68.20523 123.000
68.22518 133.000
68.24513 120.000
68.26508 112.000
68.28502 107.000
68.30497 117.000
68.32492 96.000
68.34486 127.000
68.36481 116.000
68.38476 117.000
68.40470 110.000
68.42465 105.000
68.44460 119.000
68.46455 109.000
68.48449 117.000
68.50444 76.000
68.52439 98.000
68.54433 78.000
68.56428 110.000
68.58423 105.000
68.60417 103.000
68.62412 102.000
68.64407 87.000
68.66401 99.000
68.68396 90.000
68.70391 77.000
68.72386 74.000
68.74380 99.000
68.76375 84.000
68.78370 91.000
68.80364 78.000
68.82359 95.000
68.84354 75.000
68.86348 84.000
68.88343 88.000
68.90338 94.000
68.92333 95.000
68.94327 87.000
68.96322 71.000
68.98317 100.000
69.00311 99.000
69.02306 73.000
69.04301 107.000
69.06295 73.000
69.08290 97.000
69.10285 100.000
69.12279 89.000
69.14274 72.000
69.16269 67.000
69.18264 79.000
69.20258 77.000
69.22253 101.000
69.24248 90.000
69.26242 77.000
69.28237 73.000
69.30232 80.000
69.32226 83.000
69.34221 80.000
69.36216 65.000
69.38211 75.000
69.40205 80.000
69.42200 83.000
69.44195 66.000
69.46189 98.000
69.48184 85.000
69.50179 87.000
69.52173 86.000
69.54168 73.000
69.56163 87.000
69.58157 83.000
69.60152 82.000
69.62147 66.000
69.64142 72.000
69.66136 83.000
69.68131 89.000
69.70126 84.000
69.72120 73.000
69.74115 80.000
69.76110 61.000
69.78104 85.000
69.80099 79.000
69.82094 79.000
69.84089 84.000
69.86083 85.000
69.88078 95.000
69.90073 74.000
69.92067 72.000
69.94062 87.000
69.96057 76.000
69.98051 64.000
70.00046 83.000
70.02041 84.000
70.04035 97.000
70.06030 71.000
70.08025 75.000
70.10020 73.000
70.12014 73.000
70.14009 69.000
70.16004 73.000
70.17998 81.000
70.19993 72.000
70.21988 69.000
70.23982 91.000
70.25977 78.000
70.27972 70.000
70.29967 72.000
70.31961 84.000
70.33956 59.000
70.35951 82.000
70.37945 86.000
70.39940 71.000
70.41935 56.000
70.43929 80.000
70.45924 84.000
70.47919 71.000
70.49914 58.000
70.51908 86.000
70.53903 72.000
70.55898 73.000
70.57892 71.000
70.59887 83.000
70.61882 73.000
70.63876 98.000
70.65871 87.000
70.67866 78.000
70.69860 64.000
70.71855 69.000
70.73850 72.000
70.75845 65.000
70.77839 82.000
70.79834 84.000
70.81829 92.000
70.83823 68.000
70.85818 76.000
70.87813 92.000
70.89807 81.000
70.91802 72.000
70.93797 86.000
70.95792 71.000
70.97786 69.000
70.99781 90.000
71.01776 84.000
71.03770 74.000
71.05765 75.000
71.07760 85.000
71.09754 78.000
71.11749 85.000
71.13744 74.000
71.15738 85.000
71.17733 84.000
71.19728 77.000
71.21723 78.000
71.23717 69.000
71.25712 82.000
71.27707 72.000
71.29701 79.000
71.31696 99.000
71.33691 82.000
71.35685 86.000
71.37680 99.000
71.39675 80.000
71.41670 94.000
71.43664 95.000
71.45659 76.000
71.47654 79.000
71.49648 88.000
71.51643 88.000
71.53638 86.000
71.55632 79.000
71.57627 85.000
71.59622 97.000
71.61616 74.000
71.63611 90.000
71.65606 75.000
71.67601 78.000
71.69595 89.000
71.71590 81.000
71.73585 77.000
71.75579 82.000
71.77574 69.000
71.79569 82.000
71.81563 72.000
71.83558 77.000
71.85553 71.000
71.87548 82.000
71.89542 87.000
71.91537 71.000
71.93532 74.000
71.95526 92.000
71.97521 71.000
71.99516 80.000
72.01510 77.000
72.03505 82.000
72.05500 61.000
72.07495 90.000
72.09489 74.000
72.11484 63.000
72.13479 81.000
72.15473 92.000
72.17468 86.000
72.19463 66.000
72.21457 60.000
72.23452 88.000
72.25447 83.000
72.27441 92.000
72.29436 76.000
72.31431 69.000
72.33426 82.000
72.35420 74.000
72.37415 94.000
72.39410 80.000
72.41404 93.000
72.43399 99.000
72.45394 97.000
72.47388 91.000
72.49383 88.000
72.51378 98.000
72.53373 93.000
72.55367 94.000
72.57362 101.000
72.59357 106.000
72.61351 107.000
72.63346 96.000
72.65341 113.000
72.67335 109.000
72.69330 118.000
72.71325 114.000
72.73319 133.000
72.75314 135.000
72.77309 147.000
72.79304 152.000
72.81298 143.000
72.83293 160.000
72.85288 145.000
72.87282 143.000
72.89277 150.000
72.91272 131.000
72.93266 133.000
72.95261 174.000
72.97256 146.000
72.99251 118.000
73.01245 124.000
73.03240 143.000
73.05235 146.000
73.07229 160.000
73.09224 179.000
73.11219 175.000
73.13213 166.000
73.15208 182.000
73.17203 164.000
73.19197 167.000
73.21192 145.000
73.23187 172.000
73.25182 172.000
73.27176 162.000
73.29171 149.000
73.31166 140.000
73.33160 158.000
73.35155 137.000
73.37150 163.000
73.39144 171.000
73.41139 146.000
73.43134 161.000
73.45129 156.000
73.47123 137.000
73.49118 114.000
73.51113 137.000
73.53107 134.000
73.55102 130.000
73.57097 130.000
73.59091 128.000
73.61086 116.000
73.63081 96.000
73.65076 116.000
73.67070 108.000
73.69065 105.000
73.71060 92.000
73.73054 108.000
73.75049 111.000
73.77044 101.000
73.79038 126.000
73.81033 89.000
73.83028 91.000
73.85022 96.000
73.87017 86.000
73.89012 98.000
73.91007 90.000
73.93001 96.000
73.94996 82.000
73.96991 92.000
73.98985 93.000
74.00980 75.000
74.02975 74.000
74.04969 77.000
74.06964 92.000
74.08959 73.000
74.10954 86.000
74.12948 92.000
74.14943 84.000
74.16938 99.000
74.18932 83.000
74.20927 127.000
74.22922 79.000
74.24916 88.000
74.26911 83.000
74.28906 88.000
74.30900 90.000
74.32895 92.000
74.34890 102.000
74.36885 109.000
74.38879 108.000
74.40874 112.000
74.42869 88.000
74.44863 92.000
74.46858 101.000
74.48853 123.000
74.50847 89.000
74.52842 114.000
74.54837 95.000
74.56832 108.000
74.58826 78.000
74.60821 106.000
74.62816 107.000
74.64810 116.000
74.66805 108.000
74.68800 99.000
74.70794 113.000
74.72789 97.000
74.74784 96.000
74.76778 98.000
74.78773 94.000
74.80768 87.000
74.82763 72.000
74.84757 91.000
74.86752 99.000
74.88747 97.000
74.90741 87.000
74.92736 92.000
74.94731 102.000
74.96725 99.000
74.98720 112.000
75.00715 105.000
75.02710 111.000
75.04704 98.000
75.06699 110.000
75.08694 119.000
75.10688 98.000
75.12683 109.000
75.14678 100.000
75.16672 117.000
75.18667 108.000
75.20662 124.000
75.22657 131.000
75.24651 132.000
75.26646 135.000
75.28641 87.000
75.30635 123.000
75.32630 122.000
75.34625 115.000
75.36619 106.000
75.38614 118.000
75.40609 133.000
75.42603 111.000
75.44598 129.000
75.46593 114.000
75.48588 107.000
75.50582 103.000
75.52577 116.000
75.54572 119.000
75.56566 102.000
75.58561 116.000
75.60556 88.000
75.62550 96.000
75.64545 118.000
75.66540 92.000
75.68535 89.000
75.70529 93.000
75.72524 76.000
75.74519 66.000
75.76513 116.000
75.78508 90.000
75.80503 80.000
75.82497 65.000
75.84492 83.000
75.86487 70.000
75.88481 76.000
75.90476 78.000
75.92471 80.000
75.94466 80.000
75.96460 89.000
75.98455 83.000
76.00450 78.000
76.02444 73.000
76.04439 94.000
76.06434 79.000
76.08428 85.000
76.10423 80.000
76.12418 71.000
76.14413 88.000
76.16407 62.000
76.18402 83.000
76.20397 71.000
76.22391 75.000
76.24386 83.000
76.26381 90.000
76.28375 77.000
76.30370 66.000
76.32365 83.000
76.34359 89.000
76.36354 87.000
76.38349 82.000
76.40344 71.000
76.42338 61.000
76.44333 83.000
76.46328 74.000
76.48322 73.000
76.50317 57.000
76.52312 83.000
76.54306 58.000
76.56301 71.000
76.58296 84.000
76.60291 77.000
76.62285 71.000
76.64280 79.000
76.66275 91.000
76.68269 78.000
76.70264 77.000
76.72259 90.000
76.74253 77.000
76.76248 73.000
76.78243 90.000
76.80238 79.000
76.82232 86.000
76.84227 81.000
76.86222 84.000
76.88216 84.000
76.90211 74.000
76.92206 69.000
76.94200 74.000
76.96195 69.000
76.98190 85.000
77.00184 76.000
77.02179 84.000
77.04174 81.000
77.06169 77.000
77.08163 74.000
77.10158 88.000
77.12153 96.000
77.14147 91.000
77.16142 96.000
77.18137 69.000
77.20131 92.000
77.22126 99.000
77.24121 104.000
77.26116 115.000
77.28110 115.000
77.30105 102.000
77.32100 111.000
77.34094 110.000
77.36089 107.000
77.38084 112.000
77.40078 112.000
77.42073 114.000
77.44068 124.000
77.46062 127.000
77.48057 106.000
77.50052 108.000
77.52047 114.000
77.54041 106.000
77.56036 113.000
77.58031 112.000
77.60025 122.000
77.62020 107.000
77.64015 113.000
77.66009 122.000
77.68004 122.000
77.69999 114.000
77.71994 106.000
77.73988 115.000
77.75983 111.000
77.77978 80.000
77.79972 110.000
77.81967 105.000
77.83962 102.000
77.85956 94.000
77.87951 102.000
77.89946 92.000
77.91940 119.000
77.93935 116.000
77.95930 126.000
77.97925 130.000
77.99919 140.000
78.01914 119.000
78.03909 116.000
78.05903 124.000
78.07898 119.000
78.09893 161.000
78.11887 159.000
78.13882 149.000
78.15877 157.000
78.17872 154.000
78.19866 160.000
78.21861 146.000
78.23856 145.000
78.25850 170.000
78.27845 167.000
78.29840 167.000
78.31834 167.000
78.33829 180.000
78.35824 176.000
78.37819 192.000
78.39813 160.000
78.41808 151.000
78.43803 170.000
78.45797 165.000
78.47792 164.000
78.49787 141.000
78.51781 158.000
78.53776 165.000
78.55771 123.000
78.57765 142.000
78.59760 125.000
78.61755 122.000
78.63750 136.000
78.65744 103.000
78.67739 110.000
78.69734 110.000
78.71728 115.000
78.73723 109.000
78.75718 118.000
78.77712 97.000
78.79707 97.000
78.81702 100.000
78.83697 73.000
78.85691 97.000
78.87686 82.000
78.89681 89.000
78.91675 84.000
78.93670 90.000
78.95665 84.000
78.97659 88.000
78.99654 75.000
79.01649 85.000
79.03643 71.000
79.05638 89.000
79.07633 80.000
79.09628 83.000
79.11622 91.000
79.13617 81.000
79.15612 76.000
79.17606 80.000
79.19601 84.000
79.21596 72.000
79.23590 66.000
79.25585 89.000
79.27580 78.000
79.29575 88.000
79.31569 69.000
79.33564 67.000
79.35559 80.000
79.37553 90.000
79.39548 86.000
79.41543 80.000
79.43537 78.000
79.45532 87.000
79.47527 57.000
79.49521 94.000
79.51516 90.000
79.53511 100.000
79.55506 81.000
79.57500 86.000
79.59495 84.000
79.61490 79.000
79.63484 84.000
79.65479 74.000
79.67474 81.000
79.69468 83.000
79.71463 78.000
79.73458 83.000
79.75453 73.000
79.77447 86.000
79.79442 86.000
79.81437 81.000
79.83431 86.000
79.85426 78.000
79.87421 75.000
79.89415 86.000
79.91410 95.000
79.93405 74.000
79.95399 74.000
79.97394 72.000
79.99389 83.000
80.01384 68.000
80.03378 90.000
80.05373 100.000
80.07368 98.000
80.09362 85.000
80.11357 86.000
80.13352 77.000
80.15346 93.000
80.17341 79.000
80.19336 95.000
80.21331 82.000
80.23325 99.000
80.25320 97.000
80.27315 81.000
80.29309 80.000
80.31304 93.000
80.33299 70.000
80.35293 100.000
80.37288 86.000
80.39283 85.000
80.41278 85.000
80.43272 85.000
80.45267 97.000
80.47262 80.000
80.49256 86.000
80.51251 89.000
80.53246 106.000
80.55240 92.000
80.57235 92.000
80.59230 73.000
80.61224 81.000
80.63219 81.000
80.65214 70.000
80.67209 79.000
80.69203 83.000
80.71198 84.000
80.73193 71.000
80.75187 75.000
80.77182 89.000
80.79177 80.000
80.81171 79.000
80.83166 73.000
80.85161 86.000
80.87156 94.000
80.89150 85.000
80.91145 93.000
80.93140 70.000
80.95134 75.000
80.97129 72.000
80.99124 96.000
81.01118 67.000
81.03113 81.000
81.05108 80.000
81.07102 86.000
81.09097 66.000
81.11092 58.000
81.13087 88.000
81.15081 87.000
81.17076 62.000
81.19071 65.000
81.21065 73.000
81.23060 71.000
81.25055 94.000
81.27049 72.000
81.29044 71.000
81.31039 73.000
81.33034 78.000
81.35028 76.000
81.37023 88.000
81.39018 66.000
81.41012 72.000
81.43007 85.000
81.45002 71.000
81.46996 70.000
81.48991 74.000
81.50986 69.000
81.52980 74.000
81.54975 75.000
81.56970 82.000
81.58965 75.000
81.60959 75.000
81.62954 77.000
81.64949 65.000
81.66943 66.000
81.68938 71.000
81.70933 69.000
81.72927 67.000
81.74922 82.000
81.76917 56.000
81.78912 89.000
81.80906 78.000
81.82901 50.000
81.84896 72.000
81.86890 64.000
81.88885 76.000
81.90880 82.000
81.92874 75.000
81.94869 78.000
81.96864 56.000
81.98859 75.000
82.00853 62.000
82.02848 68.000
82.04843 77.000
82.06837 70.000
82.08832 78.000
82.10827 74.000
82.12821 82.000
82.14816 68.000
82.16811 78.000
82.18805 62.000
82.20800 76.000
82.22795 76.000
82.24790 69.000
82.26784 76.000
82.28779 67.000
82.30774 82.000
82.32768 90.000
82.34763 100.000
82.36758 76.000
82.38752 92.000
82.40747 80.000
82.42742 71.000
82.44737 89.000
82.46731 74.000
82.48726 89.000
82.50721 88.000
82.52715 63.000
82.54710 76.000
82.56705 87.000
82.58699 85.000
82.60694 68.000
82.62689 92.000
82.64683 84.000
82.66678 88.000
82.68673 81.000
82.70668 84.000
82.72662 68.000
82.74657 76.000
82.76652 73.000
82.78646 83.000
82.80641 77.000
82.82636 72.000
82.84630 95.000
82.86625 75.000
82.88620 83.000
82.90615 81.000
82.92609 67.000
82.94604 63.000
82.96599 88.000
82.98593 81.000
83.00588 83.000
83.02583 84.000
83.04577 70.000
83.06572 98.000
83.08567 85.000
83.10561 88.000
83.12556 71.000
83.14551 71.000
83.16546 76.000
83.18540 91.000
83.20535 82.000
83.22530 87.000
83.24524 84.000
83.26519 59.000
83.28514 76.000
83.30508 76.000
83.32503 84.000
83.34498 77.000
83.36493 80.000
83.38487 81.000
83.40482 81.000
83.42477 68.000
83.44471 81.000
83.46466 75.000
83.48461 92.000
83.50455 74.000
83.52450 83.000
83.54445 99.000
83.56440 99.000
83.58434 87.000
83.60429 94.000
83.62424 80.000
83.64418 94.000
83.66413 91.000
83.68408 83.000
83.70402 76.000
83.72397 84.000
83.74392 93.000
83.76386 84.000
83.78381 76.000
83.80376 87.000
83.82371 112.000
83.84365 108.000
83.86360 96.000
83.88355 95.000
83.90349 96.000
83.92344 119.000
83.94339 99.000
83.96333 116.000
83.98328 111.000
84.00323 123.000
84.02318 120.000
84.04312 124.000
84.06307 139.000
84.08302 141.000
84.10296 121.000
84.12291 140.000
84.14286 113.000
84.16280 141.000
84.18275 122.000
84.20270 107.000
84.22264 125.000
84.24259 132.000
84.26254 134.000
84.28249 132.000
84.30243 121.000
84.32238 132.000
84.34233 101.000
84.36227 117.000
84.38222 122.000
84.40217 112.000
84.42211 108.000
84.44206 114.000
84.46201 101.000
84.48196 106.000
84.50190 90.000
84.52185 119.000
84.54180 98.000
84.56174 107.000
84.58169 92.000
84.60164 82.000
84.62158 93.000
84.64153 89.000
84.66148 94.000
84.68142 84.000
84.70137 93.000
84.72132 105.000
84.74127 92.000
84.76121 85.000
84.78116 73.000
84.80111 78.000
84.82105 83.000
84.84100 81.000
84.86095 86.000
84.88089 79.000
84.90084 94.000
84.92079 85.000
84.94074 78.000
84.96068 64.000
84.98063 81.000
85.00058 71.000
85.02052 70.000
85.04047 92.000
85.06042 99.000
85.08036 86.000
85.10031 70.000
85.12026 80.000
85.14021 81.000
85.16015 77.000
85.18010 76.000
85.20005 98.000
85.21999 77.000
85.23994 78.000
85.25989 75.000
85.27983 83.000
85.29978 86.000
85.31973 66.000
85.33967 82.000
85.35962 75.000
85.37957 73.000
85.39952 61.000
85.41946 79.000
85.43941 78.000
85.45936 80.000
85.47930 76.000
85.49925 80.000
85.51920 53.000
85.53914 65.000
85.55909 71.000
85.57904 84.000
85.59899 72.000
85.61893 84.000
85.63888 58.000
85.65883 104.000
85.67877 77.000
85.69872 72.000
85.71867 71.000
85.73861 70.000
85.75856 81.000
85.77851 75.000
85.79845 84.000
85.81840 76.000
85.83835 78.000
85.85830 80.000
85.87824 77.000
85.89819 68.000
85.91814 73.000
85.93808 103.000
85.95803 64.000
85.97798 80.000
85.99792 60.000
86.01787 73.000
86.03782 60.000
86.05777 88.000
86.07771 79.000
86.09766 63.000
86.11761 85.000
86.13755 82.000
86.15750 81.000
86.17745 68.000
86.19739 79.000
86.21734 81.000
86.23729 85.000
86.25723 67.000
86.27718 76.000
86.29713 58.000
86.31708 80.000
86.33702 71.000
86.35697 93.000
86.37692 91.000
86.39686 83.000
86.41681 91.000
86.43676 78.000
86.45670 77.000
86.47665 86.000
86.49660 85.000
86.51655 88.000
86.53649 93.000
86.55644 95.000
86.57639 99.000
86.59633 98.000
86.61628 102.000
86.63623 95.000
86.65617 97.000
86.67612 83.000
86.69607 103.000
86.71602 99.000
86.73596 90.000
86.75591 92.000
86.77586 82.000
86.79580 104.000
86.81575 94.000
86.83570 105.000
86.85564 99.000
86.87559 91.000
86.89554 98.000
86.91548 103.000
86.93543 102.000
86.95538 103.000
86.97533 108.000
86.99527 93.000
87.01522 89.000
87.03517 104.000
87.05511 97.000
87.07506 83.000
87.09501 98.000
87.11495 90.000
87.13490 99.000
87.15485 97.000
87.17480 94.000
87.19474 100.000
87.21469 81.000
87.23464 99.000
87.25458 81.000
87.27453 74.000
87.29448 95.000
87.31442 99.000
87.33437 92.000
87.35432 107.000
87.37426 91.000
87.39421 92.000
87.41416 105.000
87.43411 104.000
87.45405 90.000
87.47400 91.000
87.49395 76.000
87.51389 98.000
87.53384 107.000
87.55379 114.000
87.57373 95.000
87.59368 88.000
87.61363 76.000
87.63358 92.000
87.65352 90.000
87.67347 85.000
87.69342 94.000
87.71336 90.000
87.73331 67.000
87.75326 79.000
87.77320 82.000
87.79315 86.000
87.81310 90.000
87.83304 84.000
87.85299 83.000
87.87294 92.000
87.89289 82.000
87.91283 86.000
87.93278 75.000
87.95273 81.000
87.97267 87.000
87.99262 78.000
88.01257 82.000
88.03251 66.000
88.05246 75.000
88.07241 78.000
88.09236 70.000
88.11230 83.000
88.13225 70.000
88.15220 96.000
88.17214 82.000
88.19209 72.000
88.21204 90.000
88.23198 83.000
88.25193 70.000
88.27188 88.000
88.29183 81.000
88.31177 73.000
88.33172 91.000
88.35167 77.000
88.37161 68.000
88.39156 80.000
88.41151 71.000
88.43145 85.000
88.45140 87.000
88.47135 88.000
88.49129 78.000
88.51124 79.000
88.53119 75.000
88.55114 83.000
88.57108 73.000
88.59103 76.000
88.61098 78.000
88.63092 86.000
88.65087 83.000
88.67082 72.000
88.69076 68.000
88.71071 88.000
88.73066 82.000
88.75061 73.000
88.77055 68.000
88.79050 80.000
88.81045 88.000
88.83039 96.000
88.85034 87.000
88.87029 96.000
88.89023 89.000
88.91018 81.000
88.93013 74.000
88.95007 53.000
88.97002 92.000
88.98997 72.000
89.00992 87.000
89.02986 76.000
89.04981 74.000
89.06976 76.000
89.08970 64.000
89.10965 69.000
89.12960 68.000
89.14954 65.000
89.16949 59.000
89.18944 85.000
89.20939 94.000
89.22933 80.000
89.24928 85.000
89.26923 85.000
89.28917 88.000
89.30912 86.000
89.32907 81.000
89.34901 82.000
89.36896 93.000
89.38891 81.000
89.40885 94.000
89.42880 83.000
89.44875 83.000
89.46870 77.000
89.48864 74.000
89.50859 93.000
89.52854 79.000
89.54848 97.000
89.56843 93.000
89.58838 91.000
89.60832 79.000
89.62827 97.000
89.64822 84.000
89.66817 74.000
89.68811 97.000
89.70806 73.000
89.72801 94.000
89.74795 76.000
89.76790 96.000
89.78785 75.000
89.80779 93.000
89.82774 85.000
89.84769 108.000
89.86764 105.000
89.88758 91.000
89.90753 82.000
89.92748 96.000
89.94742 86.000
89.96737 86.000
89.98732 75.000
90.00726 102.000
