10.00000 143.000
10.01995 155.000
10.03989 143.000
10.05984 155.000
10.07979 149.000
10.09973 143.000
10.11968 155.000
10.13963 170.000
10.15958 148.000
10.17952 160.000
10.19947 168.000
10.21942 135.000
10.23936 142.000
10.25931 145.000
10.27926 158.000
10.29920 159.000
10.31915 152.000
10.33910 160.000
10.35905 161.000
10.37899 140.000
10.39894 141.000
10.41889 150.000
10.43883 145.000
10.45878 135.000
10.47873 158.000
10.49867 157.000
10.51862 172.000
10.53857 135.000
10.55851 149.000
10.57846 146.000
10.59841 146.000
10.61836 155.000
10.63830 133.000
10.65825 149.000
10.67820 141.000
10.69814 186.000
10.71809 171.000
10.73804 141.000
10.75798 167.000
10.77793 128.000
10.79788 155.000
10.81783 157.000
10.83777 156.000
10.85772 163.000
10.87767 145.000
10.89761 176.000
10.91756 161.000
10.93751 174.000
10.95745 142.000
10.97740 152.000
10.99735 183.000
11.01730 162.000
11.03724 160.000
11.05719 144.000
11.07714 148.000
11.09708 151.000
11.11703 164.000
11.13698 156.000
11.15692 162.000
11.17687 139.000
11.19682 158.000
11.21676 153.000
11.23671 159.000
11.25666 128.000
11.27661 134.000
11.29655 146.000
11.31650 148.000
11.33645 150.000
11.35639 149.000
11.37634 157.000
11.39629 138.000
11.41623 146.000
11.43618 157.000
11.45613 122.000
11.47608 161.000
11.49602 157.000
11.51597 148.000
11.53592 146.000
11.55586 155.000
11.57581 140.000
11.59576 164.000
11.61570 154.000
11.63565 145.000
11.65560 135.000
11.67554 142.000
11.69549 162.000
11.71544 152.000
11.73539 146.000
11.75533 175.000
11.77528 153.000
11.79523 154.000
11.81517 139.000
11.83512 150.000
11.85507 144.000
11.87501 153.000
11.89496 176.000
11.91491 144.000
11.93486 164.000
11.95480 157.000
11.97475 143.000
11.99470 139.000
12.01464 160.000
12.03459 161.000
12.05454 152.000
12.07448 168.000
12.09443 166.000
12.11438 158.000
12.13432 145.000
12.15427 151.000
12.17422 147.000
12.19417 133.000
12.21411 157.000
12.23406 163.000
12.25401 169.000
12.27395 151.000
12.29390 136.000
12.31385 153.000
12.33379 159.000
12.35374 150.000
12.37369 158.000
12.39364 132.000
12.41358 142.000
12.43353 165.000
12.45348 144.000
12.47342 153.000
12.49337 153.000
12.51332 172.000
12.53326 155.000
12.55321 134.000
12.57316 148.000
12.59311 119.000
12.61305 161.000
12.63300 163.000
12.65295 127.000
12.67289 164.000
12.69284 162.000
12.71279 141.000
12.73273 151.000
12.75268 152.000
12.77263 157.000
12.79257 153.000
12.81252 143.000
12.83247 148.000
12.85242 153.000
12.87236 163.000
12.89231 152.000
12.91226 161.000
12.93220 150.000
12.95215 158.000
12.97210 155.000
12.99204 134.000
13.01199 152.000
13.03194 171.000
13.05189 138.000
13.07183 153.000
13.09178 154.000
13.11173 160.000
13.13167 173.000
13.15162 170.000
13.17157 151.000
13.19151 144.000
13.21146 155.000
13.23141 158.000
13.25135 156.000
13.27130 140.000
13.29125 155.000
13.31120 150.000
13.33114 146.000
13.35109 136.000
13.37104 145.000
13.39098 146.000
13.41093 149.000
13.43088 158.000
13.45082 144.000
13.47077 165.000
13.49072 162.000
13.51067 158.000
13.53061 159.000
13.55056 153.000
13.57051 145.000
13.59045 146.000
13.61040 144.000
13.63035 149.000
13.65029 156.000
13.67024 162.000
13.69019 151.000
13.71013 150.000
13.73008 163.000
13.75003 152.000
13.76998 154.000
13.78992 152.000
13.80987 150.000
13.82982 139.000
13.84976 160.000
13.86971 154.000
13.88966 175.000
13.90960 150.000
13.92955 155.000
13.94950 137.000
13.96945 155.000
13.98939 150.000
14.00934 154.000
14.02929 152.000
14.04923 158.000
14.06918 146.000
14.08913 162.000
14.10907 156.000
14.12902 160.000
14.14897 127.000
14.16892 160.000
14.18886 152.000
14.20881 143.000
14.22876 148.000
14.24870 178.000
14.26865 163.000
14.28860 149.000
14.30854 147.000
14.32849 157.000
14.34844 177.000
14.36838 160.000
14.38833 159.000
14.40828 152.000
14.42823 154.000
14.44817 172.000
14.46812 163.000
14.48807 151.000
14.50801 171.000
14.52796 152.000
14.54791 146.000
14.56785 160.000
14.58780 177.000
14.60775 149.000
14.62770 151.000
14.64764 186.000
14.66759 181.000
14.68754 171.000
14.70748 175.000
14.72743 147.000
14.74738 139.000
14.76732 156.000
14.78727 156.000
14.80722 161.000
14.82716 150.000
14.84711 190.000
14.86706 180.000
14.88701 145.000
14.90695 173.000
14.92690 160.000
14.94685 177.000
14.96679 161.000
14.98674 145.000
15.00669 152.000
15.02663 153.000
15.04658 177.000
15.06653 141.000
15.08648 190.000
15.10642 191.000
15.12637 162.000
15.14632 168.000
15.16626 170.000
15.18621 157.000
15.20616 149.000
15.22610 169.000
15.24605 179.000
15.26600 155.000
15.28594 143.000
15.30589 188.000
15.32584 185.000
15.34579 174.000
15.36573 163.000
15.38568 139.000
15.40563 173.000
15.42557 176.000
15.44552 173.000
15.46547 161.000
15.48541 163.000
15.50536 180.000
15.52531 153.000
15.54526 177.000
15.56520 198.000
15.58515 186.000
15.60510 178.000
15.62504 164.000
15.64499 161.000
15.66494 169.000
15.68488 188.000
15.70483 195.000
15.72478 176.000
15.74472 208.000
15.76467 189.000
15.78462 187.000
15.80457 186.000
15.82451 213.000
15.84446 222.000
15.86441 244.000
15.88435 253.000
15.90430 295.000
15.92425 294.000
15.94419 288.000
15.96414 289.000
15.98409 258.000
16.00404 227.000
16.02398 249.000
16.04393 282.000
16.06388 243.000
16.08382 253.000
16.10377 265.000
16.12372 309.000
16.14366 317.000
16.16361 324.000
16.18356 351.000
16.20351 385.000
16.22345 477.000
16.24340 516.000
16.26335 515.000
16.28329 572.000
16.30324 721.000
16.32319 841.000
16.34313 901.000
16.36308 1072.000
16.38303 1198.000
16.40297 1296.000
16.42292 1311.000
16.44287 1322.000
16.46282 1198.000
16.48276 1034.000
16.50271 842.000
16.52266 685.000
16.54260 594.000
16.56255 518.000
16.58250 467.000
16.60244 414.000
16.62239 345.000
16.64234 334.000
16.66229 311.000
16.68223 321.000
16.70218 294.000
16.72213 274.000
16.74207 239.000
16.76202 275.000
16.78197 252.000
16.80191 238.000
16.82186 230.000
16.84181 228.000
16.86175 216.000
16.88170 221.000
16.90165 236.000
16.92160 211.000
16.94154 251.000
16.96149 242.000
16.98144 219.000
17.00138 222.000
17.02133 222.000
17.04128 221.000
17.06122 177.000
17.08117 233.000
17.10112 222.000
17.12107 228.000
17.14101 210.000
17.16096 214.000
17.18091 216.000
17.20085 230.000
17.22080 223.000
17.24075 230.000
17.26069 254.000
17.28064 237.000
17.30059 238.000
17.32053 262.000
17.34048 212.000
17.36043 210.000
17.38038 192.000
17.40032 209.000
17.42027 190.000
17.44022 193.000
17.46016 164.000
17.48011 182.000
17.50006 209.000
17.52000 210.000
17.53995 157.000
17.55990 192.000
17.57985 179.000
17.59979 170.000
17.61974 169.000
17.63969 183.000
17.65963 151.000
17.67958 175.000
17.69953 169.000
17.71947 165.000
17.73942 168.000
17.75937 160.000
17.77932 149.000
17.79926 161.000
17.81921 151.000
17.83916 153.000
17.85910 150.000
17.87905 179.000
17.89900 168.000
17.91894 181.000
17.93889 156.000
17.95884 165.000
17.97878 163.000
17.99873 155.000
18.01868 145.000
18.03863 142.000
18.05857 174.000
18.07852 173.000
18.09847 157.000
18.11841 165.000
18.13836 185.000
18.15831 180.000
18.17825 155.000
18.19820 160.000
18.21815 185.000
18.23810 172.000
18.25804 172.000
18.27799 179.000
18.29794 177.000
18.31788 185.000
18.33783 189.000
18.35778 221.000
18.37772 253.000
18.39767 310.000
18.41762 380.000
18.43756 408.000
18.45751 424.000
18.47746 328.000
18.49741 286.000
18.51735 248.000
18.53730 228.000
18.55725 190.000
18.57719 191.000
18.59714 162.000
18.61709 190.000
18.63703 138.000
18.65698 145.000
18.67693 164.000
18.69688 170.000
18.71682 193.000
18.73677 171.000
18.75672 174.000
18.77666 158.000
18.79661 168.000
18.81656 164.000
18.83650 176.000
18.85645 158.000
18.87640 135.000
18.89634 157.000
18.91629 132.000
18.93624 156.000
18.95619 150.000
18.97613 152.000
18.99608 161.000
19.01603 139.000
19.03597 166.000
19.05592 145.000
19.07587 166.000
19.09581 150.000
19.11576 154.000
19.13571 134.000
19.15566 153.000
19.17560 156.000
19.19555 150.000
19.21550 138.000
19.23544 152.000
19.25539 145.000
19.27534 136.000
19.29528 161.000
19.31523 162.000
19.33518 168.000
19.35513 141.000
19.37507 158.000
19.39502 133.000
19.41497 150.000
19.43491 139.000
19.45486 122.000
19.47481 160.000
19.49475 171.000
19.51470 137.000
19.53465 155.000
19.55459 133.000
19.57454 147.000
19.59449 136.000
19.61444 141.000
19.63438 165.000
19.65433 162.000
19.67428 148.000
19.69422 149.000
19.71417 161.000
19.73412 140.000
19.75406 163.000
19.77401 163.000
19.79396 138.000
19.81391 147.000
19.83385 174.000
19.85380 158.000
19.87375 136.000
19.89369 156.000
19.91364 162.000
19.93359 145.000
19.95353 148.000
19.97348 155.000
19.99343 160.000
20.01337 144.000
20.03332 136.000
20.05327 143.000
20.07322 146.000
20.09316 170.000
20.11311 157.000
20.13306 178.000
20.15300 160.000
20.17295 154.000
20.19290 141.000
20.21284 159.000
20.23279 162.000
20.25274 166.000
20.27269 150.000
20.29263 136.000
20.31258 145.000
20.33253 161.000
20.35247 151.000
20.37242 131.000
20.39237 161.000
20.41231 157.000
20.43226 171.000
20.45221 182.000
20.47215 146.000
20.49210 155.000
20.51205 153.000
20.53200 143.000
20.55194 150.000
20.57189 153.000
20.59184 145.000
20.61178 155.000
20.63173 164.000
20.65168 170.000
20.67162 153.000
20.69157 134.000
20.71152 166.000
20.73147 145.000
20.75141 133.000
20.77136 169.000
20.79131 162.000
20.81125 166.000
20.83120 157.000
20.85115 158.000
20.87109 174.000
20.89104 150.000
20.91099 190.000
20.93094 156.000
20.95088 186.000
20.97083 141.000
20.99078 175.000
21.01072 157.000
21.03067 150.000
21.05062 174.000
21.07056 152.000
21.09051 148.000
21.11046 178.000
21.13040 168.000
21.15035 150.000
21.17030 175.000
21.19025 172.000
21.21019 191.000
21.23014 139.000
21.25009 168.000
21.27003 170.000
21.28998 143.000
21.30993 146.000
21.32987 155.000
21.34982 148.000
21.36977 159.000
21.38972 162.000
21.40966 150.000
21.42961 140.000
21.44956 144.000
21.46950 136.000
21.48945 151.000
21.50940 140.000
21.52934 137.000
21.54929 148.000
21.56924 155.000
21.58918 146.000
21.60913 156.000
21.62908 147.000
21.64903 140.000
21.66897 150.000
21.68892 166.000
21.70887 157.000
21.72881 163.000
21.74876 148.000
21.76871 151.000
21.78865 169.000
21.80860 160.000
21.82855 165.000
21.84850 141.000
21.86844 149.000
21.88839 141.000
21.90834 154.000
21.92828 166.000
21.94823 147.000
21.96818 147.000
21.98812 151.000
22.00807 134.000
22.02802 145.000
22.04796 139.000
22.06791 152.000
22.08786 148.000
22.10781 177.000
22.12775 160.000
22.14770 160.000
22.16765 144.000
22.18759 155.000
22.20754 185.000
22.22749 163.000
22.24743 150.000
22.26738 160.000
22.28733 160.000
22.30728 159.000
22.32722 158.000
22.34717 151.000
22.36712 135.000
22.38706 157.000
22.40701 147.000
22.42696 177.000
22.44690 158.000
22.46685 172.000
22.48680 184.000
22.50675 156.000
22.52669 159.000
22.54664 130.000
22.56659 151.000
22.58653 153.000
22.60648 153.000
22.62643 148.000
22.64637 149.000
22.66632 147.000
22.68627 148.000
22.70621 147.000
22.72616 148.000
22.74611 152.000
22.76606 167.000
22.78600 157.000
22.80595 141.000
22.82590 130.000
22.84584 118.000
22.86579 161.000
22.88574 174.000
22.90568 148.000
22.92563 149.000
22.94558 186.000
22.96553 166.000
22.98547 148.000
23.00542 166.000
23.02537 161.000
23.04531 150.000
23.06526 142.000
23.08521 141.000
23.10515 134.000
23.12510 167.000
23.14505 145.000
23.16499 146.000
23.18494 155.000
23.20489 155.000
23.22484 167.000
23.24478 156.000
23.26473 189.000
23.28468 155.000
23.30462 169.000
23.32457 162.000
23.34452 166.000
23.36446 135.000
23.38441 145.000
23.40436 142.000
23.42431 171.000
23.44425 169.000
23.46420 150.000
23.48415 155.000
23.50409 153.000
23.52404 144.000
23.54399 154.000
23.56393 154.000
23.58388 146.000
23.60383 157.000
23.62377 144.000
23.64372 170.000
23.66367 135.000
23.68362 144.000
23.70356 149.000
23.72351 151.000
23.74346 150.000
23.76340 164.000
23.78335 139.000
23.80330 129.000
23.82324 153.000
23.84319 138.000
23.86314 151.000
23.88309 175.000
23.90303 163.000
23.92298 153.000
23.94293 177.000
23.96287 173.000
23.98282 130.000
24.00277 150.000
24.02271 154.000
24.04266 150.000
24.06261 157.000
24.08256 143.000
24.10250 170.000
24.12245 161.000
24.14240 144.000
24.16234 152.000
24.18229 149.000
24.20224 130.000
24.22218 150.000
24.24213 161.000
24.26208 168.000
24.28202 161.000
24.30197 171.000
24.32192 165.000
24.34187 149.000
24.36181 155.000
24.38176 161.000
24.40171 124.000
24.42165 146.000
24.44160 164.000
24.46155 154.000
24.48149 138.000
24.50144 129.000
24.52139 146.000
24.54134 143.000
24.56128 153.000
24.58123 139.000
24.60118 157.000
24.62112 137.000
24.64107 161.000
24.66102 162.000
24.68096 135.000
24.70091 154.000
24.72086 146.000
24.74080 166.000
24.76075 131.000
24.78070 174.000
24.80065 148.000
24.82059 142.000
24.84054 159.000
24.86049 161.000
24.88043 149.000
24.90038 167.000
24.92033 148.000
24.94027 151.000
24.96022 162.000
24.98017 149.000
25.00012 151.000
25.02006 169.000
25.04001 141.000
25.05996 156.000
25.07990 161.000
25.09985 159.000
25.11980 163.000
25.13974 159.000
25.15969 151.000
25.17964 145.000
25.19958 147.000
25.21953 177.000
25.23948 163.000
25.25943 171.000
25.27937 159.000
25.29932 152.000
25.31927 154.000
25.33921 167.000
25.35916 164.000
25.37911 144.000
25.39905 162.000
25.41900 153.000
25.43895 160.000
25.45890 147.000
25.47884 140.000
25.49879 153.000
25.51874 146.000
25.53868 165.000
25.55863 161.000
25.57858 176.000
25.59852 165.000
25.61847 156.000
25.63842 144.000
25.65837 161.000
25.67831 144.000
25.69826 170.000
25.71821 153.000
25.73815 172.000
25.75810 163.000
25.77805 148.000
25.79799 166.000
25.81794 161.000
25.83789 171.000
25.85783 150.000
25.87778 161.000
25.89773 154.000
25.91768 148.000
25.93762 170.000
25.95757 156.000
25.97752 151.000
25.99746 153.000
26.01741 174.000
26.03736 133.000
26.05730 158.000
26.07725 145.000
26.09720 158.000
26.11715 161.000
26.13709 178.000
26.15704 173.000
26.17699 162.000
26.19693 147.000
26.21688 169.000
26.23683 172.000
26.25677 142.000
26.27672 148.000
26.29667 167.000
26.31661 162.000
26.33656 165.000
26.35651 167.000
26.37646 151.000
26.39640 141.000
26.41635 162.000
26.43630 149.000
26.45624 147.000
26.47619 156.000
26.49614 168.000
26.51608 144.000
26.53603 151.000
26.55598 179.000
26.57593 127.000
26.59587 150.000
26.61582 156.000
26.63577 162.000
26.65571 177.000
26.67566 174.000
26.69561 149.000
26.71555 160.000
26.73550 128.000
26.75545 168.000
26.77539 149.000
26.79534 187.000
26.81529 168.000
26.83524 127.000
26.85518 159.000
26.87513 152.000
26.89508 153.000
26.91502 155.000
26.93497 166.000
26.95492 171.000
26.97486 168.000
26.99481 169.000
27.01476 168.000
27.03471 161.000
27.05465 145.000
27.07460 164.000
27.09455 166.000
27.11449 162.000
27.13444 161.000
27.15439 181.000
27.17433 167.000
27.19428 166.000
27.21423 153.000
27.23417 137.000
27.25412 174.000
27.27407 173.000
27.29402 159.000
27.31396 152.000
27.33391 163.000
27.35386 163.000
27.37380 168.000
27.39375 148.000
27.41370 174.000
27.43364 181.000
27.45359 159.000
27.47354 159.000
27.49349 167.000
27.51343 178.000
27.53338 166.000
27.55333 182.000
27.57327 160.000
27.59322 176.000
27.61317 154.000
27.63311 161.000
27.65306 186.000
27.67301 151.000
27.69296 158.000
27.71290 176.000
27.73285 175.000
27.75280 149.000
27.77274 176.000
27.79269 168.000
27.81264 137.000
27.83258 139.000
27.85253 178.000
27.87248 163.000
27.89242 165.000
27.91237 173.000
27.93232 153.000
27.95227 180.000
27.97221 159.000
27.99216 158.000
28.01211 165.000
28.03205 169.000
28.05200 164.000
28.07195 157.000
28.09189 158.000
28.11184 149.000
28.13179 157.000
28.15174 181.000
28.17168 161.000
28.19163 170.000
28.21158 149.000
28.23152 171.000
28.25147 142.000
28.27142 163.000
28.29136 145.000
28.31131 169.000
28.33126 160.000
28.35120 151.000
28.37115 162.000
28.39110 170.000
28.41105 190.000
28.43099 160.000
28.45094 171.000
28.47089 145.000
28.49083 169.000
28.51078 156.000
28.53073 155.000
28.55067 172.000
28.57062 161.000
28.59057 159.000
28.61052 153.000
28.63046 160.000
28.65041 169.000
28.67036 163.000
28.69030 179.000
28.71025 172.000
28.73020 191.000
28.75014 158.000
28.77009 155.000
28.79004 155.000
28.80998 178.000
28.82993 171.000
28.84988 154.000
28.86983 174.000
28.88977 151.000
28.90972 174.000
28.92967 161.000
28.94961 163.000
28.96956 155.000
28.98951 171.000
29.00945 147.000
29.02940 152.000
29.04935 157.000
29.06930 171.000
29.08924 176.000
29.10919 169.000
29.12914 180.000
29.14908 155.000
29.16903 143.000
29.18898 167.000
29.20892 168.000
29.22887 151.000
29.24882 172.000
29.26877 190.000
29.28871 170.000
29.30866 190.000
29.32861 175.000
29.34855 181.000
29.36850 181.000
29.38845 170.000
29.40839 183.000
29.42834 168.000
29.44829 184.000
29.46823 161.000
29.48818 170.000
29.50813 178.000
29.52808 164.000
29.54802 188.000
29.56797 156.000
29.58792 181.000
29.60786 156.000
29.62781 165.000
29.64776 168.000
29.66770 172.000
29.68765 167.000
29.70760 196.000
29.72755 162.000
29.74749 175.000
29.76744 141.000
29.78739 189.000
29.80733 175.000
29.82728 189.000
29.84723 199.000
29.86717 204.000
29.88712 166.000
29.90707 182.000
29.92701 169.000
29.94696 175.000
29.96691 182.000
29.98686 150.000
30.00680 197.000
30.02675 191.000
30.04670 186.000
30.06664 203.000
30.08659 205.000
30.10654 215.000
30.12648 226.000
30.14643 236.000
30.16638 242.000
30.18633 247.000
30.20627 333.000
30.22622 329.000
30.24617 414.000
30.26611 519.000
30.28606 648.000
30.30601 709.000
30.32595 706.000
30.34590 695.000
30.36585 663.000
30.38579 566.000
30.40574 471.000
30.42569 380.000
30.44564 308.000
30.46558 271.000
30.48553 263.000
30.50548 215.000
30.52542 242.000
30.54537 177.000
30.56532 195.000
30.58526 184.000
30.60521 199.000
30.62516 187.000
30.64511 183.000
30.66505 191.000
30.68500 191.000
30.70495 173.000
30.72489 160.000
30.74484 167.000
30.76479 171.000
30.78473 141.000
30.80468 161.000
30.82463 166.000
30.84458 144.000
30.86452 154.000
30.88447 161.000
30.90442 161.000
30.92436 179.000
30.94431 145.000
30.96426 186.000
30.98420 175.000
31.00415 163.000
31.02410 168.000
31.04404 162.000
31.06399 166.000
31.08394 171.000
31.10389 170.000
31.12383 180.000
31.14378 171.000
31.16373 184.000
31.18367 165.000
31.20362 159.000
31.22357 182.000
31.24351 165.000
31.26346 186.000
31.28341 153.000
31.30336 156.000
31.32330 165.000
31.34325 171.000
31.36320 160.000
31.38314 165.000
31.40309 141.000
31.42304 162.000
31.44298 158.000
31.46293 173.000
31.48288 191.000
31.50282 184.000
31.52277 162.000
31.54272 167.000
31.56267 186.000
31.58261 171.000
31.60256 167.000
31.62251 155.000
31.64245 151.000
31.66240 167.000
31.68235 170.000
31.70229 168.000
31.72224 181.000
31.74219 168.000
31.76214 185.000
31.78208 153.000
31.80203 150.000
31.82198 208.000
31.84192 182.000
31.86187 167.000
31.88182 176.000
31.90176 175.000
31.92171 181.000
31.94166 186.000
31.96160 173.000
31.98155 167.000
32.00150 193.000
32.02145 166.000
32.04139 174.000
32.06134 158.000
32.08129 167.000
32.10123 181.000
32.12118 148.000
32.14113 181.000
32.16107 204.000
32.18102 190.000
32.20097 154.000
32.22092 151.000
32.24086 142.000
32.26081 180.000
32.28076 196.000
32.30070 191.000
32.32065 140.000
32.34060 184.000
32.36054 155.000
32.38049 176.000
32.40044 194.000
32.42039 177.000
32.44033 189.000
32.46028 167.000
32.48023 167.000
32.50017 173.000
32.52012 169.000
32.54007 192.000
32.56001 160.000
32.57996 209.000
32.59991 177.000
32.61985 193.000
32.63980 170.000
32.65975 181.000
32.67970 170.000
32.69964 207.000
32.71959 179.000
32.73954 176.000
32.75948 160.000
32.77943 193.000
32.79938 208.000
32.81932 205.000
32.83927 205.000
32.85922 172.000
32.87917 173.000
32.89911 200.000
32.91906 218.000
32.93901 169.000
32.95895 203.000
32.97890 224.000
32.99885 205.000
33.01879 230.000
33.03874 248.000
33.05869 261.000
33.07863 278.000
33.09858 286.000
33.11853 282.000
33.13848 289.000
33.15842 306.000
33.17837 303.000
33.19832 305.000
33.21826 286.000
33.23821 327.000
33.25816 303.000
33.27810 255.000
33.29805 282.000
33.31800 267.000
33.33795 260.000
33.35789 219.000
33.37784 212.000
33.39779 212.000
33.41773 228.000
33.43768 213.000
33.45763 205.000
33.47757 189.000
33.49752 181.000
33.51747 195.000
33.53741 202.000
33.55736 171.000
33.57731 162.000
33.59726 184.000
33.61720 197.000
33.63715 195.000
33.65710 183.000
33.67704 180.000
33.69699 184.000
33.71694 192.000
33.73688 184.000
33.75683 178.000
33.77678 178.000
33.79673 188.000
33.81667 174.000
33.83662 186.000
33.85657 176.000
33.87651 196.000
33.89646 206.000
33.91641 204.000
33.93635 170.000
33.95630 183.000
33.97625 196.000
33.99620 194.000
34.01614 190.000
34.03609 178.000
34.05604 152.000
34.07598 194.000
34.09593 161.000
34.11588 201.000
34.13582 195.000
34.15577 156.000
34.17572 205.000
34.19566 179.000
34.21561 181.000
34.23556 189.000
34.25551 193.000
34.27545 202.000
34.29540 195.000
34.31535 181.000
34.33529 184.000
34.35524 206.000
34.37519 189.000
34.39513 219.000
34.41508 204.000
34.43503 202.000
34.45498 212.000
34.47492 208.000
34.49487 215.000
34.51482 197.000
34.53476 221.000
34.55471 219.000
34.57466 210.000
34.59460 232.000
34.61455 231.000
34.63450 163.000
34.65444 260.000
34.67439 235.000
34.69434 212.000
34.71429 180.000
34.73423 219.000
34.75418 217.000
34.77413 245.000
34.79407 233.000
34.81402 214.000
34.83397 267.000
34.85391 261.000
34.87386 247.000
34.89381 258.000
34.91376 267.000
34.93370 309.000
34.95365 278.000
34.97360 282.000
34.99354 317.000
35.01349 327.000
35.03344 353.000
35.05338 324.000
35.07333 348.000
35.09328 333.000
35.11322 356.000
35.13317 338.000
35.15312 373.000
35.17307 395.000
35.19301 395.000
35.21296 409.000
35.23291 455.000
35.25285 413.000
35.27280 431.000
35.29275 417.000
35.31269 411.000
35.33264 413.000
35.35259 437.000
35.37254 433.000
35.39248 418.000
35.41243 426.000
35.43238 369.000
35.45232 424.000
35.47227 437.000
35.49222 469.000
35.51216 459.000
35.53211 589.000
35.55206 587.000
35.57201 641.000
35.59195 704.000
35.61190 926.000
35.63185 1117.000
35.65179 1414.000
35.67174 1769.000
35.69169 1906.000
35.71163 1905.000
35.73158 1833.000
35.75153 1685.000
35.77147 1572.000
35.79142 1429.000
35.81137 1156.000
35.83132 973.000
35.85126 799.000
35.87121 657.000
35.89116 526.000
35.91110 462.000
35.93105 390.000
35.95100 383.000
35.97094 332.000
35.99089 312.000
36.01084 297.000
36.03079 303.000
36.05073 306.000
36.07068 256.000
36.09063 268.000
36.11057 296.000
36.13052 282.000
36.15047 247.000
36.17041 277.000
36.19036 263.000
36.21031 266.000
36.23025 286.000
36.25020 308.000
36.27015 317.000
36.29010 299.000
36.31004 324.000
36.32999 345.000
36.34994 402.000
36.36988 433.000
36.38983 437.000
36.40978 497.000
36.42972 511.000
36.44967 596.000
36.46962 595.000
36.48957 603.000
36.50951 643.000
36.52946 604.000
36.54941 606.000
36.56935 624.000
36.58930 564.000
36.60925 590.000
36.62919 528.000
36.64914 539.000
36.66909 550.000
36.68903 496.000
36.70898 496.000
36.72893 498.000
36.74888 448.000
36.76882 452.000
36.78877 479.000
36.80872 477.000
36.82866 472.000
36.84861 502.000
36.86856 513.000
36.88850 550.000
36.90845 638.000
36.92840 622.000
36.94835 693.000
36.96829 743.000
36.98824 754.000
37.00819 854.000
37.02813 853.000
37.04808 900.000
37.06803 817.000
37.08797 771.000
37.10792 810.000
37.12787 722.000
37.14781 666.000
37.16776 613.000
37.18771 513.000
37.20766 481.000
37.22760 457.000
37.24755 493.000
37.26750 433.000
37.28744 438.000
37.30739 442.000
37.32734 403.000
37.34728 382.000
37.36723 364.000
37.38718 395.000
37.40713 349.000
37.42707 342.000
37.44702 317.000
37.46697 279.000
37.48691 272.000
37.50686 288.000
37.52681 224.000
37.54675 236.000
37.56670 227.000
37.58665 242.000
37.60660 225.000
37.62654 224.000
37.64649 224.000
37.66644 224.000
37.68638 214.000
37.70633 214.000
37.72628 201.000
37.74622 202.000
37.76617 221.000
37.78612 185.000
37.80606 209.000
37.82601 205.000
37.84596 194.000
37.86591 201.000
37.88585 197.000
37.90580 183.000
37.92575 192.000
37.94569 177.000
37.96564 191.000
37.98559 183.000
38.00553 176.000
38.02548 208.000
38.04543 201.000
38.06538 177.000
38.08532 186.000
38.10527 173.000
38.12522 209.000
38.14516 185.000
38.16511 162.000
38.18506 185.000
38.20500 186.000
38.22495 175.000
38.24490 207.000
38.26484 189.000
38.28479 193.000
38.30474 202.000
38.32469 201.000
38.34463 209.000
38.36458 193.000
38.38453 208.000
38.40447 165.000
38.42442 187.000
38.44437 199.000
38.46431 161.000
38.48426 206.000
38.50421 186.000
38.52416 200.000
38.54410 199.000
38.56405 177.000
38.58400 172.000
38.60394 180.000
38.62389 190.000
38.64384 204.000
38.66378 242.000
38.68373 208.000
38.70368 215.000
38.72362 205.000
38.74357 233.000
38.76352 215.000
38.78347 210.000
38.80341 220.000
38.82336 238.000
38.84331 222.000
38.86325 232.000
38.88320 229.000
38.90315 220.000
38.92309 207.000
38.94304 202.000
38.96299 232.000
38.98294 215.000
39.00288 203.000
39.02283 209.000
39.04278 204.000
39.06272 186.000
39.08267 204.000
39.10262 210.000
39.12256 188.000
39.14251 196.000
39.16246 182.000
39.18241 202.000
39.20235 175.000
39.22230 189.000
39.24225 194.000
39.26219 195.000
39.28214 183.000
39.30209 189.000
39.32203 202.000
39.34198 190.000
39.36193 189.000
39.38187 183.000
39.40182 189.000
39.42177 199.000
39.44172 153.000
39.46166 164.000
39.48161 177.000
39.50156 189.000
39.52150 154.000
39.54145 164.000
39.56140 156.000
39.58134 168.000
39.60129 194.000
39.62124 179.000
39.64119 186.000
39.66113 173.000
39.68108 201.000
39.70103 166.000
39.72097 167.000
39.74092 166.000
39.76087 166.000
39.78081 178.000
39.80076 153.000
39.82071 171.000
39.84065 175.000
39.86060 197.000
39.88055 175.000
39.90050 182.000
39.92044 175.000
39.94039 192.000
39.96034 203.000
39.98028 176.000
40.00023 204.000
40.02018 172.000
40.04012 188.000
40.06007 184.000
40.08002 207.000
40.09997 194.000
40.11991 192.000
40.13986 185.000
40.15981 173.000
40.17975 203.000
40.19970 177.000
40.21965 182.000
40.23959 169.000
40.25954 195.000
40.27949 198.000
40.29943 204.000
40.31938 186.000
40.33933 180.000
40.35928 207.000
40.37922 203.000
40.39917 206.000
40.41912 199.000
40.43906 180.000
40.45901 200.000
40.47896 175.000
40.49890 201.000
40.51885 191.000
40.53880 208.000
40.55875 200.000
40.57869 191.000
40.59864 177.000
40.61859 200.000
40.63853 195.000
40.65848 170.000
40.67843 180.000
40.69837 212.000
40.71832 204.000
40.73827 198.000
40.75822 212.000
40.77816 188.000
40.79811 222.000
40.81806 216.000
40.83800 250.000
40.85795 206.000
40.87790 246.000
40.89784 226.000
40.91779 223.000
40.93774 206.000
40.95768 240.000
40.97763 232.000
40.99758 260.000
41.01753 243.000
41.03747 264.000
41.05742 249.000
41.07737 248.000
41.09731 272.000
41.11726 316.000
41.13721 305.000
41.15715 326.000
41.17710 354.000
41.19705 354.000
41.21700 344.000
41.23694 424.000
41.25689 463.000
41.27684 486.000
41.29678 512.000
41.31673 557.000
41.33668 610.000
41.35662 690.000
41.37657 699.000
41.39652 878.000
41.41646 954.000
41.43641 1089.000
41.45636 1123.000
41.47631 1240.000
41.49625 1282.000
41.51620 1304.000
41.53615 1367.000
41.55609 1250.000
41.57604 1225.000
41.59599 1130.000
41.61593 1117.000
41.63588 988.000
41.65583 906.000
41.67578 849.000
41.69572 829.000
41.71567 745.000
41.73562 789.000
41.75556 710.000
41.77551 681.000
41.79546 689.000
41.81540 717.000
41.83535 744.000
41.85530 715.000
41.87524 779.000
41.89519 711.000
41.91514 698.000
41.93509 696.000
41.95503 648.000
41.97498 633.000
41.99493 609.000
42.01487 549.000
42.03482 456.000
42.05477 463.000
42.07471 396.000
42.09466 396.000
42.11461 369.000
42.13456 342.000
42.15450 336.000
42.17445 311.000
42.19440 339.000
42.21434 303.000
42.23429 304.000
42.25424 276.000
42.27418 284.000
42.29413 313.000
42.31408 278.000
42.33403 265.000
42.35397 264.000
42.37392 284.000
42.39387 267.000
42.41381 298.000
42.43376 263.000
42.45371 282.000
42.47365 262.000
42.49360 309.000
42.51355 288.000
42.53349 290.000
42.55344 278.000
42.57339 292.000
42.59334 309.000
42.61328 326.000
42.63323 299.000
42.65318 316.000
42.67312 352.000
42.69307 350.000
42.71302 365.000
42.73296 405.000
42.75291 371.000
42.77286 425.000
42.79281 446.000
42.81275 476.000
42.83270 503.000
42.85265 488.000
42.87259 575.000
42.89254 581.000
42.91249 638.000
42.93243 639.000
42.95238 676.000
42.97233 761.000
42.99227 855.000
43.01222 839.000
43.03217 844.000
43.05212 854.000
43.07206 873.000
43.09201 848.000
43.11196 856.000
43.13190 863.000
43.15185 752.000
43.17180 800.000
43.19174 700.000
43.21169 725.000
43.23164 665.000
43.25159 633.000
43.27153 671.000
43.29148 676.000
43.31143 639.000
43.33137 692.000
43.35132 717.000
43.37127 713.000
43.39121 661.000
43.41116 658.000
43.43111 602.000
43.45105 611.000
43.47100 521.000
43.49095 502.000
43.51090 497.000
43.53084 462.000
43.55079 410.000
43.57074 373.000
43.59068 304.000
43.61063 326.000
43.63058 322.000
43.65052 281.000
43.67047 232.000
43.69042 246.000
43.71037 243.000
43.73031 245.000
43.75026 259.000
43.77021 236.000
43.79015 225.000
43.81010 208.000
43.83005 216.000
43.84999 203.000
43.86994 226.000
43.88989 228.000
43.90984 221.000
43.92978 214.000
43.94973 204.000
43.96968 197.000
43.98962 192.000
44.00957 204.000
44.02952 198.000
44.04946 212.000
44.06941 227.000
44.08936 197.000
44.10930 160.000
44.12925 182.000
44.14920 199.000
44.16915 203.000
44.18909 160.000
44.20904 173.000
44.22899 206.000
44.24893 189.000
44.26888 172.000
44.28883 165.000
44.30877 206.000
44.32872 197.000
44.34867 162.000
44.36862 160.000
44.38856 191.000
44.40851 168.000
44.42846 183.000
44.44840 172.000
44.46835 167.000
44.48830 166.000
44.50824 219.000
44.52819 192.000
44.54814 195.000
44.56808 199.000
44.58803 161.000
44.60798 195.000
44.62793 194.000
44.64787 193.000
44.66782 182.000
44.68777 149.000
44.70771 205.000
44.72766 197.000
44.74761 203.000
44.76755 192.000
44.78750 185.000
44.80745 211.000
44.82740 180.000
44.84734 201.000
44.86729 209.000
44.88724 200.000
44.90718 226.000
44.92713 217.000
44.94708 230.000
44.96702 199.000
44.98697 215.000
45.00692 233.000
45.02686 201.000
45.04681 181.000
45.06676 183.000
45.08671 218.000
45.10665 175.000
45.12660 182.000
45.14655 187.000
45.16649 200.000
45.18644 181.000
45.20639 186.000
45.22633 192.000
45.24628 174.000
45.26623 186.000
45.28618 165.000
45.30612 175.000
45.32607 181.000
45.34602 156.000
45.36596 166.000
45.38591 206.000
45.40586 170.000
45.42580 153.000
45.44575 166.000
45.46570 162.000
45.48565 185.000
45.50559 167.000
45.52554 182.000
45.54549 177.000
45.56543 184.000
45.58538 203.000
45.60533 169.000
45.62527 165.000
45.64522 172.000
45.66517 174.000
45.68511 201.000
45.70506 186.000
45.72501 156.000
45.74496 168.000
45.76490 164.000
45.78485 163.000
45.80480 162.000
45.82474 166.000
45.84469 172.000
45.86464 175.000
45.88458 165.000
45.90453 173.000
45.92448 161.000
45.94443 169.000
45.96437 164.000
45.98432 173.000
46.00427 157.000
46.02421 170.000
46.04416 164.000
46.06411 172.000
46.08405 171.000
46.10400 160.000
46.12395 174.000
46.14389 161.000
46.16384 178.000
46.18379 184.000
46.20374 205.000
46.22368 183.000
46.24363 178.000
46.26358 169.000
46.28352 164.000
46.30347 177.000
46.32342 191.000
46.34336 175.000
46.36331 179.000
46.38326 155.000
46.40321 168.000
46.42315 152.000
46.44310 158.000
46.46305 191.000
46.48299 145.000
46.50294 167.000
46.52289 161.000
46.54283 162.000
46.56278 191.000
46.58273 166.000
46.60267 168.000
46.62262 152.000
46.64257 156.000
46.66252 183.000
46.68246 172.000
46.70241 163.000
46.72236 191.000
46.74230 154.000
46.76225 178.000
46.78220 157.000
46.80214 158.000
46.82209 175.000
46.84204 176.000
46.86199 156.000
46.88193 162.000
46.90188 166.000
46.92183 172.000
46.94177 166.000
46.96172 152.000
46.98167 166.000
47.00161 168.000
47.02156 159.000
47.04151 179.000
47.06146 153.000
47.08140 170.000
47.10135 147.000
47.12130 162.000
47.14124 155.000
47.16119 181.000
47.18114 171.000
47.20108 168.000
47.22103 180.000
47.24098 168.000
47.26092 138.000
47.28087 195.000
47.30082 160.000
47.32077 178.000
47.34071 182.000
47.36066 175.000
47.38061 169.000
47.40055 172.000
47.42050 175.000
47.44045 148.000
47.46039 176.000
47.48034 166.000
47.50029 170.000
47.52024 191.000
47.54018 164.000
47.56013 160.000
47.58008 177.000
47.60002 172.000
47.61997 205.000
47.63992 151.000
47.65986 158.000
47.67981 172.000
47.69976 193.000
47.71970 164.000
47.73965 180.000
47.75960 198.000
47.77955 160.000
47.79949 188.000
47.81944 173.000
47.83939 172.000
47.85933 166.000
47.87928 161.000
47.89923 181.000
47.91917 171.000
47.93912 166.000
47.95907 158.000
47.97902 170.000
47.99896 160.000
48.01891 178.000
48.03886 172.000
48.05880 189.000
48.07875 187.000
48.09870 160.000
48.11864 176.000
48.13859 173.000
48.15854 170.000
48.17848 187.000
48.19843 183.000
48.21838 161.000
48.23833 181.000
48.25827 174.000
48.27822 175.000
48.29817 175.000
48.31811 179.000
48.33806 166.000
48.35801 165.000
48.37795 176.000
48.39790 180.000
48.41785 148.000
48.43780 157.000
48.45774 171.000
48.47769 185.000
48.49764 172.000
48.51758 161.000
48.53753 149.000
48.55748 166.000
48.57742 167.000
48.59737 161.000
48.61732 199.000
48.63726 183.000
48.65721 181.000
48.67716 168.000
48.69711 173.000
48.71705 163.000
48.73700 156.000
48.75695 182.000
48.77689 192.000
48.79684 201.000
48.81679 172.000
48.83673 168.000
48.85668 155.000
48.87663 192.000
48.89658 175.000
48.91652 165.000
48.93647 179.000
48.95642 185.000
48.97636 172.000
48.99631 151.000
49.01626 148.000
49.03620 163.000
49.05615 168.000
49.07610 154.000
49.09605 167.000
49.11599 152.000
49.13594 187.000
49.15589 165.000
49.17583 162.000
49.19578 163.000
49.21573 171.000
49.23567 173.000
49.25562 169.000
49.27557 146.000
49.29551 180.000
49.31546 162.000
49.33541 172.000
49.35536 165.000
49.37530 169.000
49.39525 155.000
49.41520 153.000
49.43514 172.000
49.45509 145.000
49.47504 157.000
49.49498 154.000
49.51493 152.000
49.53488 170.000
49.55483 177.000
49.57477 146.000
49.59472 154.000
49.61467 157.000
49.63461 160.000
49.65456 161.000
49.67451 169.000
49.69445 166.000
49.71440 170.000
49.73435 171.000
49.75429 166.000
49.77424 167.000
49.79419 155.000
49.81414 154.000
49.83408 174.000
49.85403 145.000
49.87398 163.000
49.89392 174.000
49.91387 160.000
49.93382 170.000
49.95376 158.000
49.97371 168.000
49.99366 172.000
50.01361 164.000
50.03355 152.000
50.05350 171.000
50.07345 138.000
50.09339 167.000
50.11334 133.000
50.13329 152.000
50.15323 155.000
50.17318 155.000
50.19313 166.000
50.21307 160.000
50.23302 155.000
50.25297 159.000
50.27292 143.000
50.29286 169.000
50.31281 162.000
50.33276 136.000
50.35270 166.000
50.37265 162.000
50.39260 153.000
50.41254 133.000
50.43249 157.000
50.45244 145.000
50.47239 175.000
50.49233 154.000
50.51228 127.000
50.53223 175.000
50.55217 173.000
50.57212 165.000
50.59207 176.000
50.61201 165.000
50.63196 174.000
50.65191 150.000
50.67186 159.000
50.69180 159.000
50.71175 136.000
50.73170 161.000
50.75164 157.000
50.77159 172.000
50.79154 149.000
50.81148 181.000
50.83143 185.000
50.85138 159.000
50.87132 140.000
50.89127 160.000
50.91122 151.000
50.93117 150.000
50.95111 158.000
50.97106 156.000
50.99101 151.000
51.01095 172.000
51.03090 142.000
51.05085 153.000
51.07079 166.000
51.09074 148.000
51.11069 143.000
51.13064 171.000
51.15058 135.000
51.17053 152.000
51.19048 155.000
51.21042 158.000
51.23037 162.000
51.25032 158.000
51.27026 165.000
51.29021 166.000
51.31016 153.000
51.33010 164.000
51.35005 181.000
51.37000 157.000
51.38995 165.000
51.40989 183.000
51.42984 148.000
51.44979 136.000
51.46973 139.000
51.48968 164.000
51.50963 152.000
51.52957 174.000
51.54952 135.000
51.56947 160.000
51.58942 159.000
51.60936 149.000
51.62931 160.000
51.64926 145.000
51.66920 171.000
51.68915 145.000
51.70910 167.000
51.72904 139.000
51.74899 156.000
51.76894 163.000
51.78888 169.000
51.80883 154.000
51.82878 139.000
51.84873 168.000
51.86867 165.000
51.88862 152.000
51.90857 140.000
51.92851 145.000
51.94846 164.000
51.96841 156.000
51.98835 154.000
52.00830 180.000
52.02825 174.000
52.04820 174.000
52.06814 162.000
52.08809 175.000
52.10804 150.000
52.12798 164.000
52.14793 169.000
52.16788 167.000
52.18782 172.000
52.20777 163.000
52.22772 170.000
52.24767 157.000
52.26761 168.000
52.28756 160.000
52.30751 160.000
52.32745 163.000
52.34740 157.000
52.36735 171.000
52.38729 163.000
52.40724 160.000
52.42719 152.000
52.44713 146.000
52.46708 164.000
52.48703 134.000
52.50698 145.000
52.52692 169.000
52.54687 150.000
52.56682 162.000
52.58676 160.000
52.60671 173.000
52.62666 182.000
52.64660 201.000
52.66655 157.000
52.68650 166.000
52.70645 172.000
52.72639 164.000
52.74634 166.000
52.76629 191.000
52.78623 153.000
52.80618 185.000
52.82613 161.000
52.84607 172.000
52.86602 183.000
52.88597 171.000
52.90591 158.000
52.92586 180.000
52.94581 191.000
52.96576 193.000
52.98570 210.000
53.00565 211.000
53.02560 220.000
53.04554 248.000
53.06549 243.000
53.08544 250.000
53.10538 283.000
53.12533 312.000
53.14528 326.000
53.16523 295.000
53.18517 280.000
53.20512 306.000
53.22507 261.000
53.24501 260.000
53.26496 257.000
53.28491 280.000
53.30485 283.000
53.32480 244.000
53.34475 220.000
53.36469 211.000
53.38464 226.000
53.40459 203.000
53.42454 195.000
53.44448 184.000
53.46443 189.000
53.48438 191.000
53.50432 173.000
53.52427 201.000
53.54422 174.000
53.56416 163.000
53.58411 188.000
53.60406 193.000
53.62401 199.000
53.64395 181.000
53.66390 179.000
53.68385 208.000
53.70379 193.000
53.72374 205.000
53.74369 241.000
53.76363 241.000
53.78358 249.000
53.80353 271.000
53.82348 307.000
53.84342 281.000
53.86337 301.000
53.88332 282.000
53.90326 246.000
53.92321 262.000
53.94316 275.000
53.96310 275.000
53.98305 228.000
54.00300 231.000
54.02294 220.000
54.04289 215.000
54.06284 194.000
54.08279 196.000
54.10273 179.000
54.12268 184.000
54.14263 151.000
54.16257 174.000
54.18252 169.000
54.20247 184.000
54.22241 154.000
54.24236 186.000
54.26231 158.000
54.28226 164.000
54.30220 185.000
54.32215 201.000
54.34210 169.000
54.36204 164.000
54.38199 161.000
54.40194 169.000
54.42188 177.000
54.44183 189.000
54.46178 182.000
54.48172 152.000
54.50167 179.000
54.52162 143.000
54.54157 166.000
54.56151 154.000
54.58146 169.000
54.60141 185.000
54.62135 182.000
54.64130 175.000
54.66125 170.000
54.68119 180.000
54.70114 175.000
54.72109 184.000
54.74104 174.000
54.76098 163.000
54.78093 167.000
54.80088 168.000
54.82082 165.000
54.84077 171.000
54.86072 147.000
54.88066 158.000
54.90061 176.000
54.92056 165.000
54.94050 149.000
54.96045 168.000
54.98040 169.000
55.00035 159.000
55.02029 160.000
55.04024 141.000
55.06019 147.000
55.08013 189.000
55.10008 185.000
55.12003 165.000
55.13997 152.000
55.15992 157.000
55.17987 181.000
55.19982 164.000
55.21976 157.000
55.23971 152.000
55.25966 173.000
55.27960 164.000
55.29955 138.000
55.31950 170.000
55.33944 173.000
55.35939 182.000
55.37934 193.000
55.39929 170.000
55.41923 145.000
55.43918 158.000
55.45913 153.000
55.47907 175.000
55.49902 154.000
55.51897 175.000
55.53891 148.000
55.55886 162.000
55.57881 154.000
55.59875 160.000
55.61870 150.000
55.63865 164.000
55.65860 161.000
55.67854 149.000
55.69849 138.000
55.71844 143.000
55.73838 172.000
55.75833 158.000
55.77828 157.000
55.79822 169.000
55.81817 136.000
55.83812 166.000
55.85807 140.000
55.87801 165.000
55.89796 164.000
55.91791 182.000
55.93785 161.000
55.95780 168.000
55.97775 170.000
55.99769 162.000
56.01764 184.000
56.03759 142.000
56.05753 157.000
56.07748 155.000
56.09743 173.000
56.11738 186.000
56.13732 173.000
56.15727 157.000
56.17722 172.000
56.19716 147.000
56.21711 182.000
56.23706 138.000
56.25700 177.000
56.27695 156.000
56.29690 182.000
56.31685 168.000
56.33679 175.000
56.35674 146.000
56.37669 182.000
56.39663 176.000
56.41658 165.000
56.43653 172.000
56.45647 196.000
56.47642 160.000
56.49637 155.000
56.51631 172.000
56.53626 162.000
56.55621 152.000
56.57616 154.000
56.59610 155.000
56.61605 166.000
56.63600 197.000
56.65594 184.000
56.67589 161.000
56.69584 161.000
56.71578 179.000
56.73573 167.000
56.75568 167.000
56.77563 180.000
56.79557 153.000
56.81552 184.000
56.83547 166.000
56.85541 182.000
56.87536 170.000
56.89531 188.000
56.91525 173.000
56.93520 190.000
56.95515 188.000
56.97510 170.000
56.99504 181.000
57.01499 190.000
57.03494 194.000
57.05488 197.000
57.07483 208.000
57.09478 201.000
57.11472 219.000
57.13467 217.000
57.15462 207.000
57.17456 222.000
57.19451 277.000
57.21446 269.000
57.23441 274.000
57.25435 278.000
57.27430 377.000
57.29425 352.000
57.31419 424.000
57.33414 455.000
57.35409 505.000
57.37403 520.000
57.39398 511.000
57.41393 514.000
57.43388 492.000
57.45382 451.000
57.47377 452.000
57.49372 487.000
57.51366 463.000
57.53361 446.000
57.55356 435.000
57.57350 358.000
57.59345 360.000
57.61340 369.000
57.63334 344.000
57.65329 313.000
57.67324 309.000
57.69319 309.000
57.71313 350.000
57.73308 302.000
57.75303 343.000
57.77297 346.000
57.79292 380.000
57.81287 384.000
57.83281 373.000
57.85276 414.000
57.87271 394.000
57.89266 436.000
57.91260 355.000
57.93255 372.000
57.95250 392.000
57.97244 330.000
57.99239 373.000
58.01234 358.000
58.03228 344.000
58.05223 327.000
58.07218 285.000
58.09212 282.000
58.11207 251.000
58.13202 259.000
58.15197 234.000
58.17191 229.000
58.19186 236.000
58.21181 213.000
58.23175 233.000
58.25170 251.000
58.27165 231.000
58.29159 215.000
58.31154 201.000
58.33149 190.000
58.35144 203.000
58.37138 192.000
58.39133 174.000
58.41128 185.000
58.43122 170.000
58.45117 211.000
58.47112 197.000
58.49106 188.000
58.51101 221.000
58.53096 199.000
58.55090 187.000
58.57085 174.000
58.59080 195.000
58.61075 185.000
58.63069 176.000
58.65064 179.000
58.67059 169.000
58.69053 176.000
58.71048 161.000
58.73043 190.000
58.75037 174.000
58.77032 174.000
58.79027 194.000
58.81022 194.000
58.83016 187.000
58.85011 170.000
58.87006 166.000
58.89000 190.000
58.90995 192.000
58.92990 177.000
58.94984 170.000
58.96979 179.000
58.98974 190.000
59.00969 193.000
59.02963 182.000
59.04958 159.000
59.06953 180.000
59.08947 183.000
59.10942 155.000
59.12937 188.000
59.14931 193.000
59.16926 190.000
59.18921 189.000
59.20915 209.000
59.22910 181.000
59.24905 218.000
59.26900 172.000
59.28894 167.000
59.30889 185.000
59.32884 175.000
59.34878 187.000
59.36873 168.000
59.38868 205.000
59.40862 175.000
59.42857 226.000
59.44852 198.000
59.46847 216.000
59.48841 192.000
59.50836 195.000
59.52831 211.000
59.54825 210.000
59.56820 203.000
59.58815 208.000
59.60809 197.000
59.62804 203.000
59.64799 212.000
59.66793 252.000
59.68788 204.000
59.70783 218.000
59.72778 234.000
59.74772 234.000
59.76767 229.000
59.78762 219.000
59.80756 219.000
59.82751 227.000
59.84746 221.000
59.86740 248.000
59.88735 249.000
59.90730 215.000
59.92725 225.000
59.94719 236.000
59.96714 206.000
59.98709 208.000
60.00703 199.000
60.02698 215.000
60.04693 206.000
60.06687 227.000
60.08682 178.000
60.10677 187.000
60.12671 196.000
60.14666 176.000
60.16661 190.000
60.18656 166.000
60.20650 189.000
60.22645 167.000
60.24640 171.000
60.26634 190.000
60.28629 178.000
60.30624 187.000
60.32618 194.000
60.34613 211.000
60.36608 182.000
60.38603 183.000
60.40597 188.000
60.42592 174.000
60.44587 175.000
60.46581 179.000
60.48576 175.000
60.50571 186.000
60.52565 169.000
60.54560 177.000
60.56555 192.000
60.58550 184.000
60.60544 153.000
60.62539 189.000
60.64534 183.000
60.66528 208.000
60.68523 195.000
60.70518 181.000
60.72512 164.000
60.74507 200.000
60.76502 188.000
60.78496 188.000
60.80491 178.000
60.82486 187.000
60.84481 172.000
60.86475 165.000
60.88470 176.000
60.90465 194.000
60.92459 167.000
60.94454 185.000
60.96449 188.000
60.98443 191.000
61.00438 175.000
61.02433 168.000
61.04428 190.000
61.06422 186.000
61.08417 199.000
61.10412 193.000
61.12406 182.000
61.14401 173.000
61.16396 186.000
61.18390 207.000
61.20385 193.000
61.22380 219.000
61.24374 204.000
61.26369 179.000
61.28364 186.000
61.30359 195.000
61.32353 215.000
61.34348 175.000
61.36343 215.000
61.38337 188.000
61.40332 223.000
61.42327 199.000
61.44321 199.000
61.46316 232.000
61.48311 223.000
61.50306 234.000
61.52300 234.000
61.54295 240.000
61.56290 250.000
61.58284 271.000
61.60279 265.000
61.62274 308.000
61.64268 297.000
61.66263 324.000
61.68258 325.000
61.70252 331.000
61.72247 327.000
61.74242 333.000
61.76237 326.000
61.78231 325.000
61.80226 343.000
61.82221 309.000
61.84215 321.000
61.86210 360.000
61.88205 366.000
61.90199 306.000
61.92194 345.000
61.94189 333.000
61.96184 320.000
61.98178 354.000
62.00173 351.000
62.02168 358.000
62.04162 381.000
62.06157 326.000
62.08152 358.000
62.10146 378.000
62.12141 361.000
62.14136 421.000
62.16131 397.000
62.18125 416.000
62.20120 432.000
62.22115 432.000
62.24109 436.000
62.26104 461.000
62.28099 472.000
62.30093 487.000
62.32088 477.000
62.34083 507.000
62.36077 545.000
62.38072 589.000
62.40067 517.000
62.42062 575.000
62.44056 614.000
62.46051 577.000
62.48046 638.000
62.50040 569.000
62.52035 594.000
62.54030 575.000
62.56024 539.000
62.58019 559.000
62.60014 549.000
62.62009 519.000
62.64003 523.000
62.65998 459.000
62.67993 490.000
62.69987 424.000
62.71982 457.000
62.73977 423.000
62.75971 451.000
62.77966 462.000
62.79961 453.000
62.81955 446.000
62.83950 450.000
62.85945 452.000
62.87940 446.000
62.89934 476.000
62.91929 553.000
62.93924 575.000
62.95918 608.000
62.97913 645.000
62.99908 768.000
63.01902 740.000
63.03897 707.000
63.05892 664.000
63.07887 609.000
63.09881 635.000
63.11876 576.000
63.13871 542.000
63.15865 553.000
63.17860 526.000
63.19855 508.000
63.21849 503.000
63.23844 449.000
63.25839 371.000
63.27833 425.000
63.29828 339.000
63.31823 315.000
63.33818 283.000
63.35812 260.000
63.37807 238.000
63.39802 223.000
63.41796 245.000
63.43791 239.000
63.45786 209.000
63.47780 213.000
63.49775 227.000
63.51770 202.000
63.53765 202.000
63.55759 207.000
63.57754 223.000
63.59749 186.000
63.61743 191.000
63.63738 172.000
63.65733 210.000
63.67727 150.000
63.69722 176.000
63.71717 161.000
63.73712 174.000
63.75706 197.000
63.77701 181.000
63.79696 170.000
63.81690 172.000
63.83685 170.000
63.85680 182.000
63.87674 174.000
63.89669 193.000
63.91664 190.000
63.93658 173.000
63.95653 195.000
63.97648 196.000
63.99643 188.000
64.01637 167.000
64.03632 195.000
64.05627 198.000
64.07621 190.000
64.09616 186.000
64.11611 177.000
64.13605 137.000
64.15600 211.000
64.17595 170.000
64.19590 186.000
64.21584 175.000
64.23579 173.000
64.25574 161.000
64.27568 171.000
64.29563 200.000
64.31558 183.000
64.33552 157.000
64.35547 216.000
64.37542 205.000
64.39536 193.000
64.41531 193.000
64.43526 190.000
64.45521 176.000
64.47515 176.000
64.49510 181.000
64.51505 180.000
64.53499 188.000
64.55494 190.000
64.57489 223.000
64.59483 205.000
64.61478 177.000
64.63473 196.000
64.65468 196.000
64.67462 199.000
64.69457 182.000
64.71452 201.000
64.73446 192.000
64.75441 182.000
64.77436 204.000
64.79430 203.000
64.81425 200.000
64.83420 205.000
64.85414 215.000
64.87409 222.000
64.89404 230.000
64.91399 197.000
64.93393 212.000
64.95388 196.000
64.97383 225.000
64.99377 223.000
65.01372 221.000
65.03367 205.000
65.05361 244.000
65.07356 205.000
65.09351 221.000
65.11346 221.000
65.13340 177.000
65.15335 191.000
65.17330 194.000
65.19324 193.000
65.21319 213.000
65.23314 190.000
65.25308 163.000
65.27303 181.000
65.29298 215.000
65.31293 181.000
65.33287 191.000
65.35282 188.000
65.37277 198.000
65.39271 179.000
65.41266 179.000
65.43261 192.000
65.45255 173.000
65.47250 217.000
65.49245 168.000
65.51239 153.000
65.53234 193.000
65.55229 232.000
65.57224 182.000
65.59218 159.000
65.61213 181.000
65.63208 174.000
65.65202 172.000
65.67197 201.000
65.69192 168.000
65.71186 196.000
65.73181 185.000
65.75176 170.000
65.77171 165.000
65.79165 186.000
65.81160 193.000
65.83155 179.000
65.85149 167.000
65.87144 173.000
65.89139 186.000
65.91133 197.000
65.93128 169.000
65.95123 166.000
65.97117 176.000
65.99112 164.000
66.01107 177.000
66.03102 166.000
66.05096 160.000
66.07091 164.000
66.09086 182.000
66.11080 193.000
66.13075 156.000
66.15070 162.000
66.17064 171.000
66.19059 195.000
66.21054 147.000
66.23049 162.000
66.25043 183.000
66.27038 168.000
66.29033 171.000
66.31027 203.000
66.33022 153.000
66.35017 185.000
66.37011 167.000
66.39006 179.000
66.41001 182.000
66.42995 199.000
66.44990 151.000
66.46985 170.000
66.48980 169.000
66.50974 178.000
66.52969 201.000
66.54964 176.000
66.56958 154.000
66.58953 181.000
66.60948 175.000
66.62942 174.000
66.64937 169.000
66.66932 170.000
66.68927 168.000
66.70921 164.000
66.72916 153.000
66.74911 157.000
66.76905 173.000
66.78900 177.000
66.80895 162.000
66.82889 186.000
66.84884 167.000
66.86879 166.000
66.88874 158.000
66.90868 170.000
66.92863 173.000
66.94858 161.000
66.96852 174.000
66.98847 169.000
67.00842 161.000
67.02836 150.000
67.04831 152.000
67.06826 153.000
67.08820 169.000
67.10815 146.000
67.12810 152.000
67.14805 164.000
67.16799 173.000
67.18794 166.000
67.20789 179.000
67.22783 181.000
67.24778 187.000
67.26773 170.000
67.28767 153.000
67.30762 171.000
67.32757 184.000
67.34752 163.000
67.36746 158.000
67.38741 172.000
67.40736 175.000
67.42730 154.000
67.44725 153.000
67.46720 171.000
67.48714 182.000
67.50709 175.000
67.52704 181.000
67.54698 154.000
67.56693 150.000
67.58688 185.000
67.60683 190.000
67.62677 188.000
67.64672 178.000
67.66667 181.000
67.68661 175.000
67.70656 173.000
67.72651 182.000
67.74645 177.000
67.76640 173.000
67.78635 184.000
67.80630 162.000
67.82624 185.000
67.84619 161.000
67.86614 177.000
67.88608 147.000
67.90603 170.000
67.92598 180.000
67.94592 156.000
67.96587 185.000
67.98582 178.000
68.00576 209.000
68.02571 177.000
68.04566 183.000
68.06561 189.000
68.08555 166.000
68.10550 177.000
68.12545 180.000
68.14539 185.000
68.16534 182.000
68.18529 194.000
68.20523 217.000
68.22518 216.000
68.24513 223.000
68.26508 192.000
68.28502 212.000
68.30497 230.000
68.32492 189.000
68.34486 195.000
68.36481 192.000
68.38476 245.000
68.40470 228.000
68.42465 235.000
68.44460 221.000
68.46455 189.000
68.48449 199.000
68.50444 198.000
68.52439 184.000
68.54433 191.000
68.56428 171.000
68.58423 181.000
68.60417 187.000
68.62412 178.000
68.64407 180.000
68.66401 192.000
68.68396 154.000
68.70391 181.000
68.72386 176.000
68.74380 178.000
68.76375 159.000
68.78370 182.000
68.80364 171.000
68.82359 169.000
68.84354 148.000
68.86348 186.000
68.88343 153.000
68.90338 171.000
68.92333 169.000
68.94327 156.000
68.96322 171.000
68.98317 162.000
69.00311 169.000
69.02306 182.000
69.04301 172.000
69.06295 178.000
69.08290 181.000
69.10285 188.000
69.12279 184.000
69.14274 175.000
69.16269 192.000
69.18264 159.000
69.20258 189.000
69.22253 163.000
69.24248 165.000
69.26242 186.000
69.28237 171.000
69.30232 176.000
69.32226 169.000
69.34221 161.000
69.36216 163.000
69.38211 169.000
69.40205 158.000
69.42200 179.000
69.44195 175.000
69.46189 174.000
69.48184 151.000
69.50179 190.000
69.52173 160.000
69.54168 193.000
69.56163 160.000
69.58157 164.000
69.60152 205.000
69.62147 179.000
69.64142 186.000
69.66136 200.000
69.68131 193.000
69.70126 195.000
69.72120 170.000
69.74115 185.000
69.76110 186.000
69.78104 201.000
69.80099 192.000
69.82094 162.000
69.84089 170.000
69.86083 177.000
69.88078 170.000
69.90073 178.000
69.92067 156.000
69.94062 194.000
69.96057 181.000
69.98051 175.000
70.00046 157.000
70.02041 161.000
70.04035 170.000
70.06030 159.000
70.08025 190.000
70.10020 163.000
70.12014 155.000
70.14009 152.000
70.16004 171.000
70.17998 170.000
70.19993 163.000
70.21988 184.000
70.23982 158.000
70.25977 176.000
70.27972 141.000
70.29967 156.000
70.31961 166.000
70.33956 158.000
70.35951 178.000
70.37945 162.000
70.39940 165.000
70.41935 167.000
70.43929 155.000
70.45924 139.000
70.47919 197.000
70.49914 177.000
70.51908 176.000
70.53903 159.000
70.55898 136.000
70.57892 163.000
70.59887 171.000
70.61882 158.000
70.63876 160.000
70.65871 151.000
70.67866 155.000
70.69860 168.000
70.71855 147.000
70.73850 175.000
70.75845 164.000
70.77839 174.000
70.79834 173.000
70.81829 181.000
70.83823 151.000
70.85818 153.000
70.87813 183.000
70.89807 179.000
70.91802 163.000
70.93797 154.000
70.95792 175.000
70.97786 167.000
70.99781 172.000
71.01776 157.000
71.03770 171.000
71.05765 183.000
71.07760 171.000
71.09754 176.000
71.11749 186.000
71.13744 198.000
71.15738 172.000
71.17733 170.000
71.19728 161.000
71.21723 185.000
71.23717 183.000
71.25712 161.000
71.27707 192.000
71.29701 176.000
71.31696 186.000
71.33691 209.000
71.35685 193.000
71.37680 177.000
71.39675 193.000
71.41670 195.000
71.43664 199.000
71.45659 240.000
71.47654 205.000
71.49648 225.000
71.51643 197.000
71.53638 225.000
71.55632 192.000
71.57627 214.000
71.59622 209.000
71.61616 223.000
71.63611 192.000
71.65606 183.000
71.67601 206.000
71.69595 207.000
71.71590 182.000
71.73585 178.000
71.75579 165.000
71.77574 188.000
71.79569 186.000
71.81563 180.000
71.83558 204.000
71.85553 156.000
71.87548 177.000
71.89542 193.000
71.91537 171.000
71.93532 176.000
71.95526 181.000
71.97521 165.000
71.99516 187.000
72.01510 178.000
72.03505 204.000
72.05500 211.000
72.07495 189.000
72.09489 197.000
72.11484 163.000
72.13479 207.000
72.15473 180.000
72.17468 180.000
72.19463 212.000
72.21457 188.000
72.23452 203.000
72.25447 187.000
72.27441 187.000
72.29436 229.000
72.31431 219.000
72.33426 233.000
72.35420 208.000
72.37415 222.000
72.39410 201.000
72.41404 232.000
72.43399 200.000
72.45394 223.000
72.47388 222.000
72.49383 228.000
72.51378 237.000
72.53373 216.000
72.55367 213.000
72.57362 222.000
72.59357 225.000
72.61351 235.000
72.63346 228.000
72.65341 179.000
72.67335 219.000
72.69330 212.000
72.71325 215.000
72.73319 252.000
72.75314 194.000
72.77309 223.000
72.79304 206.000
72.81298 201.000
72.83293 203.000
72.85288 211.000
72.87282 205.000
72.89277 189.000
72.91272 203.000
72.93266 197.000
72.95261 194.000
72.97256 183.000
72.99251 209.000
73.01245 195.000
73.03240 208.000
73.05235 203.000
73.07229 211.000
73.09224 185.000
73.11219 192.000
73.13213 212.000
73.15208 191.000
73.17203 188.000
73.19197 208.000
73.21192 157.000
73.23187 161.000
73.25182 185.000
73.27176 196.000
73.29171 199.000
73.31166 182.000
73.33160 203.000
73.35155 197.000
73.37150 195.000
73.39144 193.000
73.41139 157.000
73.43134 194.000
73.45129 162.000
73.47123 198.000
73.49118 190.000
73.51113 201.000
73.53107 209.000
73.55102 209.000
73.57097 206.000
73.59091 189.000
73.61086 207.000
73.63081 173.000
73.65076 196.000
73.67070 193.000
73.69065 201.000
73.71060 223.000
73.73054 192.000
73.75049 206.000
73.77044 201.000
73.79038 196.000
73.81033 220.000
73.83028 202.000
73.85022 204.000
73.87017 191.000
73.89012 199.000
73.91007 210.000
73.93001 208.000
73.94996 237.000
73.96991 207.000
73.98985 183.000
74.00980 228.000
74.02975 241.000
74.04969 209.000
74.06964 229.000
74.08959 235.000
74.10954 248.000
74.12948 209.000
74.14943 226.000
74.16938 210.000
74.18932 194.000
74.20927 234.000
74.22922 228.000
74.24916 243.000
74.26911 213.000
74.28906 230.000
74.30900 205.000
74.32895 207.000
74.34890 230.000
74.36885 230.000
74.38879 241.000
74.40874 252.000
74.42869 247.000
74.44863 250.000
74.46858 251.000
74.48853 265.000
74.50847 283.000
74.52842 268.000
74.54837 318.000
74.56832 321.000
74.58826 278.000
74.60821 295.000
74.62816 278.000
74.64810 297.000
74.66805 294.000
74.68800 290.000
74.70794 309.000
74.72789 295.000
74.74784 271.000
74.76778 278.000
74.78773 290.000
74.80768 280.000
74.82763 289.000
74.84757 294.000
74.86752 273.000
74.88747 271.000
74.90741 320.000
74.92736 270.000
74.94731 258.000
74.96725 298.000
74.98720 257.000
75.00715 248.000
75.02710 277.000
75.04704 241.000
75.06699 258.000
75.08694 271.000
75.10688 227.000
75.12683 244.000
75.14678 277.000
75.16672 253.000
75.18667 238.000
75.20662 246.000
75.22657 247.000
75.24651 244.000
75.26646 233.000
75.28641 211.000
75.30635 206.000
75.32630 235.000
75.34625 215.000
75.36619 224.000
75.38614 201.000
75.40609 207.000
75.42603 217.000
75.44598 230.000
75.46593 189.000
75.48588 204.000
75.50582 210.000
75.52577 216.000
75.54572 206.000
75.56566 209.000
75.58561 232.000
75.60556 184.000
75.62550 212.000
75.64545 217.000
75.66540 199.000
75.68535 181.000
75.70529 195.000
75.72524 188.000
75.74519 197.000
75.76513 170.000
75.78508 212.000
75.80503 180.000
75.82497 196.000
75.84492 200.000
75.86487 184.000
75.88481 181.000
75.90476 179.000
75.92471 177.000
75.94466 187.000
75.96460 194.000
75.98455 176.000
76.00450 188.000
76.02444 191.000
76.04439 199.000
76.06434 177.000
76.08428 163.000
76.10423 159.000
76.12418 194.000
76.14413 205.000
76.16407 148.000
76.18402 165.000
76.20397 186.000
76.22391 162.000
76.24386 154.000
76.26381 164.000
76.28375 177.000
76.30370 162.000
76.32365 154.000
76.34359 148.000
76.36354 151.000
76.38349 163.000
76.40344 167.000
76.42338 164.000
76.44333 173.000
76.46328 189.000
76.48322 152.000
76.50317 185.000
76.52312 163.000
76.54306 153.000
76.56301 169.000
76.58296 148.000
76.60291 165.000
76.62285 165.000
76.64280 161.000
76.66275 135.000
76.68269 175.000
76.70264 163.000
76.72259 164.000
76.74253 159.000
76.76248 180.000
76.78243 180.000
76.80238 160.000
76.82232 154.000
76.84227 168.000
76.86222 176.000
76.88216 184.000
76.90211 178.000
76.92206 198.000
76.94200 167.000
76.96195 187.000
76.98190 176.000
77.00184 172.000
77.02179 161.000
77.04174 185.000
77.06169 187.000
77.08163 221.000
77.10158 202.000
77.12153 194.000
77.14147 191.000
77.16142 170.000
77.18137 189.000
77.20131 199.000
77.22126 221.000
77.24121 213.000
77.26116 226.000
77.28110 212.000
77.30105 221.000
77.32100 185.000
77.34094 218.000
77.36089 226.000
77.38084 258.000
77.40078 217.000
77.42073 234.000
77.44068 228.000
77.46062 242.000
77.48057 196.000
77.50052 215.000
77.52047 229.000
77.54041 219.000
77.56036 227.000
77.58031 235.000
77.60025 220.000
77.62020 237.000
77.64015 231.000
77.66009 224.000
77.68004 208.000
77.69999 237.000
77.71994 230.000
77.73988 241.000
77.75983 211.000
77.77978 195.000
77.79972 232.000
77.81967 212.000
77.83962 221.000
77.85956 222.000
77.87951 190.000
77.89946 204.000
77.91940 207.000
77.93935 213.000
77.95930 184.000
77.97925 187.000
77.99919 197.000
78.01914 208.000
78.03909 213.000
78.05903 190.000
78.07898 192.000
78.09893 169.000
78.11887 183.000
78.13882 213.000
78.15877 174.000
78.17872 195.000
78.19866 199.000
78.21861 197.000
78.23856 168.000
78.25850 175.000
78.27845 197.000
78.29840 186.000
78.31834 191.000
78.33829 166.000
78.35824 189.000
78.37819 192.000
78.39813 177.000
78.41808 202.000
78.43803 177.000
78.45797 194.000
78.47792 194.000
78.49787 194.000
78.51781 189.000
78.53776 212.000
78.55771 193.000
78.57765 200.000
78.59760 221.000
78.61755 189.000
78.63750 198.000
78.65744 230.000
78.67739 207.000
78.69734 207.000
78.71728 234.000
78.73723 250.000
78.75718 222.000
78.77712 247.000
78.79707 220.000
78.81702 252.000
78.83697 214.000
78.85691 239.000
78.87686 212.000
78.89681 239.000
78.91675 239.000
78.93670 216.000
78.95665 243.000
78.97659 248.000
78.99654 225.000
79.01649 203.000
79.03643 199.000
79.05638 227.000
79.07633 202.000
79.09628 249.000
79.11622 209.000
79.13617 224.000
79.15612 217.000
79.17606 239.000
79.19601 188.000
79.21596 219.000
79.23590 206.000
79.25585 196.000
79.27580 202.000
79.29575 215.000
79.31569 198.000
79.33564 168.000
79.35559 207.000
79.37553 169.000
79.39548 171.000
79.41543 205.000
79.43537 205.000
79.45532 183.000
79.47527 208.000
79.49521 199.000
79.51516 207.000
79.53511 218.000
79.55506 173.000
79.57500 198.000
79.59495 198.000
79.61490 206.000
79.63484 188.000
79.65479 177.000
79.67474 198.000
79.69468 173.000
79.71463 182.000
79.73458 174.000
79.75453 218.000
79.77447 187.000
79.79442 160.000
79.81437 174.000
79.83431 190.000
79.85426 192.000
79.87421 214.000
79.89415 171.000
79.91410 154.000
79.93405 177.000
79.95399 172.000
79.97394 150.000
79.99389 191.000
80.01384 178.000
80.03378 184.000
80.05373 189.000
80.07368 166.000
80.09362 176.000
80.11357 146.000
80.13352 172.000
80.15346 159.000
80.17341 171.000
80.19336 144.000
80.21331 184.000
80.23325 162.000
80.25320 179.000
80.27315 177.000
80.29309 185.000
80.31304 168.000
80.33299 166.000
80.35293 157.000
80.37288 164.000
80.39283 186.000
80.41278 173.000
80.43272 167.000
80.45267 170.000
80.47262 156.000
80.49256 168.000
80.51251 154.000
80.53246 167.000
80.55240 150.000
80.57235 167.000
80.59230 165.000
80.61224 158.000
80.63219 162.000
80.65214 165.000
80.67209 184.000
80.69203 156.000
80.71198 175.000
80.73193 175.000
80.75187 154.000
80.77182 167.000
80.79177 153.000
80.81171 166.000
80.83166 185.000
80.85161 154.000
80.87156 148.000
80.89150 163.000
80.91145 155.000
80.93140 167.000
80.95134 169.000
80.97129 142.000
80.99124 179.000
81.01118 148.000
81.03113 148.000
81.05108 154.000
81.07102 175.000
81.09097 129.000
81.11092 147.000
81.13087 142.000
81.15081 136.000
81.17076 164.000
81.19071 170.000
81.21065 132.000
81.23060 156.000
81.25055 180.000
81.27049 154.000
81.29044 189.000
81.31039 164.000
81.33034 157.000
81.35028 134.000
81.37023 158.000
81.39018 164.000
81.41012 138.000
81.43007 166.000
81.45002 163.000
81.46996 165.000
81.48991 155.000
81.50986 172.000
81.52980 164.000
81.54975 178.000
81.56970 146.000
81.58965 171.000
81.60959 137.000
81.62954 172.000
81.64949 161.000
81.66943 183.000
81.68938 132.000
81.70933 174.000
81.72927 166.000
81.74922 193.000
81.76917 172.000
81.78912 178.000
81.80906 128.000
81.82901 153.000
81.84896 134.000
81.86890 158.000
81.88885 147.000
81.90880 124.000
81.92874 162.000
81.94869 174.000
81.96864 159.000
81.98859 146.000
82.00853 167.000
82.02848 144.000
82.04843 170.000
82.06837 170.000
82.08832 128.000
82.10827 158.000
82.12821 147.000
82.14816 161.000
82.16811 169.000
82.18805 156.000
82.20800 166.000
82.22795 163.000
82.24790 165.000
82.26784 154.000
82.28779 155.000
82.30774 156.000
82.32768 151.000
82.34763 158.000
82.36758 165.000
82.38752 155.000
82.40747 149.000
82.42742 161.000
82.44737 178.000
82.46731 183.000
82.48726 182.000
82.50721 171.000
82.52715 151.000
82.54710 167.000
82.56705 157.000
82.58699 166.000
82.60694 182.000
82.62689 179.000
82.64683 161.000
82.66678 162.000
82.68673 177.000
82.70668 152.000
82.72662 184.000
82.74657 175.000
82.76652 173.000
82.78646 156.000
82.80641 152.000
82.82636 161.000
82.84630 161.000
82.86625 173.000
82.88620 162.000
82.90615 184.000
82.92609 152.000
82.94604 150.000
82.96599 158.000
82.98593 155.000
83.00588 150.000
83.02583 163.000
83.04577 152.000
83.06572 158.000
83.08567 158.000
83.10561 165.000
83.12556 146.000
83.14551 176.000
83.16546 171.000
83.18540 161.000
83.20535 163.000
83.22530 157.000
83.24524 142.000
83.26519 171.000
83.28514 137.000
83.30508 136.000
83.32503 137.000
83.34498 161.000
83.36493 151.000
83.38487 151.000
83.40482 147.000
83.42477 163.000
83.44471 167.000
83.46466 179.000
83.48461 159.000
83.50455 182.000
83.52450 149.000
83.54445 161.000
83.56440 160.000
83.58434 144.000
83.60429 147.000
83.62424 166.000
83.64418 173.000
83.66413 142.000
83.68408 153.000
83.70402 170.000
83.72397 170.000
83.74392 155.000
83.76386 150.000
83.78381 169.000
83.80376 155.000
83.82371 150.000
83.84365 168.000
83.86360 150.000
83.88355 175.000
83.90349 147.000
83.92344 163.000
83.94339 163.000
83.96333 142.000
83.98328 151.000
84.00323 162.000
84.02318 176.000
84.04312 162.000
84.06307 144.000
84.08302 163.000
84.10296 151.000
84.12291 154.000
84.14286 174.000
84.16280 162.000
84.18275 167.000
84.20270 165.000
84.22264 157.000
84.24259 152.000
84.26254 157.000
84.28249 155.000
84.30243 156.000
84.32238 152.000
84.34233 158.000
84.36227 159.000
84.38222 151.000
84.40217 145.000
84.42211 142.000
84.44206 159.000
84.46201 164.000
84.48196 142.000
84.50190 174.000
84.52185 168.000
84.54180 146.000
84.56174 176.000
84.58169 166.000
84.60164 151.000
84.62158 180.000
84.64153 163.000
84.66148 143.000
84.68142 167.000
84.70137 157.000
84.72132 137.000
84.74127 162.000
84.76121 164.000
84.78116 164.000
84.80111 165.000
84.82105 144.000
84.84100 164.000
84.86095 171.000
84.88089 162.000
84.90084 138.000
84.92079 152.000
84.94074 138.000
84.96068 168.000
84.98063 177.000
85.00058 190.000
85.02052 164.000
85.04047 158.000
85.06042 152.000
85.08036 155.000
85.10031 143.000
85.12026 170.000
85.14021 164.000
85.16015 159.000
85.18010 167.000
85.20005 152.000
85.21999 152.000
85.23994 181.000
85.25989 153.000
85.27983 163.000
85.29978 156.000
85.31973 150.000
85.33967 166.000
85.35962 152.000
85.37957 174.000
85.39952 184.000
85.41946 164.000
85.43941 164.000
85.45936 145.000
85.47930 165.000
85.49925 176.000
85.51920 156.000
85.53914 179.000
85.55909 156.000
85.57904 158.000
85.59899 192.000
85.61893 153.000
85.63888 160.000
85.65883 170.000
85.67877 139.000
85.69872 163.000
85.71867 175.000
85.73861 168.000
85.75856 153.000
85.77851 151.000
85.79845 163.000
85.81840 155.000
85.83835 173.000
85.85830 162.000
85.87824 185.000
85.89819 162.000
85.91814 145.000
85.93808 156.000
85.95803 168.000
85.97798 162.000
85.99792 177.000
86.01787 172.000
86.03782 175.000
86.05777 176.000
86.07771 163.000
86.09766 172.000
86.11761 162.000
86.13755 161.000
86.15750 159.000
86.17745 170.000
86.19739 177.000
86.21734 162.000
86.23729 179.000
86.25723 175.000
86.27718 178.000
86.29713 170.000
86.31708 182.000
86.33702 185.000
86.35697 163.000
86.37692 159.000
86.39686 169.000
86.41681 162.000
86.43676 153.000
86.45670 160.000
86.47665 164.000
86.49660 142.000
86.51655 173.000
86.53649 147.000
86.55644 160.000
86.57639 167.000
86.59633 166.000
86.61628 190.000
86.63623 160.000
86.65617 151.000
86.67612 177.000
86.69607 172.000
86.71602 169.000
86.73596 157.000
86.75591 147.000
86.77586 161.000
86.79580 172.000
86.81575 156.000
86.83570 130.000
86.85564 160.000
86.87559 150.000
86.89554 191.000
86.91548 158.000
86.93543 164.000
86.95538 154.000
86.97533 166.000
86.99527 147.000
87.01522 197.000
87.03517 168.000
87.05511 160.000
87.07506 194.000
87.09501 183.000
87.11495 163.000
87.13490 178.000
87.15485 165.000
87.17480 158.000
87.19474 149.000
87.21469 184.000
87.23464 185.000
87.25458 127.000
87.27453 159.000
87.29448 178.000
87.31442 168.000
87.33437 188.000
87.35432 162.000
87.37426 199.000
87.39421 164.000
87.41416 163.000
87.43411 185.000
87.45405 211.000
87.47400 209.000
87.49395 190.000
87.51389 203.000
87.53384 175.000
87.55379 175.000
87.57373 190.000
87.59368 178.000
87.61363 174.000
87.63358 169.000
87.65352 201.000
87.67347 175.000
87.69342 187.000
87.71336 193.000
87.73331 159.000
87.75326 172.000
87.77320 192.000
87.79315 196.000
87.81310 164.000
87.83304 165.000
87.85299 168.000
87.87294 154.000
87.89289 168.000
87.91283 165.000
87.93278 178.000
87.95273 160.000
87.97267 176.000
87.99262 147.000
88.01257 144.000
88.03251 161.000
88.05246 166.000
88.07241 167.000
88.09236 151.000
88.11230 178.000
88.13225 173.000
88.15220 155.000
88.17214 157.000
88.19209 154.000
88.21204 144.000
88.23198 160.000
88.25193 171.000
88.27188 182.000
88.29183 171.000
88.31177 147.000
88.33172 182.000
88.35167 138.000
88.37161 178.000
88.39156 168.000
88.41151 184.000
88.43145 142.000
88.45140 161.000
88.47135 171.000
88.49129 159.000
88.51124 162.000
88.53119 165.000
88.55114 166.000
88.57108 156.000
88.59103 178.000
88.61098 149.000
88.63092 154.000
88.65087 165.000
88.67082 168.000
88.69076 160.000
88.71071 181.000
88.73066 164.000
88.75061 144.000
88.77055 139.000
88.79050 157.000
88.81045 169.000
88.83039 174.000
88.85034 153.000
88.87029 177.000
88.89023 143.000
88.91018 166.000
88.93013 166.000
88.95007 153.000
88.97002 159.000
88.98997 163.000
89.00992 160.000
89.02986 164.000
89.04981 158.000
89.06976 163.000
89.08970 163.000
89.10965 166.000
89.12960 168.000
89.14954 151.000
89.16949 172.000
89.18944 166.000
89.20939 147.000
89.22933 145.000
89.24928 174.000
89.26923 178.000
89.28917 167.000
89.30912 153.000
89.32907 173.000
89.34901 160.000
89.36896 155.000
89.38891 137.000
89.40885 158.000
89.42880 159.000
89.44875 161.000
89.46870 144.000
89.48864 173.000
89.50859 154.000
89.52854 134.000
89.54848 153.000
89.56843 187.000
89.58838 163.000
89.60832 175.000
89.62827 146.000
89.64822 181.000
89.66817 171.000
89.68811 168.000
89.70806 156.000
89.72801 162.000
89.74795 187.000
89.76790 180.000
89.78785 181.000
89.80779 195.000
89.82774 183.000
89.84769 188.000
89.86764 185.000
89.88758 185.000
89.90753 196.000
89.92748 171.000
89.94742 201.000
89.96737 201.000
89.98732 209.000
90.00726 211.000
