10.00000 213.000
10.01995 219.000
10.03989 204.000
10.05984 218.000
10.07979 230.000
10.09973 221.000
10.11968 218.000
10.13963 195.000
10.15958 192.000
10.17952 194.000
10.19947 225.000
10.21942 207.000
10.23936 207.000
10.25931 202.000
10.27926 196.000
10.29920 213.000
10.31915 208.000
10.33910 219.000
10.35905 192.000
10.37899 225.000
10.39894 202.000
10.41889 202.000
10.43883 222.000
10.45878 198.000
10.47873 215.000
10.49867 235.000
10.51862 195.000
10.53857 192.000
10.55851 230.000
10.57846 230.000
10.59841 204.000
10.61836 196.000
10.63830 237.000
10.65825 204.000
10.67820 207.000
10.69814 208.000
10.71809 219.000
10.73804 213.000
10.75798 212.000
10.77793 199.000
10.79788 200.000
10.81783 243.000
10.83777 233.000
10.85772 217.000
10.87767 223.000
10.89761 208.000
10.91756 227.000
10.93751 207.000
10.95745 201.000
10.97740 205.000
10.99735 213.000
11.01730 232.000
11.03724 196.000
11.05719 221.000
11.07714 233.000
11.09708 220.000
11.11703 191.000
11.13698 209.000
11.15692 214.000
11.17687 215.000
11.19682 215.000
11.21676 198.000
11.23671 204.000
11.25666 203.000
11.27661 225.000
11.29655 192.000
11.31650 212.000
11.33645 199.000
11.35639 199.000
11.37634 221.000
11.39629 211.000
11.41623 216.000
11.43618 219.000
11.45613 180.000
11.47608 209.000
11.49602 221.000
11.51597 184.000
11.53592 232.000
11.55586 168.000
11.57581 211.000
11.59576 170.000
11.61570 201.000
11.63565 201.000
11.65560 181.000
11.67554 203.000
11.69549 181.000
11.71544 217.000
11.73539 217.000
11.75533 218.000
11.77528 182.000
11.79523 215.000
11.81517 210.000
11.83512 206.000
11.85507 220.000
11.87501 222.000
11.89496 194.000
11.91491 217.000
11.93486 202.000
11.95480 204.000
11.97475 194.000
11.99470 232.000
12.01464 214.000
12.03459 201.000
12.05454 198.000
12.07448 220.000
12.09443 207.000
12.11438 209.000
12.13432 204.000
12.15427 212.000
12.17422 205.000
12.19417 206.000
12.21411 172.000
12.23406 210.000
12.25401 205.000
12.27395 212.000
12.29390 195.000
12.31385 225.000
12.33379 199.000
12.35374 202.000
12.37369 213.000
12.39364 201.000
12.41358 186.000
12.43353 218.000
12.45348 200.000
12.47342 197.000
12.49337 211.000
12.51332 223.000
12.53326 213.000
12.55321 230.000
12.57316 207.000
12.59311 214.000
12.61305 201.000
12.63300 221.000
12.65295 199.000
12.67289 233.000
12.69284 205.000
12.71279 238.000
12.73273 217.000
12.75268 226.000
12.77263 205.000
12.79257 204.000
12.81252 190.000
12.83247 233.000
12.85242 218.000
12.87236 206.000
12.89231 192.000
12.91226 213.000
12.93220 204.000
12.95215 189.000
12.97210 243.000
12.99204 199.000
13.01199 221.000
13.03194 159.000
13.05189 209.000
13.07183 217.000
13.09178 235.000
13.11173 200.000
13.13167 226.000
13.15162 179.000
13.17157 204.000
13.19151 203.000
13.21146 214.000
13.23141 189.000
13.25135 207.000
13.27130 175.000
13.29125 207.000
13.31120 215.000
13.33114 225.000
13.35109 184.000
13.37104 199.000
13.39098 192.000
13.41093 217.000
13.43088 203.000
13.45082 205.000
13.47077 222.000
13.49072 220.000
13.51067 199.000
13.53061 232.000
13.55056 205.000
13.57051 201.000
13.59045 217.000
13.61040 256.000
13.63035 197.000
13.65029 194.000
13.67024 204.000
13.69019 207.000
13.71013 223.000
13.73008 194.000
13.75003 222.000
13.76998 217.000
13.78992 208.000
13.80987 186.000
13.82982 207.000
13.84976 214.000
13.86971 219.000
13.88966 227.000
13.90960 214.000
13.92955 218.000
13.94950 226.000
13.96945 211.000
13.98939 211.000
14.00934 218.000
14.02929 193.000
14.04923 233.000
14.06918 197.000
14.08913 216.000
14.10907 203.000
14.12902 225.000
14.14897 218.000
14.16892 213.000
14.18886 226.000
14.20881 227.000
14.22876 198.000
14.24870 234.000
14.26865 202.000
14.28860 230.000
14.30854 222.000
14.32849 230.000
14.34844 222.000
14.36838 215.000
14.38833 222.000
14.40828 209.000
14.42823 198.000
14.44817 204.000
14.46812 232.000
14.48807 231.000
14.50801 225.000
14.52796 198.000
14.54791 202.000
14.56785 231.000
14.58780 216.000
14.60775 220.000
14.62770 244.000
14.64764 247.000
14.66759 202.000
14.68754 232.000
14.70748 238.000
14.72743 242.000
14.74738 226.000
14.76732 206.000
14.78727 204.000
14.80722 215.000
14.82716 231.000
14.84711 223.000
14.86706 234.000
14.88701 243.000
14.90695 231.000
14.92690 210.000
14.94685 208.000
14.96679 209.000
14.98674 241.000
15.00669 205.000
15.02663 221.000
15.04658 208.000
15.06653 226.000
15.08648 213.000
15.10642 219.000
15.12637 226.000
15.14632 213.000
15.16626 245.000
15.18621 230.000
15.20616 234.000
15.22610 228.000
15.24605 220.000
15.26600 242.000
15.28594 218.000
15.30589 222.000
15.32584 235.000
15.34579 234.000
15.36573 245.000
15.38568 243.000
15.40563 232.000
15.42557 231.000
15.44552 231.000
15.46547 235.000
15.48541 225.000
15.50536 236.000
15.52531 233.000
15.54526 237.000
15.56520 232.000
15.58515 265.000
15.60510 263.000
15.62504 257.000
15.64499 249.000
15.66494 294.000
15.68488 290.000
15.70483 281.000
15.72478 306.000
15.74472 325.000
15.76467 356.000
15.78462 412.000
15.80457 479.000
15.82451 628.000
15.84446 842.000
15.86441 1231.000
15.88435 1691.000
15.90430 2222.000
15.92425 2242.000
15.94419 1937.000
15.96414 1515.000
15.98409 984.000
16.00404 642.000
16.02398 448.000
16.04393 366.000
16.06388 346.000
16.08382 376.000
16.10377 401.000
16.12372 380.000
16.14366 388.000
16.16361 439.000
16.18356 606.000
16.20351 596.000
16.22345 792.000
16.24340 868.000
16.26335 920.000
16.28329 851.000
16.30324 981.000
16.32319 808.000
16.34313 860.000
16.36308 824.000
16.38303 764.000
16.40297 655.000
16.42292 506.000
16.44287 401.000
16.46282 350.000
16.48276 329.000
16.50271 298.000
16.52266 258.000
16.54260 251.000
16.56255 268.000
16.58250 236.000
16.60244 238.000
16.62239 266.000
16.64234 221.000
16.66229 262.000
16.68223 240.000
16.70218 248.000
16.72213 249.000
16.74207 264.000
16.76202 231.000
16.78197 249.000
16.80191 295.000
16.82186 290.000
16.84181 336.000
16.86175 318.000
16.88170 319.000
16.90165 329.000
16.92160 304.000
16.94154 271.000
16.96149 283.000
16.98144 266.000
17.00138 228.000
17.02133 244.000
17.04128 245.000
17.06122 235.000
17.08117 256.000
17.10112 214.000
17.12107 223.000
17.14101 236.000
17.16096 203.000
17.18091 227.000
17.20085 232.000
17.22080 217.000
17.24075 218.000
17.26069 232.000
17.28064 223.000
17.30059 245.000
17.32053 228.000
17.34048 205.000
17.36043 204.000
17.38038 232.000
17.40032 228.000
17.42027 212.000
17.44022 228.000
17.46016 217.000
17.48011 212.000
17.50006 223.000
17.52000 209.000
17.53995 227.000
17.55990 221.000
17.57985 214.000
17.59979 241.000
17.61974 233.000
17.63969 202.000
17.65963 190.000
17.67958 216.000
17.69953 219.000
17.71947 242.000
17.73942 175.000
17.75937 241.000
17.77932 255.000
17.79926 206.000
17.81921 206.000
17.83916 231.000
17.85910 226.000
17.87905 211.000
17.89900 218.000
17.91894 231.000
17.93889 242.000
17.95884 218.000
17.97878 205.000
17.99873 197.000
18.01868 226.000
18.03863 215.000
18.05857 215.000
18.07852 230.000
18.09847 228.000
18.11841 217.000
18.13836 204.000
18.15831 211.000
18.17825 234.000
18.19820 209.000
18.21815 221.000
18.23810 235.000
18.25804 201.000
18.27799 196.000
18.29794 221.000
18.31788 242.000
18.33783 249.000
18.35778 199.000
18.37772 267.000
18.39767 266.000
18.41762 271.000
18.43756 316.000
18.45751 331.000
18.47746 292.000
18.49741 288.000
18.51735 249.000
18.53730 228.000
18.55725 246.000
18.57719 216.000
18.59714 230.000
18.61709 227.000
18.63703 232.000
18.65698 214.000
18.67693 235.000
18.69688 229.000
18.71682 241.000
18.73677 217.000
18.75672 218.000
18.77666 229.000
18.79661 230.000
18.81656 220.000
18.83650 220.000
18.85645 214.000
18.87640 218.000
18.89634 223.000
18.91629 236.000
18.93624 222.000
18.95619 212.000
18.97613 247.000
18.99608 217.000
19.01603 230.000
19.03597 218.000
19.05592 231.000
19.07587 219.000
19.09581 233.000
19.11576 233.000
19.13571 199.000
19.15566 207.000
19.17560 210.000
19.19555 219.000
19.21550 246.000
19.23544 204.000
19.25539 251.000
19.27534 223.000
19.29528 227.000
19.31523 234.000
19.33518 217.000
19.35513 219.000
19.37507 233.000
19.39502 240.000
19.41497 220.000
19.43491 204.000
19.45486 225.000
19.47481 203.000
19.49475 220.000
19.51470 225.000
19.53465 232.000
19.55459 235.000
19.57454 193.000
19.59449 217.000
19.61444 222.000
19.63438 206.000
19.65433 252.000
19.67428 204.000
19.69422 221.000
19.71417 229.000
19.73412 197.000
19.75406 211.000
19.77401 229.000
19.79396 220.000
19.81391 210.000
19.83385 207.000
19.85380 225.000
19.87375 253.000
19.89369 216.000
19.91364 232.000
19.93359 236.000
19.95353 237.000
19.97348 212.000
19.99343 212.000
20.01337 206.000
20.03332 202.000
20.05327 223.000
20.07322 239.000
20.09316 215.000
20.11311 225.000
20.13306 195.000
20.15300 222.000
20.17295 215.000
20.19290 195.000
20.21284 224.000
20.23279 221.000
20.25274 218.000
20.27269 212.000
20.29263 223.000
20.31258 216.000
20.33253 214.000
20.35247 201.000
20.37242 195.000
20.39237 215.000
20.41231 217.000
20.43226 266.000
20.45221 207.000
20.47215 228.000
20.49210 218.000
20.51205 221.000
20.53200 238.000
20.55194 218.000
20.57189 272.000
20.59184 228.000
20.61178 241.000
20.63173 250.000
20.65168 226.000
20.67162 231.000
20.69157 234.000
20.71152 235.000
20.73147 250.000
20.75141 254.000
20.77136 276.000
20.79131 259.000
20.81125 307.000
20.83120 289.000
20.85115 310.000
20.87109 365.000
20.89104 404.000
20.91099 404.000
20.93094 409.000
20.95088 413.000
20.97083 453.000
20.99078 461.000
21.01072 521.000
21.03067 524.000
21.05062 582.000
21.07056 558.000
21.09051 531.000
21.11046 521.000
21.13040 463.000
21.15035 385.000
21.17030 411.000
21.19025 309.000
21.21019 311.000
21.23014 274.000
21.25009 254.000
21.27003 297.000
21.28998 233.000
21.30993 244.000
21.32987 258.000
21.34982 225.000
21.36977 242.000
21.38972 228.000
21.40966 211.000
21.42961 210.000
21.44956 208.000
21.46950 217.000
21.48945 233.000
21.50940 225.000
21.52934 224.000
21.54929 242.000
21.56924 219.000
21.58918 213.000
21.60913 239.000
21.62908 205.000
21.64903 232.000
21.66897 237.000
21.68892 221.000
21.70887 207.000
21.72881 209.000
21.74876 232.000
21.76871 232.000
21.78865 198.000
21.80860 230.000
21.82855 229.000
21.84850 217.000
21.86844 226.000
21.88839 238.000
21.90834 200.000
21.92828 243.000
21.94823 237.000
21.96818 203.000
21.98812 228.000
22.00807 204.000
22.02802 236.000
22.04796 236.000
22.06791 244.000
22.08786 197.000
22.10781 216.000
22.12775 205.000
22.14770 278.000
22.16765 211.000
22.18759 220.000
22.20754 246.000
22.22749 240.000
22.24743 235.000
22.26738 223.000
22.28733 237.000
22.30728 228.000
22.32722 235.000
22.34717 239.000
22.36712 232.000
22.38706 231.000
22.40701 241.000
22.42696 216.000
22.44690 245.000
22.46685 230.000
22.48680 224.000
22.50675 209.000
22.52669 229.000
22.54664 232.000
22.56659 226.000
22.58653 212.000
22.60648 218.000
22.62643 221.000
22.64637 227.000
22.66632 231.000
22.68627 238.000
22.70621 217.000
22.72616 240.000
22.74611 239.000
22.76606 232.000
22.78600 241.000
22.80595 213.000
22.82590 244.000
22.84584 228.000
22.86579 225.000
22.88574 237.000
22.90568 260.000
22.92563 271.000
22.94558 224.000
22.96553 243.000
22.98547 217.000
23.00542 252.000
23.02537 243.000
23.04531 250.000
23.06526 241.000
23.08521 204.000
23.10515 219.000
23.12510 207.000
23.14505 195.000
23.16499 234.000
23.18494 266.000
23.20489 223.000
23.22484 255.000
23.24478 227.000
23.26473 227.000
23.28468 210.000
23.30462 254.000
23.32457 213.000
23.34452 252.000
23.36446 227.000
23.38441 221.000
23.40436 223.000
23.42431 237.000
23.44425 224.000
23.46420 216.000
23.48415 228.000
23.50409 218.000
23.52404 245.000
23.54399 240.000
23.56393 243.000
23.58388 227.000
23.60383 221.000
23.62377 233.000
23.64372 257.000
23.66367 209.000
23.68362 248.000
23.70356 209.000
23.72351 250.000
23.74346 234.000
23.76340 221.000
23.78335 231.000
23.80330 250.000
23.82324 248.000
23.84319 249.000
23.86314 219.000
23.88309 223.000
23.90303 233.000
23.92298 245.000
23.94293 219.000
23.96287 244.000
23.98282 232.000
24.00277 239.000
24.02271 247.000
24.04266 246.000
24.06261 228.000
24.08256 242.000
24.10250 242.000
24.12245 226.000
24.14240 256.000
24.16234 243.000
24.18229 214.000
24.20224 228.000
24.22218 237.000
24.24213 207.000
24.26208 249.000
24.28202 233.000
24.30197 253.000
24.32192 238.000
24.34187 245.000
24.36181 252.000
24.38176 245.000
24.40171 246.000
24.42165 244.000
24.44160 244.000
24.46155 242.000
24.48149 233.000
24.50144 230.000
24.52139 232.000
24.54134 205.000
24.56128 237.000
24.58123 239.000
24.60118 234.000
24.62112 229.000
24.64107 252.000
24.66102 218.000
24.68096 221.000
24.70091 230.000
24.72086 247.000
24.74080 247.000
24.76075 222.000
24.78070 236.000
24.80065 259.000
24.82059 220.000
24.84054 238.000
24.86049 236.000
24.88043 245.000
24.90038 230.000
24.92033 255.000
24.94027 255.000
24.96022 256.000
24.98017 277.000
25.00012 277.000
25.02006 309.000
25.04001 281.000
25.05996 331.000
25.07990 301.000
25.09985 292.000
25.11980 264.000
25.13974 242.000
25.15969 224.000
25.17964 265.000
25.19958 250.000
25.21953 258.000
25.23948 269.000
25.25943 229.000
25.27937 272.000
25.29932 225.000
25.31927 223.000
25.33921 222.000
25.35916 223.000
25.37911 203.000
25.39905 221.000
25.41900 244.000
25.43895 227.000
25.45890 221.000
25.47884 280.000
25.49879 252.000
25.51874 243.000
25.53868 249.000
25.55863 225.000
25.57858 257.000
25.59852 236.000
25.61847 237.000
25.63842 240.000
25.65837 236.000
25.67831 229.000
25.69826 219.000
25.71821 202.000
25.73815 254.000
25.75810 251.000
25.77805 263.000
25.79799 248.000
25.81794 217.000
25.83789 242.000
25.85783 245.000
25.87778 214.000
25.89773 230.000
25.91768 252.000
25.93762 222.000
25.95757 250.000
25.97752 267.000
25.99746 235.000
26.01741 232.000
26.03736 233.000
26.05730 227.000
26.07725 235.000
26.09720 231.000
26.11715 229.000
26.13709 251.000
26.15704 257.000
26.17699 224.000
26.19693 248.000
26.21688 254.000
26.23683 219.000
26.25677 246.000
26.27672 236.000
26.29667 213.000
26.31661 238.000
26.33656 247.000
26.35651 263.000
26.37646 225.000
26.39640 257.000
26.41635 239.000
26.43630 269.000
26.45624 269.000
26.47619 250.000
26.49614 224.000
26.51608 241.000
26.53603 246.000
26.55598 238.000
26.57593 260.000
26.59587 241.000
26.61582 256.000
26.63577 250.000
26.65571 244.000
26.67566 257.000
26.69561 232.000
26.71555 222.000
26.73550 258.000
26.75545 260.000
26.77539 227.000
26.79534 255.000
26.81529 225.000
26.83524 239.000
26.85518 248.000
26.87513 272.000
26.89508 237.000
26.91502 247.000
26.93497 252.000
26.95492 248.000
26.97486 233.000
26.99481 261.000
27.01476 246.000
27.03471 273.000
27.05465 267.000
27.07460 212.000
27.09455 258.000
27.11449 209.000
27.13444 250.000
27.15439 271.000
27.17433 236.000
27.19428 237.000
27.21423 234.000
27.23417 253.000
27.25412 246.000
27.27407 253.000
27.29402 265.000
27.31396 236.000
27.33391 262.000
27.35386 225.000
27.37380 244.000
27.39375 247.000
27.41370 220.000
27.43364 209.000
27.45359 259.000
27.47354 228.000
27.49349 238.000
27.51343 252.000
27.53338 247.000
27.55333 263.000
27.57327 247.000
27.59322 208.000
27.61317 259.000
27.63311 254.000
27.65306 250.000
27.67301 271.000
27.69296 242.000
27.71290 233.000
27.73285 250.000
27.75280 231.000
27.77274 254.000
27.79269 253.000
27.81264 214.000
27.83258 236.000
27.85253 226.000
27.87248 268.000
27.89242 244.000
27.91237 242.000
27.93232 224.000
27.95227 232.000
27.97221 222.000
27.99216 251.000
28.01211 241.000
28.03205 225.000
28.05200 258.000
28.07195 267.000
28.09189 255.000
28.11184 250.000
28.13179 261.000
28.15174 254.000
28.17168 238.000
28.19163 246.000
28.21158 258.000
28.23152 231.000
28.25147 222.000
28.27142 247.000
28.29136 238.000
28.31131 265.000
28.33126 243.000
28.35120 239.000
28.37115 240.000
28.39110 274.000
28.41105 249.000
28.43099 246.000
28.45094 235.000
28.47089 239.000
28.49083 258.000
28.51078 251.000
28.53073 247.000
28.55067 235.000
28.57062 262.000
28.59057 288.000
28.61052 294.000
28.63046 261.000
28.65041 272.000
28.67036 262.000
28.69030 254.000
28.71025 236.000
28.73020 263.000
28.75014 258.000
28.77009 264.000
28.79004 243.000
28.80998 257.000
28.82993 269.000
28.84988 275.000
28.86983 265.000
28.88977 256.000
28.90972 242.000
28.92967 252.000
28.94961 266.000
28.96956 256.000
28.98951 256.000
29.00945 259.000
29.02940 271.000
29.04935 283.000
29.06930 271.000
29.08924 293.000
29.10919 249.000
29.12914 242.000
29.14908 249.000
29.16903 251.000
29.18898 279.000
29.20892 259.000
29.22887 286.000
29.24882 292.000
29.26877 322.000
29.28871 346.000
29.30866 351.000
29.32861 395.000
29.34855 419.000
29.36850 449.000
29.38845 462.000
29.40839 497.000
29.42834 520.000
29.44829 524.000
29.46823 486.000
29.48818 438.000
29.50813 446.000
29.52808 392.000
29.54802 381.000
29.56797 323.000
29.58792 315.000
29.60786 298.000
29.62781 292.000
29.64776 280.000
29.66770 291.000
29.68765 300.000
29.70760 251.000
29.72755 255.000
29.74749 260.000
29.76744 255.000
29.78739 280.000
29.80733 265.000
29.82728 249.000
29.84723 243.000
29.86717 270.000
29.88712 272.000
29.90707 272.000
29.92701 267.000
29.94696 272.000
29.96691 271.000
29.98686 246.000
30.00680 274.000
30.02675 252.000
30.04670 274.000
30.06664 279.000
30.08659 276.000
30.10654 272.000
30.12648 261.000
30.14643 283.000
30.16638 283.000
30.18633 306.000
30.20627 320.000
30.22622 347.000
30.24617 342.000
30.26611 350.000
30.28606 325.000
30.30601 413.000
30.32595 414.000
30.34590 458.000
30.36585 396.000
30.38579 401.000
30.40574 411.000
30.42569 346.000
30.44564 322.000
30.46558 287.000
30.48553 275.000
30.50548 292.000
30.52542 267.000
30.54537 269.000
30.56532 228.000
30.58526 274.000
30.60521 261.000
30.62516 268.000
30.64511 285.000
30.66505 279.000
30.68500 278.000
30.70495 268.000
30.72489 260.000
30.74484 258.000
30.76479 274.000
30.78473 272.000
30.80468 267.000
30.82463 259.000
30.84458 267.000
30.86452 233.000
30.88447 267.000
30.90442 277.000
30.92436 251.000
30.94431 261.000
30.96426 276.000
30.98420 240.000
31.00415 263.000
31.02410 253.000
31.04404 236.000
31.06399 276.000
31.08394 246.000
31.10389 238.000
31.12383 255.000
31.14378 248.000
31.16373 271.000
31.18367 254.000
31.20362 270.000
31.22357 261.000
31.24351 235.000
31.26346 249.000
31.28341 233.000
31.30336 284.000
31.32330 271.000
31.34325 233.000
31.36320 252.000
31.38314 261.000
31.40309 252.000
31.42304 260.000
31.44298 279.000
31.46293 248.000
31.48288 268.000
31.50282 257.000
31.52277 227.000
31.54272 261.000
31.56267 248.000
31.58261 227.000
31.60256 259.000
31.62251 293.000
31.64245 251.000
31.66240 267.000
31.68235 235.000
31.70229 248.000
31.72224 294.000
31.74219 244.000
31.76214 262.000
31.78208 271.000
31.80203 265.000
31.82198 265.000
31.84192 286.000
31.86187 240.000
31.88182 244.000
31.90176 256.000
31.92171 252.000
31.94166 274.000
31.96160 292.000
31.98155 272.000
32.00150 322.000
32.02145 312.000
32.04139 336.000
32.06134 425.000
32.08129 412.000
32.10123 419.000
32.12118 403.000
32.14113 401.000
32.16107 424.000
32.18102 353.000
32.20097 389.000
32.22092 357.000
32.24086 327.000
32.26081 283.000
32.28076 267.000
32.30070 288.000
32.32065 274.000
32.34060 292.000
32.36054 284.000
32.38049 250.000
32.40044 289.000
32.42039 280.000
32.44033 271.000
32.46028 247.000
32.48023 256.000
32.50017 274.000
32.52012 300.000
32.54007 263.000
32.56001 265.000
32.57996 275.000
32.59991 281.000
32.61985 268.000
32.63980 283.000
32.65975 260.000
32.67970 283.000
32.69964 304.000
32.71959 289.000
32.73954 288.000
32.75948 271.000
32.77943 302.000
32.79938 313.000
32.81932 307.000
32.83927 303.000
32.85922 301.000
32.87917 309.000
32.89911 307.000
32.91906 319.000
32.93901 294.000
32.95895 282.000
32.97890 320.000
32.99885 304.000
33.01879 316.000
33.03874 318.000
33.05869 318.000
33.07863 298.000
33.09858 298.000
33.11853 287.000
33.13848 301.000
33.15842 294.000
33.17837 251.000
33.19832 297.000
33.21826 231.000
33.23821 289.000
33.25816 282.000
33.27810 286.000
33.29805 288.000
33.31800 244.000
33.33795 246.000
33.35789 263.000
33.37784 247.000
33.39779 260.000
33.41773 242.000
33.43768 260.000
33.45763 250.000
33.47757 260.000
33.49752 266.000
33.51747 249.000
33.53741 285.000
33.55736 214.000
33.57731 303.000
33.59726 261.000
33.61720 242.000
33.63715 243.000
33.65710 257.000
33.67704 251.000
33.69699 285.000
33.71694 267.000
33.73688 282.000
33.75683 306.000
33.77678 250.000
33.79673 260.000
33.81667 258.000
33.83662 247.000
33.85657 275.000
33.87651 266.000
33.89646 256.000
33.91641 263.000
33.93635 278.000
33.95630 293.000
33.97625 249.000
33.99620 256.000
34.01614 288.000
34.03609 274.000
34.05604 279.000
34.07598 290.000
34.09593 268.000
34.11588 263.000
34.13582 263.000
34.15577 306.000
34.17572 274.000
34.19566 277.000
34.21561 303.000
34.23556 287.000
34.25551 314.000
34.27545 300.000
34.29540 324.000
34.31535 298.000
34.33529 326.000
34.35524 328.000
34.37519 323.000
34.39513 348.000
34.41508 356.000
34.43503 398.000
34.45498 365.000
34.47492 386.000
34.49487 439.000
34.51482 427.000
34.53476 469.000
34.55471 421.000
34.57466 459.000
34.59460 475.000
34.61455 486.000
34.63450 528.000
34.65444 566.000
34.67439 543.000
34.69434 562.000
34.71429 565.000
34.73423 547.000
34.75418 560.000
34.77413 530.000
34.79407 551.000
34.81402 543.000
34.83397 500.000
34.85391 504.000
34.87386 463.000
34.89381 425.000
34.91376 466.000
34.93370 433.000
34.95365 414.000
34.97360 398.000
34.99354 394.000
35.01349 349.000
35.03344 355.000
35.05338 305.000
35.07333 317.000
35.09328 336.000
35.11322 287.000
35.13317 283.000
35.15312 305.000
35.17307 269.000
35.19301 279.000
35.21296 326.000
35.23291 268.000
35.25285 301.000
35.27280 322.000
35.29275 321.000
35.31269 287.000
35.33264 287.000
35.35259 303.000
35.37254 320.000
35.39248 354.000
35.41243 355.000
35.43238 348.000
35.45232 352.000
35.47227 390.000
35.49222 431.000
35.51216 420.000
35.53211 450.000
35.55206 494.000
35.57201 472.000
35.59195 601.000
35.61190 602.000
35.63185 638.000
35.65179 718.000
35.67174 782.000
35.69169 908.000
35.71163 988.000
35.73158 974.000
35.75153 888.000
35.77147 860.000
35.79142 809.000
35.81137 768.000
35.83132 754.000
35.85126 621.000
35.87121 575.000
35.89116 516.000
35.91110 452.000
35.93105 432.000
35.95100 405.000
35.97094 396.000
35.99089 370.000
36.01084 371.000
36.03079 333.000
36.05073 316.000
36.07068 336.000
36.09063 315.000
36.11057 350.000
36.13052 273.000
36.15047 337.000
36.17041 292.000
36.19036 293.000
36.21031 331.000
36.23025 322.000
36.25020 318.000
36.27015 336.000
36.29010 310.000
36.31004 320.000
36.32999 312.000
36.34994 344.000
36.36988 342.000
36.38983 347.000
36.40978 326.000
36.42972 356.000
36.44967 327.000
36.46962 311.000
36.48957 308.000
36.50951 355.000
36.52946 329.000
36.54941 327.000
36.56935 330.000
36.58930 324.000
36.60925 375.000
36.62919 372.000
36.64914 327.000
36.66909 335.000
36.68903 337.000
36.70898 397.000
36.72893 366.000
36.74888 408.000
36.76882 427.000
36.78877 432.000
36.80872 472.000
36.82866 454.000
36.84861 476.000
36.86856 535.000
36.88850 558.000
36.90845 596.000
36.92840 664.000
36.94835 705.000
36.96829 771.000
36.98824 833.000
37.00819 1062.000
37.02813 1328.000
37.04808 1806.000
37.06803 2367.000
37.08797 2781.000
37.10792 3446.000
37.12787 3795.000
37.14781 4269.000
37.16776 4389.000
37.18771 4524.000
37.20766 4274.000
37.22760 3756.000
37.24755 3198.000
37.26750 2814.000
37.28744 2203.000
37.30739 1869.000
37.32734 1482.000
37.34728 1120.000
37.36723 868.000
37.38718 692.000
37.40713 550.000
37.42707 479.000
37.44702 468.000
37.46697 418.000
37.48691 395.000
37.50686 409.000
37.52681 357.000
37.54675 298.000
37.56670 352.000
37.58665 333.000
37.60660 329.000
37.62654 350.000
37.64649 326.000
37.66644 277.000
37.68638 279.000
37.70633 328.000
37.72628 280.000
37.74622 285.000
37.76617 289.000
37.78612 298.000
37.80606 322.000
37.82601 284.000
37.84596 283.000
37.86591 291.000
37.88585 311.000
37.90580 332.000
37.92575 280.000
37.94569 268.000
37.96564 297.000
37.98559 303.000
38.00553 261.000
38.02548 327.000
38.04543 301.000
38.06538 313.000
38.08532 279.000
38.10527 269.000
38.12522 279.000
38.14516 298.000
38.16511 247.000
38.18506 263.000
38.20500 263.000
38.22495 287.000
38.24490 280.000
38.26484 250.000
38.28479 307.000
38.30474 272.000
38.32469 269.000
38.34463 267.000
38.36458 276.000
38.38453 282.000
38.40447 288.000
38.42442 288.000
38.44437 275.000
38.46431 264.000
38.48426 260.000
38.50421 275.000
38.52416 258.000
38.54410 281.000
38.56405 259.000
38.58400 258.000
38.60394 270.000
38.62389 263.000
38.64384 278.000
38.66378 258.000
38.68373 280.000
38.70368 281.000
38.72362 257.000
38.74357 287.000
38.76352 291.000
38.78347 277.000
38.80341 251.000
38.82336 283.000
38.84331 288.000
38.86325 282.000
38.88320 269.000
38.90315 269.000
38.92309 280.000
38.94304 304.000
38.96299 299.000
38.98294 296.000
39.00288 271.000
39.02283 279.000
39.04278 317.000
39.06272 292.000
39.08267 317.000
39.10262 304.000
39.12256 337.000
39.14251 320.000
39.16246 326.000
39.18241 300.000
39.20235 362.000
39.22230 402.000
39.24225 404.000
39.26219 429.000
39.28214 483.000
39.30209 497.000
39.32203 567.000
39.34198 521.000
39.36193 565.000
39.38187 542.000
39.40182 594.000
39.42177 552.000
39.44172 559.000
39.46166 514.000
39.48161 487.000
39.50156 460.000
39.52150 399.000
39.54145 430.000
39.56140 342.000
39.58134 360.000
39.60129 315.000
39.62124 334.000
39.64119 309.000
39.66113 279.000
39.68108 273.000
39.70103 301.000
39.72097 297.000
39.74092 275.000
39.76087 260.000
39.78081 261.000
39.80076 242.000
39.82071 246.000
39.84065 246.000
39.86060 235.000
39.88055 264.000
39.90050 280.000
39.92044 265.000
39.94039 276.000
39.96034 262.000
39.98028 247.000
40.00023 266.000
40.02018 250.000
40.04012 287.000
40.06007 279.000
40.08002 233.000
40.09997 245.000
40.11991 232.000
40.13986 275.000
40.15981 251.000
40.17975 274.000
40.19970 245.000
40.21965 257.000
40.23959 250.000
40.25954 281.000
40.27949 275.000
40.29943 242.000
40.31938 268.000
40.33933 277.000
40.35928 253.000
40.37922 269.000
40.39917 266.000
40.41912 266.000
40.43906 279.000
40.45901 255.000
40.47896 242.000
40.49890 267.000
40.51885 229.000
40.53880 239.000
40.55875 258.000
40.57869 243.000
40.59864 222.000
40.61859 267.000
40.63853 247.000
40.65848 250.000
40.67843 268.000
40.69837 261.000
40.71832 225.000
40.73827 255.000
40.75822 251.000
40.77816 272.000
40.79811 281.000
40.81806 246.000
40.83800 246.000
40.85795 260.000
40.87790 265.000
40.89784 257.000
40.91779 279.000
40.93774 261.000
40.95768 278.000
40.97763 270.000
40.99758 278.000
41.01753 252.000
41.03747 280.000
41.05742 264.000
41.07737 260.000
41.09731 275.000
41.11726 298.000
41.13721 260.000
41.15715 333.000
41.17710 275.000
41.19705 257.000
41.21700 275.000
41.23694 283.000
41.25689 295.000
41.27684 292.000
41.29678 277.000
41.31673 323.000
41.33668 288.000
41.35662 325.000
41.37657 293.000
41.39652 286.000
41.41646 282.000
41.43641 342.000
41.45636 299.000
41.47631 311.000
41.49625 292.000
41.51620 334.000
41.53615 349.000
41.55609 347.000
41.57604 358.000
41.59599 392.000
41.61593 452.000
41.63588 484.000
41.65583 585.000
41.67578 665.000
41.69572 702.000
41.71567 766.000
41.73562 847.000
41.75556 863.000
41.77551 848.000
41.79546 828.000
41.81540 746.000
41.83535 668.000
41.85530 604.000
41.87524 554.000
41.89519 514.000
41.91514 505.000
41.93509 354.000
41.95503 385.000
41.97498 345.000
41.99493 356.000
42.01487 345.000
42.03482 315.000
42.05477 324.000
42.07471 286.000
42.09466 258.000
42.11461 273.000
42.13456 288.000
42.15450 295.000
42.17445 322.000
42.19440 332.000
42.21434 309.000
42.23429 329.000
42.25424 294.000
42.27418 293.000
42.29413 347.000
42.31408 282.000
42.33403 281.000
42.35397 323.000
42.37392 363.000
42.39387 327.000
42.41381 323.000
42.43376 345.000
42.45371 315.000
42.47365 359.000
42.49360 356.000
42.51355 341.000
42.53349 328.000
42.55344 386.000
42.57339 365.000
42.59334 414.000
42.61328 382.000
42.63323 388.000
42.65318 362.000
42.67312 375.000
42.69307 435.000
42.71302 451.000
42.73296 430.000
42.75291 453.000
42.77286 408.000
42.79281 490.000
42.81275 489.000
42.83270 524.000
42.85265 533.000
42.87259 579.000
42.89254 674.000
42.91249 725.000
42.93243 838.000
42.95238 952.000
42.97233 1114.000
42.99227 1393.000
43.01222 1741.000
43.03217 2113.000
43.05212 2804.000
43.07206 3479.000
43.09201 3861.000
43.11196 4344.000
43.13190 4860.000
43.15185 5161.000
43.17180 5339.000
43.19174 5512.000
43.21169 5433.000
43.23164 5305.000
43.25159 4701.000
43.27153 4203.000
43.29148 3685.000
43.31143 3312.000
43.33137 2855.000
43.35132 2508.000
43.37127 2067.000
43.39121 1720.000
43.41116 1385.000
43.43111 1145.000
43.45105 984.000
43.47100 888.000
43.49095 815.000
43.51090 694.000
43.53084 684.000
43.55079 597.000
43.57074 552.000
43.59068 549.000
43.61063 465.000
43.63058 439.000
43.65052 438.000
43.67047 435.000
43.69042 430.000
43.71037 375.000
43.73031 345.000
43.75026 371.000
43.77021 348.000
43.79015 316.000
43.81010 311.000
43.83005 340.000
43.84999 304.000
43.86994 302.000
43.88989 315.000
43.90984 273.000
43.92978 294.000
43.94973 272.000
43.96968 291.000
43.98962 302.000
44.00957 305.000
44.02952 297.000
44.04946 281.000
44.06941 276.000
44.08936 262.000
44.10930 271.000
44.12925 276.000
44.14920 279.000
44.16915 298.000
44.18909 287.000
44.20904 286.000
44.22899 270.000
44.24893 276.000
44.26888 258.000
44.28883 280.000
44.30877 267.000
44.32872 282.000
44.34867 270.000
44.36862 261.000
44.38856 282.000
44.40851 256.000
44.42846 278.000
44.44840 290.000
44.46835 245.000
44.48830 258.000
44.50824 260.000
44.52819 256.000
44.54814 256.000
44.56808 284.000
44.58803 248.000
44.60798 268.000
44.62793 282.000
44.64787 264.000
44.66782 230.000
44.68777 267.000
44.70771 269.000
44.72766 292.000
44.74761 250.000
44.76755 256.000
44.78750 264.000
44.80745 274.000
44.82740 252.000
44.84734 277.000
44.86729 269.000
44.88724 286.000
44.90718 261.000
44.92713 264.000
44.94708 259.000
44.96702 281.000
44.98697 251.000
45.00692 274.000
45.02686 277.000
45.04681 279.000
45.06676 296.000
45.08671 271.000
45.10665 261.000
45.12660 288.000
45.14655 286.000
45.16649 263.000
45.18644 304.000
45.20639 282.000
45.22633 272.000
45.24628 296.000
45.26623 262.000
45.28618 273.000
45.30612 275.000
45.32607 259.000
45.34602 255.000
45.36596 263.000
45.38591 269.000
45.40586 285.000
45.42580 272.000
45.44575 257.000
45.46570 255.000
45.48565 290.000
45.50559 262.000
45.52554 270.000
45.54549 264.000
45.56543 236.000
45.58538 273.000
45.60533 265.000
45.62527 262.000
45.64522 276.000
45.66517 243.000
45.68511 258.000
45.70506 257.000
45.72501 275.000
45.74496 258.000
45.76490 258.000
45.78485 265.000
45.80480 243.000
45.82474 257.000
45.84469 246.000
45.86464 246.000
45.88458 272.000
45.90453 272.000
45.92448 249.000
45.94443 234.000
45.96437 247.000
45.98432 237.000
46.00427 234.000
46.02421 242.000
46.04416 233.000
46.06411 224.000
46.08405 245.000
46.10400 243.000
46.12395 243.000
46.14389 235.000
46.16384 238.000
46.18379 205.000
46.20374 229.000
46.22368 239.000
46.24363 250.000
46.26358 236.000
46.28352 255.000
46.30347 255.000
46.32342 252.000
46.34336 246.000
46.36331 230.000
46.38326 250.000
46.40321 252.000
46.42315 241.000
46.44310 215.000
46.46305 267.000
46.48299 258.000
46.50294 261.000
46.52289 254.000
46.54283 248.000
46.56278 257.000
46.58273 255.000
46.60267 244.000
46.62262 260.000
46.64257 216.000
46.66252 239.000
46.68246 234.000
46.70241 240.000
46.72236 248.000
46.74230 273.000
46.76225 264.000
46.78220 239.000
46.80214 248.000
46.82209 235.000
46.84204 243.000
46.86199 214.000
46.88193 255.000
46.90188 246.000
46.92183 250.000
46.94177 244.000
46.96172 258.000
46.98167 245.000
47.00161 239.000
47.02156 232.000
47.04151 248.000
47.06146 280.000
47.08140 269.000
47.10135 269.000
47.12130 227.000
47.14124 237.000
47.16119 262.000
47.18114 270.000
47.20108 264.000
47.22103 243.000
47.24098 233.000
47.26092 248.000
47.28087 251.000
47.30082 214.000
47.32077 238.000
47.34071 254.000
47.36066 249.000
47.38061 255.000
47.40055 264.000
47.42050 246.000
47.44045 273.000
47.46039 274.000
47.48034 246.000
47.50029 246.000
47.52024 237.000
47.54018 243.000
47.56013 247.000
47.58008 259.000
47.60002 259.000
47.61997 254.000
47.63992 253.000
47.65986 228.000
47.67981 253.000
47.69976 267.000
47.71970 224.000
47.73965 231.000
47.75960 242.000
47.77955 269.000
47.79949 251.000
47.81944 263.000
47.83939 242.000
47.85933 251.000
47.87928 258.000
47.89923 269.000
47.91917 241.000
47.93912 271.000
47.95907 243.000
47.97902 300.000
47.99896 279.000
48.01891 303.000
48.03886 293.000
48.05880 301.000
48.07875 317.000
48.09870 304.000
48.11864 276.000
48.13859 245.000
48.15854 285.000
48.17848 287.000
48.19843 275.000
48.21838 276.000
48.23833 271.000
48.25827 272.000
48.27822 270.000
48.29817 274.000
48.31811 282.000
48.33806 254.000
48.35801 255.000
48.37795 283.000
48.39790 277.000
48.41785 265.000
48.43780 286.000
48.45774 251.000
48.47769 260.000
48.49764 277.000
48.51758 287.000
48.53753 282.000
48.55748 311.000
48.57742 284.000
48.59737 308.000
48.61732 308.000
48.63726 320.000
48.65721 331.000
48.67716 331.000
48.69711 415.000
48.71705 434.000
48.73700 451.000
48.75695 506.000
48.77689 540.000
48.79684 542.000
48.81679 512.000
48.83673 512.000
48.85668 516.000
48.87663 520.000
48.89658 493.000
48.91652 471.000
48.93647 429.000
48.95642 350.000
48.97636 415.000
48.99631 351.000
49.01626 354.000
49.03620 310.000
49.05615 291.000
49.07610 271.000
49.09605 306.000
49.11599 278.000
49.13594 237.000
49.15589 271.000
49.17583 296.000
49.19578 270.000
49.21573 237.000
49.23567 258.000
49.25562 261.000
49.27557 299.000
49.29551 267.000
49.31546 231.000
49.33541 258.000
49.35536 277.000
49.37530 258.000
49.39525 273.000
49.41520 266.000
49.43514 257.000
49.45509 273.000
49.47504 305.000
49.49498 268.000
49.51493 242.000
49.53488 297.000
49.55483 260.000
49.57477 279.000
49.59472 258.000
49.61467 296.000
49.63461 224.000
49.65456 281.000
49.67451 267.000
49.69445 267.000
49.71440 287.000
49.73435 286.000
49.75429 255.000
49.77424 244.000
49.79419 261.000
49.81414 297.000
49.83408 240.000
49.85403 237.000
49.87398 250.000
49.89392 257.000
49.91387 276.000
49.93382 276.000
49.95376 266.000
49.97371 273.000
49.99366 250.000
50.01361 244.000
50.03355 267.000
50.05350 237.000
50.07345 228.000
50.09339 233.000
50.11334 256.000
50.13329 247.000
50.15323 243.000
50.17318 241.000
50.19313 246.000
50.21307 231.000
50.23302 243.000
50.25297 254.000
50.27292 250.000
50.29286 249.000
50.31281 235.000
50.33276 239.000
50.35270 239.000
50.37265 258.000
50.39260 249.000
50.41254 248.000
50.43249 270.000
50.45244 250.000
50.47239 240.000
50.49233 239.000
50.51228 224.000
50.53223 243.000
50.55217 244.000
50.57212 261.000
50.59207 239.000
50.61201 250.000
50.63196 245.000
50.65191 244.000
50.67186 233.000
50.69180 248.000
50.71175 240.000
50.73170 222.000
50.75164 242.000
50.77159 224.000
50.79154 237.000
50.81148 231.000
50.83143 275.000
50.85138 259.000
50.87132 239.000
50.89127 232.000
50.91122 236.000
50.93117 248.000
50.95111 228.000
50.97106 234.000
50.99101 225.000
51.01095 252.000
51.03090 265.000
51.05085 239.000
51.07079 239.000
51.09074 246.000
51.11069 244.000
51.13064 246.000
51.15058 234.000
51.17053 277.000
51.19048 234.000
51.21042 227.000
51.23037 237.000
51.25032 242.000
51.27026 279.000
51.29021 260.000
51.31016 234.000
51.33010 245.000
51.35005 238.000
51.37000 237.000
51.38995 232.000
51.40989 244.000
51.42984 234.000
51.44979 248.000
51.46973 232.000
51.48968 262.000
51.50963 249.000
51.52957 259.000
51.54952 263.000
51.56947 233.000
51.58942 251.000
51.60936 245.000
51.62931 278.000
51.64926 251.000
51.66920 262.000
51.68915 241.000
51.70910 224.000
51.72904 214.000
51.74899 219.000
51.76894 234.000
51.78888 247.000
51.80883 239.000
51.82878 243.000
51.84873 251.000
51.86867 258.000
51.88862 234.000
51.90857 251.000
51.92851 213.000
51.94846 273.000
51.96841 239.000
51.98835 279.000
52.00830 251.000
52.02825 290.000
52.04820 298.000
52.06814 277.000
52.08809 325.000
52.10804 274.000
52.12798 266.000
52.14793 289.000
52.16788 299.000
52.18782 302.000
52.20777 270.000
52.22772 297.000
52.24767 299.000
52.26761 269.000
52.28756 272.000
52.30751 261.000
52.32745 255.000
52.34740 307.000
52.36735 246.000
52.38729 251.000
52.40724 285.000
52.42719 264.000
52.44713 273.000
52.46708 252.000
52.48703 250.000
52.50698 233.000
52.52692 257.000
52.54687 254.000
52.56682 237.000
52.58676 249.000
52.60671 244.000
52.62666 265.000
52.64660 230.000
52.66655 227.000
52.68650 245.000
52.70645 243.000
52.72639 219.000
52.74634 238.000
52.76629 262.000
52.78623 265.000
52.80618 265.000
52.82613 243.000
52.84607 250.000
52.86602 260.000
52.88597 227.000
52.90591 264.000
52.92586 289.000
52.94581 281.000
52.96576 231.000
52.98570 255.000
53.00565 268.000
53.02560 268.000
53.04554 272.000
53.06549 254.000
53.08544 259.000
53.10538 296.000
53.12533 327.000
53.14528 328.000
53.16523 266.000
53.18517 295.000
53.20512 307.000
53.22507 341.000
53.24501 319.000
53.26496 293.000
53.28491 296.000
53.30485 273.000
53.32480 282.000
53.34475 278.000
53.36469 282.000
53.38464 263.000
53.40459 262.000
53.42454 273.000
53.44448 241.000
53.46443 249.000
53.48438 281.000
53.50432 236.000
53.52427 235.000
53.54422 246.000
53.56416 259.000
53.58411 256.000
53.60406 256.000
53.62401 227.000
53.64395 243.000
53.66390 258.000
53.68385 267.000
53.70379 250.000
53.72374 274.000
53.74369 301.000
53.76363 261.000
53.78358 278.000
53.80353 260.000
53.82348 280.000
53.84342 259.000
53.86337 290.000
53.88332 247.000
53.90326 277.000
53.92321 257.000
53.94316 268.000
53.96310 279.000
53.98305 245.000
54.00300 284.000
54.02294 230.000
54.04289 241.000
54.06284 246.000
54.08279 229.000
54.10273 259.000
54.12268 260.000
54.14263 227.000
54.16257 238.000
54.18252 248.000
54.20247 247.000
54.22241 223.000
54.24236 274.000
54.26231 257.000
54.28226 228.000
54.30220 241.000
54.32215 230.000
54.34210 263.000
54.36204 232.000
54.38199 243.000
54.40194 265.000
54.42188 241.000
54.44183 247.000
54.46178 230.000
54.48172 236.000
54.50167 246.000
54.52162 234.000
54.54157 241.000
54.56151 271.000
54.58146 247.000
54.60141 234.000
54.62135 245.000
54.64130 267.000
54.66125 266.000
54.68119 241.000
54.70114 240.000
54.72109 241.000
54.74104 211.000
54.76098 245.000
54.78093 265.000
54.80088 261.000
54.82082 233.000
54.84077 260.000
54.86072 262.000
54.88066 233.000
54.90061 244.000
54.92056 225.000
54.94050 250.000
54.96045 229.000
54.98040 256.000
55.00035 246.000
55.02029 243.000
55.04024 244.000
55.06019 254.000
55.08013 224.000
55.10008 245.000
55.12003 227.000
55.13997 241.000
55.15992 238.000
55.17987 243.000
55.19982 245.000
55.21976 224.000
55.23971 237.000
55.25966 237.000
55.27960 260.000
55.29955 236.000
55.31950 258.000
55.33944 245.000
55.35939 226.000
55.37934 209.000
55.39929 242.000
55.41923 252.000
55.43918 241.000
55.45913 238.000
55.47907 232.000
55.49902 205.000
55.51897 268.000
55.53891 251.000
55.55886 256.000
55.57881 232.000
55.59875 240.000
55.61870 250.000
55.63865 221.000
55.65860 220.000
55.67854 260.000
55.69849 253.000
55.71844 242.000
55.73838 236.000
55.75833 265.000
55.77828 211.000
55.79822 220.000
55.81817 249.000
55.83812 226.000
55.85807 245.000
55.87801 205.000
55.89796 239.000
55.91791 258.000
55.93785 251.000
55.95780 219.000
55.97775 244.000
55.99769 238.000
56.01764 238.000
56.03759 223.000
56.05753 257.000
56.07748 269.000
56.09743 236.000
56.11738 230.000
56.13732 236.000
56.15727 214.000
56.17722 213.000
56.19716 211.000
56.21711 228.000
56.23706 247.000
56.25700 254.000
56.27695 252.000
56.29690 275.000
56.31685 242.000
56.33679 261.000
56.35674 250.000
56.37669 266.000
56.39663 248.000
56.41658 238.000
56.43653 246.000
56.45647 225.000
56.47642 269.000
56.49637 254.000
56.51631 253.000
56.53626 241.000
56.55621 249.000
56.57616 237.000
56.59610 217.000
56.61605 284.000
56.63600 254.000
56.65594 259.000
56.67589 283.000
56.69584 244.000
56.71578 251.000
56.73573 228.000
56.75568 263.000
56.77563 258.000
56.79557 247.000
56.81552 240.000
56.83547 248.000
56.85541 235.000
56.87536 234.000
56.89531 219.000
56.91525 243.000
56.93520 267.000
56.95515 269.000
56.97510 251.000
56.99504 263.000
57.01499 240.000
57.03494 246.000
57.05488 241.000
57.07483 269.000
57.09478 250.000
57.11472 225.000
57.13467 278.000
57.15462 308.000
57.17456 248.000
57.19451 255.000
57.21446 303.000
57.23441 288.000
57.25435 309.000
57.27430 298.000
57.29425 261.000
57.31419 325.000
57.33414 320.000
57.35409 340.000
57.37403 351.000
57.39398 348.000
57.41393 355.000
57.43388 349.000
57.45382 347.000
57.47377 343.000
57.49372 351.000
57.51366 347.000
57.53361 329.000
57.55356 325.000
57.57350 321.000
57.59345 372.000
57.61340 321.000
57.63334 308.000
57.65329 313.000
57.67324 338.000
57.69319 310.000
57.71313 297.000
57.73308 338.000
57.75303 314.000
57.77297 335.000
57.79292 327.000
57.81287 334.000
57.83281 373.000
57.85276 350.000
57.87271 353.000
57.89266 341.000
57.91260 337.000
57.93255 320.000
57.95250 324.000
57.97244 310.000
57.99239 319.000
58.01234 318.000
58.03228 309.000
58.05223 295.000
58.07218 266.000
58.09212 277.000
58.11207 289.000
58.13202 270.000
58.15197 266.000
58.17191 261.000
58.19186 291.000
58.21181 257.000
58.23175 234.000
58.25170 255.000
58.27165 247.000
58.29159 224.000
58.31154 260.000
58.33149 258.000
58.35144 241.000
58.37138 236.000
58.39133 266.000
58.41128 262.000
58.43122 234.000
58.45117 252.000
58.47112 269.000
58.49106 270.000
58.51101 249.000
58.53096 260.000
58.55090 257.000
58.57085 226.000
58.59080 231.000
58.61075 237.000
58.63069 258.000
58.65064 225.000
58.67059 250.000
58.69053 228.000
58.71048 261.000
58.73043 249.000
58.75037 233.000
58.77032 255.000
58.79027 223.000
58.81022 252.000
58.83016 267.000
58.85011 236.000
58.87006 245.000
58.89000 257.000
58.90995 216.000
58.92990 263.000
58.94984 245.000
58.96979 256.000
58.98974 237.000
59.00969 245.000
59.02963 262.000
59.04958 224.000
59.06953 254.000
59.08947 234.000
59.10942 247.000
59.12937 265.000
59.14931 265.000
59.16926 238.000
59.18921 247.000
59.20915 246.000
59.22910 229.000
59.24905 225.000
59.26900 271.000
59.28894 251.000
59.30889 241.000
59.32884 220.000
59.34878 268.000
59.36873 234.000
59.38868 251.000
59.40862 227.000
59.42857 238.000
59.44852 235.000
59.46847 226.000
59.48841 259.000
59.50836 219.000
59.52831 256.000
59.54825 232.000
59.56820 240.000
59.58815 233.000
59.60809 243.000
59.62804 236.000
59.64799 245.000
59.66793 241.000
59.68788 258.000
59.70783 232.000
59.72778 272.000
59.74772 261.000
59.76767 248.000
59.78762 226.000
59.80756 232.000
59.82751 233.000
59.84746 241.000
59.86740 257.000
59.88735 251.000
59.90730 239.000
59.92725 235.000
59.94719 241.000
59.96714 251.000
59.98709 253.000
60.00703 254.000
60.02698 247.000
60.04693 244.000
60.06687 236.000
60.08682 254.000
60.10677 269.000
60.12671 251.000
60.14666 255.000
60.16661 251.000
60.18656 242.000
60.20650 268.000
60.22645 256.000
60.24640 246.000
60.26634 243.000
60.28629 238.000
60.30624 240.000
60.32618 260.000
60.34613 248.000
60.36608 246.000
60.38603 239.000
60.40597 252.000
60.42592 248.000
60.44587 259.000
60.46581 243.000
60.48576 269.000
60.50571 278.000
60.52565 269.000
60.54560 250.000
60.56555 286.000
60.58550 240.000
60.60544 240.000
60.62539 245.000
60.64534 271.000
60.66528 262.000
60.68523 285.000
60.70518 264.000
60.72512 243.000
60.74507 241.000
60.76502 265.000
60.78496 245.000
60.80491 240.000
60.82486 228.000
60.84481 241.000
60.86475 239.000
60.88470 265.000
60.90465 294.000
60.92459 265.000
60.94454 252.000
60.96449 221.000
60.98443 247.000
61.00438 234.000
61.02433 282.000
61.04428 248.000
61.06422 254.000
61.08417 292.000
61.10412 252.000
61.12406 275.000
61.14401 253.000
61.16396 234.000
61.18390 262.000
61.20385 262.000
61.22380 273.000
61.24374 283.000
61.26369 263.000
61.28364 291.000
61.30359 274.000
61.32353 232.000
61.34348 245.000
61.36343 265.000
61.38337 278.000
61.40332 247.000
61.42327 284.000
61.44321 254.000
61.46316 294.000
61.48311 271.000
61.50306 265.000
61.52300 276.000
61.54295 297.000
61.56290 268.000
61.58284 274.000
61.60279 278.000
61.62274 314.000
61.64268 257.000
61.66263 269.000
61.68258 306.000
61.70252 318.000
61.72247 304.000
61.74242 317.000
61.76237 310.000
61.78231 295.000
61.80226 296.000
61.82221 304.000
61.84215 293.000
61.86210 302.000
61.88205 359.000
61.90199 359.000
61.92194 312.000
61.94189 350.000
61.96184 376.000
61.98178 378.000
62.00173 371.000
62.02168 454.000
62.04162 406.000
62.06157 429.000
62.08152 461.000
62.10146 502.000
62.12141 489.000
62.14136 513.000
62.16131 496.000
62.18125 480.000
62.20120 492.000
62.22115 476.000
62.24109 492.000
62.26104 498.000
62.28099 541.000
62.30093 502.000
62.32088 548.000
62.34083 539.000
62.36077 538.000
62.38072 591.000
62.40067 667.000
62.42062 732.000
62.44056 747.000
62.46051 895.000
62.48046 1029.000
62.50040 1161.000
62.52035 1305.000
62.54030 1496.000
62.56024 1714.000
62.58019 1715.000
62.60014 1878.000
62.62009 1905.000
62.64003 2018.000
62.65998 2122.000
62.67993 2168.000
62.69987 2215.000
62.71982 2353.000
62.73977 2329.000
62.75971 2288.000
62.77966 2163.000
62.79961 1997.000
62.81955 1895.000
62.83950 1698.000
62.85945 1605.000
62.87940 1418.000
62.89934 1388.000
62.91929 1190.000
62.93924 1193.000
62.95918 1088.000
62.97913 1000.000
62.99908 898.000
63.01902 853.000
63.03897 737.000
63.05892 745.000
63.07887 580.000
63.09881 582.000
63.11876 531.000
63.13871 479.000
63.15865 463.000
63.17860 461.000
63.19855 454.000
63.21849 447.000
63.23844 446.000
63.25839 420.000
63.27833 407.000
63.29828 410.000
63.31823 368.000
63.33818 350.000
63.35812 354.000
63.37807 342.000
63.39802 341.000
63.41796 311.000
63.43791 311.000
63.45786 334.000
63.47780 314.000
63.49775 308.000
63.51770 287.000
63.53765 264.000
63.55759 285.000
63.57754 293.000
63.59749 262.000
63.61743 257.000
63.63738 295.000
63.65733 277.000
63.67727 293.000
63.69722 253.000
63.71717 287.000
63.73712 316.000
63.75706 292.000
63.77701 283.000
63.79696 272.000
63.81690 272.000
63.83685 282.000
63.85680 284.000
63.87674 246.000
63.89669 265.000
63.91664 292.000
63.93658 304.000
63.95653 307.000
63.97648 302.000
63.99643 321.000
64.01637 286.000
64.03632 316.000
64.05627 305.000
64.07621 318.000
64.09616 307.000
64.11611 322.000
64.13605 352.000
64.15600 294.000
64.17595 304.000
64.19590 333.000
64.21584 319.000
64.23579 332.000
64.25574 378.000
64.27568 324.000
64.29563 329.000
64.31558 325.000
64.33552 365.000
64.35547 307.000
64.37542 345.000
64.39536 351.000
64.41531 323.000
64.43526 305.000
64.45521 335.000
64.47515 328.000
64.49510 284.000
64.51505 299.000
64.53499 320.000
64.55494 311.000
64.57489 266.000
64.59483 293.000
64.61478 268.000
64.63473 281.000
64.65468 268.000
64.67462 297.000
64.69457 307.000
64.71452 271.000
64.73446 290.000
64.75441 269.000
64.77436 263.000
64.79430 244.000
64.81425 252.000
64.83420 268.000
64.85414 275.000
64.87409 269.000
64.89404 235.000
64.91399 255.000
64.93393 250.000
64.95388 287.000
64.97383 250.000
64.99377 281.000
65.01372 258.000
65.03367 238.000
65.05361 262.000
65.07356 257.000
65.09351 243.000
65.11346 228.000
65.13340 272.000
65.15335 261.000
65.17330 253.000
65.19324 251.000
65.21319 251.000
65.23314 270.000
65.25308 251.000
65.27303 286.000
65.29298 277.000
65.31293 261.000
65.33287 263.000
65.35282 252.000
65.37277 272.000
65.39271 261.000
65.41266 270.000
65.43261 273.000
65.45255 276.000
65.47250 261.000
65.49245 322.000
65.51239 283.000
65.53234 311.000
65.55229 308.000
65.57224 308.000
65.59218 288.000
65.61213 290.000
65.63208 292.000
65.65202 305.000
65.67197 327.000
65.69192 280.000
65.71186 296.000
65.73181 308.000
65.75176 295.000
65.77171 303.000
65.79165 321.000
65.81160 309.000
65.83155 306.000
65.85149 259.000
65.87144 266.000
65.89139 286.000
65.91133 294.000
65.93128 307.000
65.95123 287.000
65.97117 287.000
65.99112 281.000
66.01107 334.000
66.03102 279.000
66.05096 263.000
66.07091 265.000
66.09086 260.000
66.11080 259.000
66.13075 263.000
66.15070 282.000
66.17064 232.000
66.19059 273.000
66.21054 261.000
66.23049 268.000
66.25043 242.000
66.27038 280.000
66.29033 291.000
66.31027 283.000
66.33022 263.000
66.35017 295.000
66.37011 270.000
66.39006 294.000
66.41001 255.000
66.42995 243.000
66.44990 282.000
66.46985 257.000
66.48980 289.000
66.50974 280.000
66.52969 281.000
66.54964 281.000
66.56958 249.000
66.58953 288.000
66.60948 277.000
66.62942 283.000
66.64937 279.000
66.66932 259.000
66.68927 288.000
66.70921 292.000
66.72916 281.000
66.74911 257.000
66.76905 276.000
66.78900 260.000
66.80895 284.000
66.82889 278.000
66.84884 293.000
66.86879 274.000
66.88874 273.000
66.90868 282.000
66.92863 281.000
66.94858 250.000
66.96852 276.000
66.98847 307.000
67.00842 288.000
67.02836 256.000
67.04831 262.000
67.06826 252.000
67.08820 299.000
67.10815 289.000
67.12810 282.000
67.14805 289.000
67.16799 280.000
67.18794 284.000
67.20789 244.000
67.22783 265.000
67.24778 259.000
67.26773 256.000
67.28767 267.000
67.30762 232.000
67.32757 253.000
67.34752 256.000
67.36746 258.000
67.38741 261.000
67.40736 237.000
67.42730 243.000
67.44725 259.000
67.46720 276.000
67.48714 227.000
67.50709 257.000
67.52704 251.000
67.54698 255.000
67.56693 243.000
67.58688 238.000
67.60683 246.000
67.62677 267.000
67.64672 254.000
67.66667 249.000
67.68661 228.000
67.70656 255.000
67.72651 237.000
67.74645 242.000
67.76640 263.000
67.78635 249.000
67.80630 216.000
67.82624 217.000
67.84619 261.000
67.86614 234.000
67.88608 232.000
67.90603 233.000
67.92598 241.000
67.94592 246.000
67.96587 250.000
67.98582 273.000
68.00576 249.000
68.02571 235.000
68.04566 266.000
68.06561 248.000
68.08555 263.000
68.10550 273.000
68.12545 233.000
68.14539 268.000
68.16534 274.000
68.18529 265.000
68.20523 248.000
68.22518 293.000
68.24513 259.000
68.26508 285.000
68.28502 250.000
68.30497 262.000
68.32492 260.000
68.34486 232.000
68.36481 248.000
68.38476 250.000
68.40470 257.000
68.42465 263.000
68.44460 269.000
68.46455 262.000
68.48449 282.000
68.50444 287.000
68.52439 281.000
68.54433 257.000
68.56428 272.000
68.58423 240.000
68.60417 257.000
68.62412 257.000
68.64407 237.000
68.66401 240.000
68.68396 245.000
68.70391 226.000
68.72386 251.000
68.74380 245.000
68.76375 232.000
68.78370 243.000
68.80364 218.000
68.82359 224.000
68.84354 258.000
68.86348 225.000
68.88343 263.000
68.90338 256.000
68.92333 233.000
68.94327 233.000
68.96322 225.000
68.98317 247.000
69.00311 247.000
69.02306 256.000
69.04301 248.000
69.06295 234.000
69.08290 261.000
69.10285 236.000
69.12279 230.000
69.14274 252.000
69.16269 268.000
69.18264 243.000
69.20258 259.000
69.22253 241.000
69.24248 242.000
69.26242 235.000
69.28237 273.000
69.30232 256.000
69.32226 234.000
69.34221 221.000
69.36216 238.000
69.38211 241.000
69.40205 230.000
69.42200 235.000
69.44195 242.000
69.46189 259.000
69.48184 210.000
69.50179 244.000
69.52173 242.000
69.54168 223.000
69.56163 245.000
69.58157 239.000
69.60152 239.000
69.62147 226.000
69.64142 220.000
69.66136 201.000
69.68131 240.000
69.70126 255.000
69.72120 235.000
69.74115 240.000
69.76110 240.000
69.78104 255.000
69.80099 226.000
69.82094 242.000
69.84089 225.000
69.86083 209.000
69.88078 206.000
69.90073 239.000
69.92067 237.000
69.94062 246.000
69.96057 232.000
69.98051 253.000
70.00046 250.000
70.02041 227.000
70.04035 231.000
70.06030 237.000
70.08025 236.000
70.10020 218.000
70.12014 252.000
70.14009 230.000
70.16004 250.000
70.17998 234.000
70.19993 246.000
70.21988 259.000
70.23982 221.000
70.25977 237.000
70.27972 236.000
70.29967 215.000
70.31961 218.000
70.33956 258.000
70.35951 216.000
70.37945 242.000
70.39940 254.000
70.41935 262.000
70.43929 242.000
70.45924 252.000
70.47919 236.000
70.49914 233.000
70.51908 224.000
70.53903 217.000
70.55898 242.000
70.57892 211.000
70.59887 239.000
70.61882 233.000
70.63876 224.000
70.65871 261.000
70.67866 243.000
70.69860 217.000
70.71855 236.000
70.73850 247.000
70.75845 244.000
70.77839 255.000
70.79834 248.000
70.81829 230.000
70.83823 209.000
70.85818 232.000
70.87813 255.000
70.89807 216.000
70.91802 236.000
70.93797 213.000
70.95792 238.000
70.97786 239.000
70.99781 246.000
71.01776 252.000
71.03770 233.000
71.05765 249.000
71.07760 226.000
71.09754 231.000
71.11749 249.000
71.13744 210.000
71.15738 233.000
71.17733 227.000
71.19728 235.000
71.21723 232.000
71.23717 267.000
71.25712 237.000
71.27707 221.000
71.29701 266.000
71.31696 241.000
71.33691 247.000
71.35685 241.000
71.37680 254.000
71.39675 248.000
71.41670 230.000
71.43664 232.000
71.45659 274.000
71.47654 262.000
71.49648 248.000
71.51643 248.000
71.53638 229.000
71.55632 254.000
71.57627 237.000
71.59622 237.000
71.61616 231.000
71.63611 263.000
71.65606 237.000
71.67601 249.000
71.69595 234.000
71.71590 252.000
71.73585 248.000
71.75579 274.000
71.77574 236.000
71.79569 218.000
71.81563 255.000
71.83558 227.000
71.85553 269.000
71.87548 253.000
71.89542 246.000
71.91537 231.000
71.93532 256.000
71.95526 230.000
71.97521 228.000
71.99516 270.000
72.01510 232.000
72.03505 281.000
72.05500 234.000
72.07495 277.000
72.09489 278.000
72.11484 221.000
72.13479 251.000
72.15473 270.000
72.17468 247.000
72.19463 243.000
72.21457 244.000
72.23452 234.000
72.25447 244.000
72.27441 218.000
72.29436 234.000
72.31431 235.000
72.33426 262.000
72.35420 250.000
72.37415 261.000
72.39410 238.000
72.41404 252.000
72.43399 249.000
72.45394 238.000
72.47388 256.000
72.49383 213.000
72.51378 250.000
72.53373 248.000
72.55367 261.000
72.57362 244.000
72.59357 264.000
72.61351 234.000
72.63346 270.000
72.65341 270.000
72.67335 242.000
72.69330 263.000
72.71325 274.000
72.73319 261.000
72.75314 267.000
72.77309 237.000
72.79304 254.000
72.81298 231.000
72.83293 248.000
72.85288 251.000
72.87282 251.000
72.89277 270.000
72.91272 264.000
72.93266 292.000
72.95261 256.000
72.97256 247.000
72.99251 284.000
73.01245 270.000
73.03240 279.000
73.05235 266.000
73.07229 272.000
73.09224 279.000
73.11219 278.000
73.13213 227.000
73.15208 277.000
73.17203 285.000
73.19197 284.000
73.21192 279.000
73.23187 255.000
73.25182 230.000
73.27176 286.000
73.29171 251.000
73.31166 273.000
73.33160 291.000
73.35155 287.000
73.37150 240.000
73.39144 253.000
73.41139 273.000
73.43134 240.000
73.45129 282.000
73.47123 288.000
73.49118 238.000
73.51113 269.000
73.53107 265.000
73.55102 303.000
73.57097 281.000
73.59091 290.000
73.61086 283.000
73.63081 306.000
73.65076 291.000
73.67070 277.000
73.69065 270.000
73.71060 288.000
73.73054 273.000
73.75049 254.000
73.77044 248.000
73.79038 276.000
73.81033 276.000
73.83028 299.000
73.85022 287.000
73.87017 287.000
73.89012 280.000
73.91007 296.000
73.93001 316.000
73.94996 267.000
73.96991 294.000
73.98985 252.000
74.00980 253.000
74.02975 256.000
74.04969 276.000
74.06964 259.000
74.08959 287.000
74.10954 257.000
74.12948 257.000
74.14943 265.000
74.16938 261.000
74.18932 277.000
74.20927 258.000
74.22922 273.000
74.24916 243.000
74.26911 243.000
74.28906 286.000
74.30900 278.000
74.32895 272.000
74.34890 271.000
74.36885 292.000
74.38879 274.000
74.40874 266.000
74.42869 262.000
74.44863 303.000
74.46858 276.000
74.48853 275.000
74.50847 298.000
74.52842 285.000
74.54837 268.000
74.56832 314.000
74.58826 286.000
74.60821 335.000
74.62816 267.000
74.64810 277.000
74.66805 303.000
74.68800 346.000
74.70794 331.000
74.72789 335.000
74.74784 332.000
74.76778 361.000
74.78773 346.000
74.80768 343.000
74.82763 382.000
74.84757 373.000
74.86752 453.000
74.88747 478.000
74.90741 491.000
74.92736 528.000
74.94731 581.000
74.96725 582.000
74.98720 621.000
75.00715 659.000
75.02710 709.000
75.04704 735.000
75.06699 769.000
75.08694 763.000
75.10688 760.000
75.12683 792.000
75.14678 841.000
75.16672 771.000
75.18667 830.000
75.20662 859.000
75.22657 871.000
75.24651 840.000
75.26646 790.000
75.28641 819.000
75.30635 720.000
75.32630 773.000
75.34625 689.000
75.36619 691.000
75.38614 638.000
75.40609 632.000
75.42603 546.000
75.44598 554.000
75.46593 529.000
75.48588 481.000
75.50582 431.000
75.52577 460.000
75.54572 429.000
75.56566 390.000
75.58561 395.000
75.60556 374.000
75.62550 331.000
75.64545 345.000
75.66540 363.000
75.68535 328.000
75.70529 299.000
75.72524 305.000
75.74519 308.000
75.76513 307.000
75.78508 281.000
75.80503 293.000
75.82497 287.000
75.84492 280.000
75.86487 265.000
75.88481 253.000
75.90476 293.000
75.92471 225.000
75.94466 278.000
75.96460 251.000
75.98455 227.000
76.00450 293.000
76.02444 260.000
76.04439 269.000
76.06434 264.000
76.08428 276.000
76.10423 263.000
76.12418 245.000
76.14413 263.000
76.16407 217.000
76.18402 238.000
76.20397 261.000
76.22391 261.000
76.24386 262.000
76.26381 242.000
76.28375 265.000
76.30370 276.000
76.32365 271.000
76.34359 259.000
76.36354 248.000
76.38349 235.000
76.40344 247.000
76.42338 255.000
76.44333 252.000
76.46328 239.000
76.48322 237.000
76.50317 232.000
76.52312 241.000
76.54306 280.000
76.56301 239.000
76.58296 239.000
76.60291 248.000
76.62285 244.000
76.64280 254.000
76.66275 218.000
76.68269 242.000
76.70264 249.000
76.72259 229.000
76.74253 231.000
76.76248 221.000
76.78243 203.000
76.80238 236.000
76.82232 246.000
76.84227 230.000
76.86222 234.000
76.88216 222.000
76.90211 266.000
76.92206 246.000
76.94200 255.000
76.96195 216.000
76.98190 251.000
77.00184 210.000
77.02179 250.000
77.04174 230.000
77.06169 246.000
77.08163 229.000
77.10158 216.000
77.12153 229.000
77.14147 280.000
77.16142 273.000
77.18137 252.000
77.20131 223.000
77.22126 241.000
77.24121 219.000
77.26116 238.000
77.28110 274.000
77.30105 267.000
77.32100 231.000
77.34094 235.000
77.36089 257.000
77.38084 251.000
77.40078 232.000
77.42073 224.000
77.44068 251.000
77.46062 265.000
77.48057 243.000
77.50052 268.000
77.52047 248.000
77.54041 246.000
77.56036 228.000
77.58031 252.000
77.60025 249.000
77.62020 239.000
77.64015 243.000
77.66009 250.000
77.68004 250.000
77.69999 220.000
77.71994 244.000
77.73988 267.000
77.75983 210.000
77.77978 292.000
77.79972 263.000
77.81967 257.000
77.83962 251.000
77.85956 260.000
77.87951 266.000
77.89946 236.000
77.91940 245.000
77.93935 243.000
77.95930 258.000
77.97925 222.000
77.99919 269.000
78.01914 279.000
78.03909 241.000
78.05903 228.000
78.07898 246.000
78.09893 268.000
78.11887 277.000
78.13882 272.000
78.15877 242.000
78.17872 298.000
78.19866 266.000
78.21861 248.000
78.23856 317.000
78.25850 302.000
78.27845 288.000
78.29840 304.000
78.31834 295.000
78.33829 298.000
78.35824 274.000
78.37819 319.000
78.39813 334.000
78.41808 287.000
78.43803 280.000
78.45797 314.000
78.47792 310.000
78.49787 307.000
78.51781 278.000
78.53776 298.000
78.55771 312.000
78.57765 298.000
78.59760 292.000
78.61755 299.000
78.63750 303.000
78.65744 333.000
78.67739 281.000
78.69734 310.000
78.71728 328.000
78.73723 366.000
78.75718 336.000
78.77712 358.000
78.79707 353.000
78.81702 367.000
78.83697 389.000
78.85691 412.000
78.87686 420.000
78.89681 415.000
78.91675 450.000
78.93670 473.000
78.95665 528.000
78.97659 493.000
78.99654 568.000
79.01649 595.000
79.03643 589.000
79.05638 592.000
79.07633 636.000
79.09628 649.000
79.11622 677.000
79.13617 674.000
79.15612 666.000
79.17606 684.000
79.19601 643.000
79.21596 695.000
79.23590 624.000
79.25585 613.000
79.27580 605.000
79.29575 583.000
79.31569 553.000
79.33564 575.000
79.35559 512.000
79.37553 492.000
79.39548 462.000
79.41543 502.000
79.43537 463.000
79.45532 419.000
79.47527 441.000
79.49521 360.000
79.51516 356.000
79.53511 364.000
79.55506 357.000
79.57500 357.000
79.59495 333.000
79.61490 315.000
79.63484 277.000
79.65479 282.000
79.67474 287.000
79.69468 282.000
79.71463 303.000
79.73458 265.000
79.75453 256.000
79.77447 266.000
79.79442 240.000
79.81437 259.000
79.83431 258.000
79.85426 209.000
79.87421 231.000
79.89415 225.000
79.91410 267.000
79.93405 254.000
79.95399 243.000
79.97394 246.000
79.99389 213.000
80.01384 234.000
80.03378 261.000
80.05373 245.000
80.07368 276.000
80.09362 232.000
80.11357 237.000
80.13352 229.000
80.15346 233.000
80.17341 262.000
80.19336 237.000
80.21331 277.000
80.23325 227.000
80.25320 250.000
80.27315 234.000
80.29309 248.000
80.31304 219.000
80.33299 254.000
80.35293 247.000
80.37288 236.000
80.39283 256.000
80.41278 227.000
80.43272 232.000
80.45267 220.000
80.47262 249.000
80.49256 218.000
80.51251 238.000
80.53246 248.000
80.55240 224.000
80.57235 232.000
80.59230 229.000
80.61224 263.000
80.63219 274.000
80.65214 233.000
80.67209 250.000
80.69203 271.000
80.71198 266.000
80.73193 246.000
80.75187 270.000
80.77182 245.000
80.79177 276.000
80.81171 249.000
80.83166 237.000
80.85161 248.000
80.87156 239.000
80.89150 223.000
80.91145 237.000
80.93140 240.000
80.95134 241.000
80.97129 272.000
80.99124 231.000
81.01118 204.000
81.03113 216.000
81.05108 234.000
81.07102 244.000
81.09097 251.000
81.11092 247.000
81.13087 242.000
81.15081 259.000
81.17076 234.000
81.19071 249.000
81.21065 219.000
81.23060 220.000
81.25055 224.000
81.27049 255.000
81.29044 247.000
81.31039 251.000
81.33034 207.000
81.35028 241.000
81.37023 232.000
81.39018 243.000
81.41012 230.000
81.43007 250.000
81.45002 218.000
81.46996 286.000
81.48991 236.000
81.50986 234.000
81.52980 236.000
81.54975 238.000
81.56970 217.000
81.58965 251.000
81.60959 248.000
81.62954 209.000
81.64949 195.000
81.66943 249.000
81.68938 230.000
81.70933 247.000
81.72927 211.000
81.74922 215.000
81.76917 242.000
81.78912 213.000
81.80906 220.000
81.82901 264.000
81.84896 261.000
81.86890 261.000
81.88885 228.000
81.90880 217.000
81.92874 232.000
81.94869 250.000
81.96864 255.000
81.98859 251.000
82.00853 225.000
82.02848 231.000
82.04843 235.000
82.06837 268.000
82.08832 230.000
82.10827 259.000
82.12821 255.000
82.14816 205.000
82.16811 253.000
82.18805 235.000
82.20800 228.000
82.22795 240.000
82.24790 243.000
82.26784 220.000
82.28779 258.000
82.30774 214.000
82.32768 213.000
82.34763 253.000
82.36758 243.000
82.38752 235.000
82.40747 270.000
82.42742 249.000
82.44737 227.000
82.46731 231.000
82.48726 229.000
82.50721 256.000
82.52715 241.000
82.54710 244.000
82.56705 245.000
82.58699 241.000
82.60694 248.000
82.62689 229.000
82.64683 234.000
82.66678 208.000
82.68673 224.000
82.70668 238.000
82.72662 273.000
82.74657 237.000
82.76652 241.000
82.78646 222.000
82.80641 253.000
82.82636 239.000
82.84630 225.000
82.86625 247.000
82.88620 234.000
82.90615 256.000
82.92609 225.000
82.94604 232.000
82.96599 225.000
82.98593 248.000
83.00588 243.000
83.02583 236.000
83.04577 241.000
83.06572 232.000
83.08567 224.000
83.10561 223.000
83.12556 215.000
83.14551 240.000
83.16546 244.000
83.18540 253.000
83.20535 248.000
83.22530 224.000
83.24524 240.000
83.26519 228.000
83.28514 228.000
83.30508 217.000
83.32503 252.000
83.34498 230.000
83.36493 253.000
83.38487 244.000
83.40482 223.000
83.42477 231.000
83.44471 236.000
83.46466 220.000
83.48461 250.000
83.50455 198.000
83.52450 236.000
83.54445 221.000
83.56440 236.000
83.58434 226.000
83.60429 257.000
83.62424 241.000
83.64418 250.000
83.66413 218.000
83.68408 245.000
83.70402 259.000
83.72397 221.000
83.74392 229.000
83.76386 237.000
83.78381 239.000
83.80376 260.000
83.82371 207.000
83.84365 219.000
83.86360 235.000
83.88355 247.000
83.90349 251.000
83.92344 232.000
83.94339 225.000
83.96333 267.000
83.98328 251.000
84.00323 249.000
84.02318 218.000
84.04312 217.000
84.06307 224.000
84.08302 255.000
84.10296 241.000
84.12291 252.000
84.14286 238.000
84.16280 243.000
84.18275 254.000
84.20270 256.000
84.22264 244.000
84.24259 256.000
84.26254 252.000
84.28249 240.000
84.30243 231.000
84.32238 234.000
84.34233 253.000
84.36227 276.000
84.38222 253.000
84.40217 257.000
84.42211 236.000
84.44206 257.000
84.46201 244.000
84.48196 247.000
84.50190 237.000
84.52185 253.000
84.54180 297.000
84.56174 248.000
84.58169 273.000
84.60164 248.000
84.62158 261.000
84.64153 276.000
84.66148 238.000
84.68142 269.000
84.70137 236.000
84.72132 283.000
84.74127 239.000
84.76121 295.000
84.78116 253.000
84.80111 258.000
84.82105 243.000
84.84100 240.000
84.86095 250.000
84.88089 273.000
84.90084 218.000
84.92079 273.000
84.94074 263.000
84.96068 264.000
84.98063 246.000
85.00058 246.000
85.02052 251.000
85.04047 252.000
85.06042 253.000
85.08036 264.000
85.10031 217.000
85.12026 252.000
85.14021 211.000
85.16015 203.000
85.18010 232.000
85.20005 253.000
85.21999 237.000
85.23994 237.000
85.25989 225.000
85.27983 250.000
85.29978 240.000
85.31973 248.000
85.33967 231.000
85.35962 238.000
85.37957 229.000
85.39952 202.000
85.41946 230.000
85.43941 233.000
85.45936 225.000
85.47930 251.000
85.49925 260.000
85.51920 241.000
85.53914 248.000
85.55909 240.000
85.57904 245.000
85.59899 207.000
85.61893 243.000
85.63888 229.000
85.65883 212.000
85.67877 225.000
85.69872 241.000
85.71867 250.000
85.73861 225.000
85.75856 215.000
85.77851 252.000
85.79845 239.000
85.81840 234.000
85.83835 222.000
85.85830 230.000
85.87824 233.000
85.89819 236.000
85.91814 231.000
85.93808 266.000
85.95803 235.000
85.97798 234.000
85.99792 255.000
86.01787 222.000
86.03782 234.000
86.05777 238.000
86.07771 239.000
86.09766 261.000
86.11761 217.000
86.13755 224.000
86.15750 236.000
86.17745 223.000
86.19739 237.000
86.21734 248.000
86.23729 243.000
86.25723 246.000
86.27718 229.000
86.29713 235.000
86.31708 223.000
86.33702 217.000
86.35697 232.000
86.37692 235.000
86.39686 246.000
86.41681 234.000
86.43676 220.000
86.45670 243.000
86.47665 235.000
86.49660 268.000
86.51655 230.000
86.53649 227.000
86.55644 242.000
86.57639 227.000
86.59633 223.000
86.61628 235.000
86.63623 260.000
86.65617 243.000
86.67612 256.000
86.69607 243.000
86.71602 253.000
86.73596 230.000
86.75591 236.000
86.77586 251.000
86.79580 242.000
86.81575 241.000
86.83570 245.000
86.85564 263.000
86.87559 248.000
86.89554 252.000
86.91548 233.000
86.93543 242.000
86.95538 254.000
86.97533 229.000
86.99527 251.000
87.01522 229.000
87.03517 231.000
87.05511 256.000
87.07506 249.000
87.09501 283.000
87.11495 250.000
87.13490 256.000
87.15485 275.000
87.17480 276.000
87.19474 291.000
87.21469 287.000
87.23464 287.000
87.25458 263.000
87.27453 240.000
87.29448 260.000
87.31442 268.000
87.33437 255.000
87.35432 268.000
87.37426 247.000
87.39421 224.000
87.41416 279.000
87.43411 251.000
87.45405 277.000
87.47400 264.000
87.49395 271.000
87.51389 257.000
87.53384 237.000
87.55379 224.000
87.57373 273.000
87.59368 248.000
87.61363 272.000
87.63358 255.000
87.65352 257.000
87.67347 265.000
87.69342 246.000
87.71336 233.000
87.73331 245.000
87.75326 245.000
87.77320 269.000
87.79315 264.000
87.81310 230.000
87.83304 227.000
87.85299 226.000
87.87294 224.000
87.89289 245.000
87.91283 235.000
87.93278 235.000
87.95273 214.000
87.97267 256.000
87.99262 253.000
88.01257 243.000
88.03251 237.000
88.05246 217.000
88.07241 266.000
88.09236 244.000
88.11230 220.000
88.13225 261.000
88.15220 251.000
88.17214 244.000
88.19209 214.000
88.21204 256.000
88.23198 229.000
88.25193 239.000
88.27188 239.000
88.29183 257.000
88.31177 222.000
88.33172 244.000
88.35167 216.000
88.37161 228.000
88.39156 203.000
88.41151 254.000
88.43145 217.000
88.45140 251.000
88.47135 219.000
88.49129 226.000
88.51124 270.000
88.53119 249.000
88.55114 232.000
88.57108 235.000
88.59103 237.000
88.61098 230.000
88.63092 266.000
88.65087 243.000
88.67082 215.000
88.69076 242.000
88.71071 208.000
88.73066 240.000
88.75061 227.000
88.77055 244.000
88.79050 228.000
88.81045 243.000
88.83039 238.000
88.85034 236.000
88.87029 268.000
88.89023 241.000
88.91018 228.000
88.93013 225.000
88.95007 233.000
88.97002 251.000
88.98997 257.000
89.00992 244.000
89.02986 230.000
89.04981 210.000
89.06976 208.000
89.08970 213.000
89.10965 225.000
89.12960 225.000
89.14954 223.000
89.16949 267.000
89.18944 241.000
89.20939 242.000
89.22933 219.000
89.24928 252.000
89.26923 240.000
89.28917 241.000
89.30912 237.000
89.32907 211.000
89.34901 234.000
89.36896 234.000
89.38891 226.000
89.40885 221.000
89.42880 232.000
89.44875 258.000
89.46870 243.000
89.48864 225.000
89.50859 241.000
89.52854 227.000
89.54848 215.000
89.56843 196.000
89.58838 237.000
89.60832 248.000
89.62827 215.000
89.64822 227.000
89.66817 212.000
89.68811 231.000
89.70806 255.000
89.72801 240.000
89.74795 223.000
89.76790 243.000
89.78785 240.000
89.80779 260.000
89.82774 220.000
89.84769 226.000
89.86764 252.000
89.88758 245.000
89.90753 247.000
89.92748 218.000
89.94742 258.000
89.96737 241.000
89.98732 234.000
90.00726 232.000
