10.00000 104.000
10.01995 101.000
10.03989 103.000
10.05984 103.000
10.07979 82.000
10.09973 95.000
10.11968 99.000
10.13963 118.000
10.15958 115.000
10.17952 90.000
10.19947 96.000
10.21942 81.000
10.23936 103.000
10.25931 101.000
10.27926 81.000
10.29920 98.000
10.31915 96.000
10.33910 101.000
10.35905 105.000
10.37899 84.000
10.39894 92.000
10.41889 96.000
10.43883 97.000
10.45878 110.000
10.47873 100.000
10.49867 98.000
10.51862 105.000
10.53857 107.000
10.55851 96.000
10.57846 106.000
10.59841 77.000
10.61836 102.000
10.63830 102.000
10.65825 96.000
10.67820 112.000
10.69814 104.000
10.71809 101.000
10.73804 97.000
10.75798 83.000
10.77793 94.000
10.79788 110.000
10.81783 99.000
10.83777 88.000
10.85772 108.000
10.87767 107.000
10.89761 100.000
10.91756 95.000
10.93751 93.000
10.95745 89.000
10.97740 107.000
10.99735 104.000
11.01730 93.000
11.03724 94.000
11.05719 95.000
11.07714 99.000
11.09708 90.000
11.11703 86.000
11.13698 106.000
11.15692 95.000
11.17687 101.000
11.19682 112.000
11.21676 88.000
11.23671 102.000
11.25666 78.000
11.27661 89.000
11.29655 116.000
11.31650 86.000
11.33645 98.000
11.35639 108.000
11.37634 103.000
11.39629 104.000
11.41623 79.000
11.43618 96.000
11.45613 112.000
11.47608 97.000
11.49602 92.000
11.51597 100.000
11.53592 88.000
11.55586 107.000
11.57581 103.000
11.59576 85.000
11.61570 112.000
11.63565 99.000
11.65560 97.000
11.67554 86.000
11.69549 102.000
11.71544 70.000
11.73539 102.000
11.75533 100.000
11.77528 101.000
11.79523 98.000
11.81517 97.000
11.83512 98.000
11.85507 119.000
11.87501 82.000
11.89496 107.000
11.91491 87.000
11.93486 114.000
11.95480 98.000
11.97475 98.000
11.99470 111.000
12.01464 101.000
12.03459 97.000
12.05454 89.000
12.07448 101.000
12.09443 96.000
12.11438 105.000
12.13432 79.000
12.15427 116.000
12.17422 108.000
12.19417 101.000
12.21411 105.000
12.23406 85.000
12.25401 94.000
12.27395 92.000
12.29390 105.000
12.31385 92.000
12.33379 97.000
12.35374 102.000
12.37369 84.000
12.39364 96.000
12.41358 104.000
12.43353 125.000
12.45348 111.000
12.47342 101.000
12.49337 88.000
12.51332 91.000
12.53326 97.000
12.55321 102.000
12.57316 105.000
12.59311 93.000
12.61305 101.000
12.63300 103.000
12.65295 113.000
12.67289 106.000
12.69284 108.000
12.71279 96.000
12.73273 82.000
12.75268 94.000
12.77263 90.000
12.79257 98.000
12.81252 90.000
12.83247 89.000
12.85242 89.000
12.87236 102.000
12.89231 100.000
12.91226 106.000
12.93220 95.000
12.95215 95.000
12.97210 110.000
12.99204 120.000
13.01199 102.000
13.03194 109.000
13.05189 93.000
13.07183 89.000
13.09178 88.000
13.11173 87.000
13.13167 100.000
13.15162 120.000
13.17157 101.000
13.19151 100.000
13.21146 112.000
13.23141 99.000
13.25135 104.000
13.27130 106.000
13.29125 108.000
13.31120 108.000
13.33114 107.000
13.35109 102.000
13.37104 96.000
13.39098 101.000
13.41093 110.000
13.43088 105.000
13.45082 100.000
13.47077 113.000
13.49072 117.000
13.51067 108.000
13.53061 104.000
13.55056 117.000
13.57051 97.000
13.59045 124.000
13.61040 112.000
13.63035 102.000
13.65029 98.000
13.67024 93.000
13.69019 83.000
13.71013 106.000
13.73008 107.000
13.75003 124.000
13.76998 109.000
13.78992 115.000
13.80987 114.000
13.82982 123.000
13.84976 118.000
13.86971 104.000
13.88966 99.000
13.90960 126.000
13.92955 118.000
13.94950 107.000
13.96945 85.000
13.98939 123.000
14.00934 110.000
14.02929 124.000
14.04923 106.000
14.06918 113.000
14.08913 137.000
14.10907 157.000
14.12902 154.000
14.14897 135.000
14.16892 127.000
14.18886 136.000
14.20881 134.000
14.22876 119.000
14.24870 103.000
14.26865 110.000
14.28860 101.000
14.30854 110.000
14.32849 135.000
14.34844 108.000
14.36838 134.000
14.38833 124.000
14.40828 113.000
14.42823 131.000
14.44817 122.000
14.46812 129.000
14.48807 110.000
14.50801 138.000
14.52796 132.000
14.54791 153.000
14.56785 146.000
14.58780 136.000
14.60775 140.000
14.62770 127.000
14.64764 141.000
14.66759 158.000
14.68754 139.000
14.70748 156.000
14.72743 149.000
14.74738 170.000
14.76732 134.000
14.78727 145.000
14.80722 149.000
14.82716 165.000
14.84711 160.000
14.86706 183.000
14.88701 193.000
14.90695 180.000
14.92690 221.000
14.94685 201.000
14.96679 248.000
14.98674 234.000
15.00669 235.000
15.02663 248.000
15.04658 250.000
15.06653 220.000
15.08648 234.000
15.10642 208.000
15.12637 221.000
15.14632 227.000
15.16626 233.000
15.18621 256.000
15.20616 254.000
15.22610 281.000
15.24605 270.000
15.26600 314.000
15.28594 307.000
15.30589 342.000
15.32584 332.000
15.34579 378.000
15.36573 407.000
15.38568 413.000
15.40563 469.000
15.42557 515.000
15.44552 580.000
15.46547 677.000
15.48541 796.000
15.50536 961.000
15.52531 1226.000
15.54526 1744.000
15.56520 2528.000
15.58515 3859.000
15.60510 6184.000
15.62504 9385.000
15.64499 13133.000
15.66494 15533.000
15.68488 15349.000
15.70483 13323.000
15.72478 9650.000
15.74472 6358.000
15.76467 4041.000
15.78462 2386.000
15.80457 1517.000
15.82451 1007.000
15.84446 736.000
15.86441 559.000
15.88435 457.000
15.90430 369.000
15.92425 341.000
15.94419 334.000
15.96414 289.000
15.98409 250.000
16.00404 257.000
16.02398 242.000
16.04393 195.000
16.06388 205.000
16.08382 217.000
16.10377 191.000
16.12372 203.000
16.14366 186.000
16.16361 174.000
16.18356 202.000
16.20351 162.000
16.22345 177.000
16.24340 140.000
16.26335 163.000
16.28329 156.000
16.30324 142.000
16.32319 167.000
16.34313 137.000
16.36308 129.000
16.38303 138.000
16.40297 122.000
16.42292 145.000
16.44287 133.000
16.46282 135.000
16.48276 153.000
16.50271 136.000
16.52266 124.000
16.54260 114.000
16.56255 130.000
16.58250 97.000
16.60244 100.000
16.62239 109.000
16.64234 97.000
16.66229 118.000
16.68223 114.000
16.70218 117.000
16.72213 98.000
16.74207 111.000
16.76202 111.000
16.78197 109.000
16.80191 123.000
16.82186 107.000
16.84181 92.000
16.86175 105.000
16.88170 108.000
16.90165 97.000
16.92160 86.000
16.94154 111.000
16.96149 100.000
16.98144 122.000
17.00138 94.000
17.02133 95.000
17.04128 121.000
17.06122 106.000
17.08117 93.000
17.10112 100.000
17.12107 84.000
17.14101 97.000
17.16096 96.000
17.18091 109.000
17.20085 97.000
17.22080 103.000
17.24075 92.000
17.26069 91.000
17.28064 86.000
17.30059 99.000
17.32053 86.000
17.34048 95.000
17.36043 86.000
17.38038 106.000
17.40032 105.000
17.42027 100.000
17.44022 89.000
17.46016 81.000
17.48011 106.000
17.50006 88.000
17.52000 100.000
17.53995 94.000
17.55990 100.000
17.57985 106.000
17.59979 90.000
17.61974 100.000
17.63969 97.000
17.65963 102.000
17.67958 91.000
17.69953 101.000
17.71947 92.000
17.73942 80.000
17.75937 102.000
17.77932 82.000
17.79926 96.000
17.81921 98.000
17.83916 89.000
17.85910 91.000
17.87905 96.000
17.89900 76.000
17.91894 93.000
17.93889 91.000
17.95884 84.000
17.97878 110.000
17.99873 80.000
18.01868 100.000
18.03863 102.000
18.05857 92.000
18.07852 83.000
18.09847 94.000
18.11841 96.000
18.13836 93.000
18.15831 96.000
18.17825 95.000
18.19820 100.000
18.21815 99.000
18.23810 85.000
18.25804 88.000
18.27799 111.000
18.29794 114.000
18.31788 107.000
18.33783 82.000
18.35778 106.000
18.37772 89.000
18.39767 106.000
18.41762 81.000
18.43756 103.000
18.45751 81.000
18.47746 105.000
18.49741 99.000
18.51735 91.000
18.53730 87.000
18.55725 89.000
18.57719 80.000
18.59714 89.000
18.61709 84.000
18.63703 108.000
18.65698 80.000
18.67693 80.000
18.69688 98.000
18.71682 88.000
18.73677 93.000
18.75672 85.000
18.77666 91.000
18.79661 88.000
18.81656 132.000
18.83650 96.000
18.85645 97.000
18.87640 81.000
18.89634 85.000
18.91629 91.000
18.93624 79.000
18.95619 107.000
18.97613 87.000
18.99608 91.000
19.01603 98.000
19.03597 105.000
19.05592 96.000
19.07587 107.000
19.09581 77.000
19.11576 96.000
19.13571 73.000
19.15566 90.000
19.17560 82.000
19.19555 83.000
19.21550 77.000
19.23544 86.000
19.25539 98.000
19.27534 91.000
19.29528 72.000
19.31523 85.000
19.33518 96.000
19.35513 91.000
19.37507 92.000
19.39502 83.000
19.41497 106.000
19.43491 94.000
19.45486 85.000
19.47481 83.000
19.49475 91.000
19.51470 74.000
19.53465 74.000
19.55459 86.000
19.57454 82.000
19.59449 84.000
19.61444 104.000
19.63438 87.000
19.65433 80.000
19.67428 107.000
19.69422 78.000
19.71417 101.000
19.73412 101.000
19.75406 94.000
19.77401 101.000
19.79396 74.000
19.81391 85.000
19.83385 85.000
19.85380 76.000
19.87375 88.000
19.89369 109.000
19.91364 87.000
19.93359 87.000
19.95353 80.000
19.97348 75.000
19.99343 89.000
20.01337 85.000
20.03332 89.000
20.05327 88.000
20.07322 83.000
20.09316 91.000
20.11311 102.000
20.13306 74.000
20.15300 92.000
20.17295 98.000
20.19290 91.000
20.21284 96.000
20.23279 81.000
20.25274 101.000
20.27269 91.000
20.29263 93.000
20.31258 85.000
20.33253 86.000
20.35247 112.000
20.37242 82.000
20.39237 113.000
20.41231 96.000
20.43226 96.000
20.45221 91.000
20.47215 88.000
20.49210 96.000
20.51205 73.000
20.53200 95.000
20.55194 89.000
20.57189 93.000
20.59184 97.000
20.61178 107.000
20.63173 105.000
20.65168 79.000
20.67162 81.000
20.69157 114.000
20.71152 95.000
20.73147 84.000
20.75141 91.000
20.77136 84.000
20.79131 76.000
20.81125 110.000
20.83120 100.000
20.85115 105.000
20.87109 82.000
20.89104 90.000
20.91099 100.000
20.93094 98.000
20.95088 93.000
20.97083 74.000
20.99078 114.000
21.01072 113.000
21.03067 95.000
21.05062 90.000
21.07056 84.000
21.09051 95.000
21.11046 84.000
21.13040 104.000
21.15035 77.000
21.17030 102.000
21.19025 99.000
21.21019 97.000
21.23014 89.000
21.25009 76.000
21.27003 85.000
21.28998 82.000
21.30993 82.000
21.32987 103.000
21.34982 89.000
21.36977 95.000
21.38972 86.000
21.40966 91.000
21.42961 98.000
21.44956 92.000
21.46950 110.000
21.48945 79.000
21.50940 78.000
21.52934 88.000
21.54929 86.000
21.56924 90.000
21.58918 69.000
21.60913 88.000
21.62908 92.000
21.64903 92.000
21.66897 77.000
21.68892 81.000
21.70887 98.000
21.72881 88.000
21.74876 80.000
21.76871 96.000
21.78865 81.000
21.80860 105.000
21.82855 87.000
21.84850 86.000
21.86844 97.000
21.88839 94.000
21.90834 93.000
21.92828 85.000
21.94823 79.000
21.96818 75.000
21.98812 87.000
22.00807 97.000
22.02802 113.000
22.04796 102.000
22.06791 92.000
22.08786 96.000
22.10781 94.000
22.12775 82.000
22.14770 95.000
22.16765 86.000
22.18759 94.000
22.20754 88.000
22.22749 101.000
22.24743 87.000
22.26738 92.000
22.28733 91.000
22.30728 70.000
22.32722 90.000
22.34717 93.000
22.36712 91.000
22.38706 101.000
22.40701 87.000
22.42696 80.000
22.44690 89.000
22.46685 81.000
22.48680 97.000
22.50675 104.000
22.52669 103.000
22.54664 90.000
22.56659 89.000
22.58653 93.000
22.60648 80.000
22.62643 82.000
22.64637 87.000
22.66632 80.000
22.68627 91.000
22.70621 92.000
22.72616 99.000
22.74611 101.000
22.76606 84.000
22.78600 79.000
22.80595 88.000
22.82590 91.000
22.84584 71.000
22.86579 100.000
22.88574 86.000
22.90568 97.000
22.92563 113.000
22.94558 90.000
22.96553 93.000
22.98547 85.000
23.00542 76.000
23.02537 84.000
23.04531 76.000
23.06526 88.000
23.08521 110.000
23.10515 100.000
23.12510 74.000
23.14505 98.000
23.16499 95.000
23.18494 103.000
23.20489 86.000
23.22484 96.000
23.24478 92.000
23.26473 92.000
23.28468 84.000
23.30462 90.000
23.32457 87.000
23.34452 84.000
23.36446 74.000
23.38441 87.000
23.40436 101.000
23.42431 101.000
23.44425 77.000
23.46420 95.000
23.48415 108.000
23.50409 82.000
23.52404 108.000
23.54399 101.000
23.56393 95.000
23.58388 84.000
23.60383 93.000
23.62377 100.000
23.64372 98.000
23.66367 90.000
23.68362 103.000
23.70356 94.000
23.72351 79.000
23.74346 88.000
23.76340 98.000
23.78335 93.000
23.80330 101.000
23.82324 90.000
23.84319 91.000
23.86314 93.000
23.88309 96.000
23.90303 97.000
23.92298 88.000
23.94293 86.000
23.96287 93.000
23.98282 93.000
24.00277 99.000
24.02271 87.000
24.04266 109.000
24.06261 89.000
24.08256 103.000
24.10250 88.000
24.12245 96.000
24.14240 110.000
24.16234 97.000
24.18229 93.000
24.20224 94.000
24.22218 99.000
24.24213 87.000
24.26208 84.000
24.28202 97.000
24.30197 109.000
24.32192 89.000
24.34187 84.000
24.36181 97.000
24.38176 91.000
24.40171 82.000
24.42165 80.000
24.44160 91.000
24.46155 87.000
24.48149 101.000
24.50144 84.000
24.52139 105.000
24.54134 105.000
24.56128 87.000
24.58123 115.000
24.60118 98.000
24.62112 91.000
24.64107 94.000
24.66102 91.000
24.68096 98.000
24.70091 85.000
24.72086 102.000
24.74080 96.000
24.76075 107.000
24.78070 94.000
24.80065 92.000
24.82059 100.000
24.84054 93.000
24.86049 94.000
24.88043 92.000
24.90038 97.000
24.92033 114.000
24.94027 104.000
24.96022 86.000
24.98017 106.000
25.00012 98.000
25.02006 90.000
25.04001 109.000
25.05996 88.000
25.07990 87.000
25.09985 108.000
25.11980 96.000
25.13974 93.000
25.15969 84.000
25.17964 99.000
25.19958 101.000
25.21953 107.000
25.23948 91.000
25.25943 91.000
25.27937 108.000
25.29932 98.000
25.31927 115.000
25.33921 94.000
25.35916 97.000
25.37911 91.000
25.39905 103.000
25.41900 95.000
25.43895 106.000
25.45890 88.000
25.47884 94.000
25.49879 104.000
25.51874 95.000
25.53868 112.000
25.55863 99.000
25.57858 118.000
25.59852 113.000
25.61847 111.000
25.63842 103.000
25.65837 101.000
25.67831 101.000
25.69826 95.000
25.71821 106.000
25.73815 102.000
25.75810 117.000
25.77805 85.000
25.79799 90.000
25.81794 87.000
25.83789 96.000
25.85783 105.000
25.87778 103.000
25.89773 98.000
25.91768 111.000
25.93762 104.000
25.95757 121.000
25.97752 107.000
25.99746 97.000
26.01741 81.000
26.03736 93.000
26.05730 110.000
26.07725 104.000
26.09720 86.000
26.11715 100.000
26.13709 92.000
26.15704 94.000
26.17699 97.000
26.19693 107.000
26.21688 114.000
26.23683 97.000
26.25677 119.000
26.27672 106.000
26.29667 101.000
26.31661 113.000
26.33656 95.000
26.35651 107.000
26.37646 96.000
26.39640 89.000
26.41635 94.000
26.43630 88.000
26.45624 86.000
26.47619 99.000
26.49614 93.000
26.51608 110.000
26.53603 92.000
26.55598 105.000
26.57593 95.000
26.59587 107.000
26.61582 103.000
26.63577 107.000
26.65571 94.000
26.67566 96.000
26.69561 114.000
26.71555 87.000
26.73550 112.000
26.75545 112.000
26.77539 93.000
26.79534 98.000
26.81529 106.000
26.83524 92.000
26.85518 98.000
26.87513 107.000
26.89508 91.000
26.91502 99.000
26.93497 94.000
26.95492 87.000
26.97486 99.000
26.99481 92.000
27.01476 77.000
27.03471 93.000
27.05465 101.000
27.07460 112.000
27.09455 118.000
27.11449 103.000
27.13444 105.000
27.15439 93.000
27.17433 107.000
27.19428 103.000
27.21423 92.000
27.23417 105.000
27.25412 97.000
27.27407 102.000
27.29402 85.000
27.31396 97.000
27.33391 115.000
27.35386 102.000
27.37380 107.000
27.39375 91.000
27.41370 101.000
27.43364 103.000
27.45359 114.000
27.47354 100.000
27.49349 98.000
27.51343 106.000
27.53338 108.000
27.55333 99.000
27.57327 129.000
27.59322 100.000
27.61317 102.000
27.63311 108.000
27.65306 112.000
27.67301 91.000
27.69296 102.000
27.71290 95.000
27.73285 105.000
27.75280 91.000
27.77274 95.000
27.79269 92.000
27.81264 95.000
27.83258 104.000
27.85253 101.000
27.87248 92.000
27.89242 88.000
27.91237 110.000
27.93232 88.000
27.95227 107.000
27.97221 97.000
27.99216 106.000
28.01211 110.000
28.03205 99.000
28.05200 96.000
28.07195 96.000
28.09189 98.000
28.11184 111.000
28.13179 92.000
28.15174 96.000
28.17168 112.000
28.19163 90.000
28.21158 96.000
28.23152 88.000
28.25147 92.000
28.27142 114.000
28.29136 94.000
28.31131 99.000
28.33126 86.000
28.35120 75.000
28.37115 103.000
28.39110 94.000
28.41105 83.000
28.43099 94.000
28.45094 108.000
28.47089 121.000
28.49083 112.000
28.51078 94.000
28.53073 97.000
28.55067 83.000
28.57062 100.000
28.59057 92.000
28.61052 92.000
28.63046 96.000
28.65041 120.000
28.67036 100.000
28.69030 109.000
28.71025 99.000
28.73020 96.000
28.75014 109.000
28.77009 99.000
28.79004 92.000
28.80998 110.000
28.82993 101.000
28.84988 102.000
28.86983 89.000
28.88977 99.000
28.90972 94.000
28.92967 106.000
28.94961 112.000
28.96956 102.000
28.98951 104.000
29.00945 98.000
29.02940 110.000
29.04935 97.000
29.06930 86.000
29.08924 111.000
29.10919 103.000
29.12914 110.000
29.14908 98.000
29.16903 101.000
29.18898 108.000
29.20892 107.000
29.22887 94.000
29.24882 104.000
29.26877 106.000
29.28871 109.000
29.30866 108.000
29.32861 97.000
29.34855 109.000
29.36850 101.000
29.38845 122.000
29.40839 107.000
29.42834 115.000
29.44829 120.000
29.46823 92.000
29.48818 113.000
29.50813 100.000
29.52808 107.000
29.54802 81.000
29.56797 110.000
29.58792 91.000
29.60786 118.000
29.62781 96.000
29.64776 84.000
29.66770 104.000
29.68765 102.000
29.70760 92.000
29.72755 111.000
29.74749 78.000
29.76744 89.000
29.78739 109.000
29.80733 94.000
29.82728 104.000
29.84723 104.000
29.86717 105.000
29.88712 96.000
29.90707 101.000
29.92701 109.000
29.94696 120.000
29.96691 140.000
29.98686 119.000
30.00680 106.000
30.02675 132.000
30.04670 134.000
30.06664 134.000
30.08659 169.000
30.10654 144.000
30.12648 146.000
30.14643 164.000
30.16638 136.000
30.18633 134.000
30.20627 122.000
30.22622 119.000
30.24617 123.000
30.26611 111.000
30.28606 122.000
30.30601 105.000
30.32595 111.000
30.34590 97.000
30.36585 149.000
30.38579 109.000
30.40574 95.000
30.42569 118.000
30.44564 113.000
30.46558 101.000
30.48553 113.000
30.50548 109.000
30.52542 112.000
30.54537 111.000
30.56532 116.000
30.58526 125.000
30.60521 106.000
30.62516 89.000
30.64511 106.000
30.66505 111.000
30.68500 106.000
30.70495 108.000
30.72489 103.000
30.74484 90.000
30.76479 87.000
30.78473 94.000
30.80468 93.000
30.82463 104.000
30.84458 113.000
30.86452 102.000
30.88447 104.000
30.90442 108.000
30.92436 103.000
30.94431 103.000
30.96426 113.000
30.98420 113.000
31.00415 107.000
31.02410 118.000
31.04404 93.000
31.06399 103.000
31.08394 124.000
31.10389 91.000
31.12383 113.000
31.14378 121.000
31.16373 111.000
31.18367 121.000
31.20362 138.000
31.22357 115.000
31.24351 100.000
31.26346 113.000
31.28341 108.000
31.30336 126.000
31.32330 110.000
31.34325 132.000
31.36320 132.000
31.38314 123.000
31.40309 127.000
31.42304 125.000
31.44298 145.000
31.46293 142.000
31.48288 150.000
31.50282 151.000
31.52277 192.000
31.54272 203.000
31.56267 203.000
31.58261 270.000
31.60256 336.000
31.62251 517.000
31.64245 728.000
31.66240 930.000
31.68235 1100.000
31.70229 1047.000
31.72224 1103.000
31.74219 1022.000
31.76214 957.000
31.78208 836.000
31.80203 669.000
31.82198 579.000
31.84192 451.000
31.86187 368.000
31.88182 289.000
31.90176 253.000
31.92171 211.000
31.94166 174.000
31.96160 161.000
31.98155 168.000
32.00150 154.000
32.02145 107.000
32.04139 119.000
32.06134 102.000
32.08129 131.000
32.10123 118.000
32.12118 117.000
32.14113 119.000
32.16107 116.000
32.18102 114.000
32.20097 111.000
32.22092 115.000
32.24086 127.000
32.26081 120.000
32.28076 110.000
32.30070 118.000
32.32065 107.000
32.34060 131.000
32.36054 120.000
32.38049 115.000
32.40044 135.000
32.42039 120.000
32.44033 125.000
32.46028 121.000
32.48023 120.000
32.50017 126.000
32.52012 135.000
32.54007 111.000
32.56001 110.000
32.57996 101.000
32.59991 109.000
32.61985 102.000
32.63980 108.000
32.65975 113.000
32.67970 117.000
32.69964 110.000
32.71959 97.000
32.73954 111.000
32.75948 113.000
32.77943 105.000
32.79938 95.000
32.81932 114.000
32.83927 114.000
32.85922 100.000
32.87917 99.000
32.89911 112.000
32.91906 86.000
32.93901 107.000
32.95895 107.000
32.97890 92.000
32.99885 105.000
33.01879 98.000
33.03874 85.000
33.05869 104.000
33.07863 115.000
33.09858 121.000
33.11853 78.000
33.13848 94.000
33.15842 109.000
33.17837 102.000
33.19832 108.000
33.21826 98.000
33.23821 104.000
33.25816 105.000
33.27810 114.000
33.29805 89.000
33.31800 99.000
33.33795 104.000
33.35789 89.000
33.37784 94.000
33.39779 121.000
33.41773 111.000
33.43768 108.000
33.45763 87.000
33.47757 106.000
33.49752 89.000
33.51747 88.000
33.53741 115.000
33.55736 101.000
33.57731 91.000
33.59726 85.000
33.61720 98.000
33.63715 92.000
33.65710 108.000
33.67704 111.000
33.69699 127.000
33.71694 113.000
33.73688 114.000
33.75683 110.000
33.77678 117.000
33.79673 108.000
33.81667 96.000
33.83662 101.000
33.85657 93.000
33.87651 89.000
33.89646 100.000
33.91641 103.000
33.93635 114.000
33.95630 84.000
33.97625 96.000
33.99620 104.000
34.01614 117.000
34.03609 93.000
34.05604 102.000
34.07598 121.000
34.09593 104.000
34.11588 112.000
34.13582 101.000
34.15577 108.000
34.17572 106.000
34.19566 121.000
34.21561 107.000
34.23556 117.000
34.25551 119.000
34.27545 129.000
34.29540 123.000
34.31535 104.000
34.33529 114.000
34.35524 116.000
34.37519 119.000
34.39513 106.000
34.41508 119.000
34.43503 110.000
34.45498 129.000
34.47492 82.000
34.49487 133.000
34.51482 133.000
34.53476 113.000
34.55471 123.000
34.57466 132.000
34.59460 109.000
34.61455 125.000
34.63450 105.000
34.65444 96.000
34.67439 104.000
34.69434 133.000
34.71429 114.000
34.73423 98.000
34.75418 116.000
34.77413 114.000
34.79407 118.000
34.81402 104.000
34.83397 109.000
34.85391 93.000
34.87386 111.000
34.89381 113.000
34.91376 93.000
34.93370 94.000
34.95365 95.000
34.97360 121.000
34.99354 127.000
35.01349 108.000
35.03344 106.000
35.05338 114.000
35.07333 126.000
35.09328 126.000
35.11322 142.000
35.13317 123.000
35.15312 133.000
35.17307 133.000
35.19301 128.000
35.21296 137.000
35.23291 126.000
35.25285 126.000
35.27280 126.000
35.29275 150.000
35.31269 152.000
35.33264 174.000
35.35259 202.000
35.37254 213.000
35.39248 199.000
35.41243 227.000
35.43238 264.000
35.45232 344.000
35.47227 302.000
35.49222 327.000
35.51216 313.000
35.53211 322.000
35.55206 301.000
35.57201 269.000
35.59195 292.000
35.61190 273.000
35.63185 274.000
35.65179 294.000
35.67174 335.000
35.69169 388.000
35.71163 487.000
35.73158 619.000
35.75153 798.000
35.77147 1071.000
35.79142 1171.000
35.81137 1169.000
35.83132 1148.000
35.85126 1033.000
35.87121 924.000
35.89116 821.000
35.91110 700.000
35.93105 581.000
35.95100 448.000
35.97094 281.000
35.99089 254.000
36.01084 239.000
36.03079 202.000
36.05073 159.000
36.07068 150.000
36.09063 143.000
36.11057 140.000
36.13052 117.000
36.15047 132.000
36.17041 131.000
36.19036 109.000
36.21031 127.000
36.23025 123.000
36.25020 109.000
36.27015 127.000
36.29010 121.000
36.31004 98.000
36.32999 120.000
36.34994 119.000
36.36988 100.000
36.38983 112.000
36.40978 105.000
36.42972 116.000
36.44967 123.000
36.46962 112.000
36.48957 112.000
36.50951 120.000
36.52946 120.000
36.54941 105.000
36.56935 123.000
36.58930 137.000
36.60925 140.000
36.62919 173.000
36.64914 165.000
36.66909 195.000
36.68903 219.000
36.70898 233.000
36.72893 221.000
36.74888 186.000
36.76882 211.000
36.78877 213.000
36.80872 170.000
36.82866 182.000
36.84861 149.000
36.86856 157.000
36.88850 140.000
36.90845 147.000
36.92840 136.000
36.94835 134.000
36.96829 116.000
36.98824 123.000
37.00819 133.000
37.02813 133.000
37.04808 140.000
37.06803 160.000
37.08797 117.000
37.10792 131.000
37.12787 136.000
37.14781 136.000
37.16776 122.000
37.18771 128.000
37.20766 129.000
37.22760 148.000
37.24755 100.000
37.26750 96.000
37.28744 92.000
37.30739 102.000
37.32734 114.000
37.34728 107.000
37.36723 118.000
37.38718 141.000
37.40713 98.000
37.42707 115.000
37.44702 101.000
37.46697 118.000
37.48691 102.000
37.50686 97.000
37.52681 110.000
37.54675 108.000
37.56670 115.000
37.58665 140.000
37.60660 116.000
37.62654 123.000
37.64649 134.000
37.66644 100.000
37.68638 112.000
37.70633 128.000
37.72628 106.000
37.74622 110.000
37.76617 128.000
37.78612 129.000
37.80606 138.000
37.82601 115.000
37.84596 121.000
37.86591 114.000
37.88585 112.000
37.90580 120.000
37.92575 115.000
37.94569 119.000
37.96564 139.000
37.98559 127.000
38.00553 126.000
38.02548 126.000
38.04543 133.000
38.06538 121.000
38.08532 125.000
38.10527 110.000
38.12522 109.000
38.14516 120.000
38.16511 115.000
38.18506 121.000
38.20500 141.000
38.22495 92.000
38.24490 116.000
38.26484 116.000
38.28479 111.000
38.30474 104.000
38.32469 101.000
38.34463 122.000
38.36458 114.000
38.38453 128.000
38.40447 137.000
38.42442 110.000
38.44437 137.000
38.46431 132.000
38.48426 135.000
38.50421 152.000
38.52416 148.000
38.54410 168.000
38.56405 190.000
38.58400 197.000
38.60394 232.000
38.62389 237.000
38.64384 229.000
38.66378 232.000
38.68373 228.000
38.70368 232.000
38.72362 229.000
38.74357 202.000
38.76352 203.000
38.78347 192.000
38.80341 169.000
38.82336 190.000
38.84331 174.000
38.86325 178.000
38.88320 193.000
38.90315 181.000
38.92309 191.000
38.94304 213.000
38.96299 223.000
38.98294 217.000
39.00288 238.000
39.02283 240.000
39.04278 252.000
39.06272 297.000
39.08267 308.000
39.10262 330.000
39.12256 324.000
39.14251 415.000
39.16246 436.000
39.18241 518.000
39.20235 654.000
39.22230 861.000
39.24225 1158.000
39.26219 1484.000
39.28214 1862.000
39.30209 2161.000
39.32203 2244.000
39.34198 2065.000
39.36193 1966.000
39.38187 1735.000
39.40182 1533.000
39.42177 1323.000
39.44172 1196.000
39.46166 913.000
39.48161 732.000
39.50156 581.000
39.52150 449.000
39.54145 378.000
39.56140 314.000
39.58134 259.000
39.60129 265.000
39.62124 253.000
39.64119 213.000
39.66113 194.000
39.68108 190.000
39.70103 196.000
39.72097 168.000
39.74092 153.000
39.76087 167.000
39.78081 150.000
39.80076 177.000
39.82071 136.000
39.84065 133.000
39.86060 148.000
39.88055 133.000
39.90050 136.000
39.92044 112.000
39.94039 112.000
39.96034 114.000
39.98028 133.000
40.00023 137.000
40.02018 133.000
40.04012 124.000
40.06007 130.000
40.08002 102.000
40.09997 101.000
40.11991 124.000
40.13986 103.000
40.15981 124.000
40.17975 124.000
40.19970 127.000
40.21965 109.000
40.23959 110.000
40.25954 99.000
40.27949 123.000
40.29943 107.000
40.31938 104.000
40.33933 136.000
40.35928 119.000
40.37922 116.000
40.39917 104.000
40.41912 110.000
40.43906 126.000
40.45901 107.000
40.47896 111.000
40.49890 111.000
40.51885 89.000
40.53880 98.000
40.55875 115.000
40.57869 106.000
40.59864 119.000
40.61859 122.000
40.63853 104.000
40.65848 98.000
40.67843 90.000
40.69837 108.000
40.71832 104.000
40.73827 93.000
40.75822 118.000
40.77816 99.000
40.79811 94.000
40.81806 117.000
40.83800 91.000
40.85795 121.000
40.87790 111.000
40.89784 96.000
40.91779 114.000
40.93774 105.000
40.95768 101.000
40.97763 108.000
40.99758 97.000
41.01753 109.000
41.03747 120.000
41.05742 101.000
41.07737 116.000
41.09731 108.000
41.11726 105.000
41.13721 118.000
41.15715 107.000
41.17710 113.000
41.19705 119.000
41.21700 102.000
41.23694 85.000
41.25689 117.000
41.27684 112.000
41.29678 96.000
41.31673 114.000
41.33668 110.000
41.35662 106.000
41.37657 114.000
41.39652 111.000
41.41646 112.000
41.43641 98.000
41.45636 122.000
41.47631 110.000
41.49625 107.000
41.51620 104.000
41.53615 118.000
41.55609 116.000
41.57604 106.000
41.59599 106.000
41.61593 108.000
41.63588 101.000
41.65583 123.000
41.67578 113.000
41.69572 106.000
41.71567 107.000
41.73562 105.000
41.75556 84.000
41.77551 125.000
41.79546 113.000
41.81540 107.000
41.83535 124.000
41.85530 80.000
41.87524 93.000
41.89519 98.000
41.91514 103.000
41.93509 97.000
41.95503 103.000
41.97498 99.000
41.99493 109.000
42.01487 99.000
42.03482 102.000
42.05477 120.000
42.07471 103.000
42.09466 101.000
42.11461 97.000
42.13456 94.000
42.15450 101.000
42.17445 122.000
42.19440 124.000
42.21434 99.000
42.23429 110.000
42.25424 123.000
42.27418 110.000
42.29413 129.000
42.31408 107.000
42.33403 125.000
42.35397 89.000
42.37392 100.000
42.39387 96.000
42.41381 97.000
42.43376 112.000
42.45371 100.000
42.47365 102.000
42.49360 114.000
42.51355 105.000
42.53349 97.000
42.55344 112.000
42.57339 110.000
42.59334 108.000
42.61328 99.000
42.63323 114.000
42.65318 98.000
42.67312 117.000
42.69307 99.000
42.71302 109.000
42.73296 102.000
42.75291 99.000
42.77286 127.000
42.79281 100.000
42.81275 108.000
42.83270 124.000
42.85265 107.000
42.87259 119.000
42.89254 130.000
42.91249 128.000
42.93243 131.000
42.95238 136.000
42.97233 129.000
42.99227 113.000
43.01222 171.000
43.03217 141.000
43.05212 168.000
43.07206 162.000
43.09201 176.000
43.11196 197.000
43.13190 220.000
43.15185 232.000
43.17180 221.000
43.19174 260.000
43.21169 259.000
43.23164 273.000
43.25159 321.000
43.27153 370.000
43.29148 463.000
43.31143 583.000
43.33137 655.000
43.35132 809.000
43.37127 858.000
43.39121 826.000
43.41116 794.000
43.43111 690.000
43.45105 632.000
43.47100 619.000
43.49095 543.000
43.51090 521.000
43.53084 400.000
43.55079 294.000
43.57074 299.000
43.59068 256.000
43.61063 214.000
43.63058 178.000
43.65052 162.000
43.67047 178.000
43.69042 138.000
43.71037 147.000
43.73031 149.000
43.75026 142.000
43.77021 105.000
43.79015 113.000
43.81010 134.000
43.83005 119.000
43.84999 115.000
43.86994 125.000
43.88989 129.000
43.90984 97.000
43.92978 114.000
43.94973 115.000
43.96968 105.000
43.98962 131.000
44.00957 106.000
44.02952 83.000
44.04946 99.000
44.06941 107.000
44.08936 108.000
44.10930 112.000
44.12925 95.000
44.14920 111.000
44.16915 87.000
44.18909 97.000
44.20904 97.000
44.22899 116.000
44.24893 96.000
44.26888 86.000
44.28883 117.000
44.30877 108.000
44.32872 116.000
44.34867 111.000
44.36862 103.000
44.38856 89.000
44.40851 108.000
44.42846 105.000
44.44840 113.000
44.46835 76.000
44.48830 87.000
44.50824 102.000
44.52819 100.000
44.54814 108.000
44.56808 103.000
44.58803 85.000
44.60798 107.000
44.62793 108.000
44.64787 93.000
44.66782 89.000
44.68777 103.000
44.70771 117.000
44.72766 108.000
44.74761 89.000
44.76755 90.000
44.78750 104.000
44.80745 101.000
44.82740 101.000
44.84734 110.000
44.86729 102.000
44.88724 116.000
44.90718 119.000
44.92713 90.000
44.94708 122.000
44.96702 90.000
44.98697 94.000
45.00692 87.000
45.02686 112.000
45.04681 83.000
45.06676 99.000
45.08671 117.000
45.10665 85.000
45.12660 78.000
45.14655 104.000
45.16649 100.000
45.18644 91.000
45.20639 93.000
45.22633 94.000
45.24628 107.000
45.26623 110.000
45.28618 99.000
45.30612 82.000
45.32607 118.000
45.34602 88.000
45.36596 98.000
45.38591 100.000
45.40586 114.000
45.42580 94.000
45.44575 85.000
45.46570 101.000
45.48565 111.000
45.50559 105.000
45.52554 106.000
45.54549 124.000
45.56543 109.000
45.58538 83.000
45.60533 106.000
45.62527 107.000
45.64522 109.000
45.66517 112.000
45.68511 86.000
45.70506 99.000
45.72501 98.000
45.74496 127.000
45.76490 101.000
45.78485 98.000
45.80480 111.000
45.82474 87.000
45.84469 91.000
45.86464 97.000
45.88458 98.000
45.90453 108.000
45.92448 112.000
45.94443 109.000
45.96437 97.000
45.98432 91.000
46.00427 99.000
46.02421 104.000
46.04416 93.000
46.06411 119.000
46.08405 98.000
46.10400 100.000
46.12395 100.000
46.14389 113.000
46.16384 107.000
46.18379 102.000
46.20374 103.000
46.22368 88.000
46.24363 111.000
46.26358 102.000
46.28352 108.000
46.30347 107.000
46.32342 109.000
46.34336 104.000
46.36331 110.000
46.38326 105.000
46.40321 128.000
46.42315 120.000
46.44310 112.000
46.46305 150.000
46.48299 114.000
46.50294 120.000
46.52289 103.000
46.54283 99.000
46.56278 106.000
46.58273 104.000
46.60267 107.000
46.62262 101.000
46.64257 106.000
46.66252 131.000
46.68246 116.000
46.70241 93.000
46.72236 97.000
46.74230 108.000
46.76225 90.000
46.78220 100.000
46.80214 92.000
46.82209 112.000
46.84204 127.000
46.86199 110.000
46.88193 107.000
46.90188 111.000
46.92183 115.000
46.94177 106.000
46.96172 78.000
46.98167 115.000
47.00161 106.000
47.02156 105.000
47.04151 107.000
47.06146 116.000
47.08140 106.000
47.10135 95.000
47.12130 115.000
47.14124 108.000
47.16119 115.000
47.18114 84.000
47.20108 119.000
47.22103 93.000
47.24098 120.000
47.26092 120.000
47.28087 119.000
47.30082 105.000
47.32077 106.000
47.34071 116.000
47.36066 89.000
47.38061 118.000
47.40055 93.000
47.42050 105.000
47.44045 83.000
47.46039 87.000
47.48034 109.000
47.50029 108.000
47.52024 104.000
47.54018 103.000
47.56013 105.000
47.58008 125.000
47.60002 101.000
47.61997 111.000
47.63992 106.000
47.65986 89.000
47.67981 102.000
47.69976 111.000
47.71970 108.000
47.73965 113.000
47.75960 110.000
47.77955 128.000
47.79949 116.000
47.81944 118.000
47.83939 131.000
47.85933 138.000
47.87928 140.000
47.89923 146.000
47.91917 133.000
47.93912 125.000
47.95907 136.000
47.97902 131.000
47.99896 146.000
48.01891 151.000
48.03886 172.000
48.05880 133.000
48.07875 177.000
48.09870 170.000
48.11864 168.000
48.13859 152.000
48.15854 165.000
48.17848 154.000
48.19843 175.000
48.21838 189.000
48.23833 219.000
48.25827 239.000
48.27822 220.000
48.29817 254.000
48.31811 256.000
48.33806 308.000
48.35801 329.000
48.37795 332.000
48.39790 376.000
48.41785 481.000
48.43780 514.000
48.45774 600.000
48.47769 728.000
48.49764 879.000
48.51758 1160.000
48.53753 1366.000
48.55748 1641.000
48.57742 1864.000
48.59737 1836.000
48.61732 1729.000
48.63726 1611.000
48.65721 1503.000
48.67716 1467.000
48.69711 1413.000
48.71705 1268.000
48.73700 1159.000
48.75695 1002.000
48.77689 890.000
48.79684 763.000
48.81679 570.000
48.83673 496.000
48.85668 395.000
48.87663 338.000
48.89658 301.000
48.91652 279.000
48.93647 249.000
48.95642 226.000
48.97636 230.000
48.99631 221.000
49.01626 181.000
49.03620 188.000
49.05615 181.000
49.07610 194.000
49.09605 193.000
49.11599 133.000
49.13594 153.000
49.15589 126.000
49.17583 159.000
49.19578 130.000
49.21573 135.000
49.23567 135.000
49.25562 132.000
49.27557 124.000
49.29551 121.000
49.31546 115.000
49.33541 122.000
49.35536 117.000
49.37530 118.000
49.39525 118.000
49.41520 119.000
49.43514 129.000
49.45509 110.000
49.47504 98.000
49.49498 119.000
49.51493 108.000
49.53488 96.000
49.55483 125.000
49.57477 100.000
49.59472 106.000
49.61467 114.000
49.63461 113.000
49.65456 99.000
49.67451 116.000
49.69445 121.000
49.71440 115.000
49.73435 114.000
49.75429 95.000
49.77424 97.000
49.79419 97.000
49.81414 89.000
49.83408 98.000
49.85403 108.000
49.87398 87.000
49.89392 106.000
49.91387 93.000
49.93382 100.000
49.95376 91.000
49.97371 108.000
49.99366 96.000
50.01361 107.000
50.03355 104.000
50.05350 91.000
50.07345 108.000
50.09339 86.000
50.11334 101.000
50.13329 105.000
50.15323 108.000
50.17318 95.000
50.19313 100.000
50.21307 90.000
50.23302 105.000
50.25297 94.000
50.27292 98.000
50.29286 96.000
50.31281 90.000
50.33276 97.000
50.35270 120.000
50.37265 102.000
50.39260 76.000
50.41254 102.000
50.43249 98.000
50.45244 104.000
50.47239 102.000
50.49233 101.000
50.51228 96.000
50.53223 107.000
50.55217 102.000
50.57212 92.000
50.59207 115.000
50.61201 100.000
50.63196 95.000
50.65191 87.000
50.67186 100.000
50.69180 98.000
50.71175 109.000
50.73170 92.000
50.75164 90.000
50.77159 107.000
50.79154 94.000
50.81148 88.000
50.83143 95.000
50.85138 108.000
50.87132 96.000
50.89127 92.000
50.91122 94.000
50.93117 84.000
50.95111 77.000
50.97106 95.000
50.99101 78.000
51.01095 84.000
51.03090 94.000
51.05085 85.000
51.07079 91.000
51.09074 82.000
51.11069 99.000
51.13064 85.000
51.15058 98.000
51.17053 94.000
51.19048 97.000
51.21042 97.000
51.23037 87.000
51.25032 87.000
51.27026 107.000
51.29021 108.000
51.31016 94.000
51.33010 85.000
51.35005 88.000
51.37000 96.000
51.38995 87.000
51.40989 94.000
51.42984 90.000
51.44979 86.000
51.46973 102.000
51.48968 96.000
51.50963 77.000
51.52957 87.000
51.54952 89.000
51.56947 96.000
51.58942 83.000
51.60936 88.000
51.62931 115.000
51.64926 86.000
51.66920 98.000
51.68915 94.000
51.70910 98.000
51.72904 100.000
51.74899 110.000
51.76894 93.000
51.78888 83.000
51.80883 88.000
51.82878 99.000
51.84873 99.000
51.86867 96.000
51.88862 86.000
51.90857 82.000
51.92851 89.000
51.94846 88.000
51.96841 74.000
51.98835 79.000
52.00830 101.000
52.02825 85.000
52.04820 83.000
52.06814 90.000
52.08809 106.000
52.10804 107.000
52.12798 88.000
52.14793 99.000
52.16788 91.000
52.18782 99.000
52.20777 97.000
52.22772 101.000
52.24767 82.000
52.26761 99.000
52.28756 100.000
52.30751 99.000
52.32745 72.000
52.34740 106.000
52.36735 80.000
52.38729 100.000
52.40724 81.000
52.42719 87.000
52.44713 87.000
52.46708 92.000
52.48703 83.000
52.50698 85.000
52.52692 77.000
52.54687 95.000
52.56682 94.000
52.58676 93.000
52.60671 90.000
52.62666 108.000
52.64660 86.000
52.66655 92.000
52.68650 97.000
52.70645 90.000
52.72639 85.000
52.74634 95.000
52.76629 107.000
52.78623 86.000
52.80618 82.000
52.82613 101.000
52.84607 93.000
52.86602 91.000
52.88597 93.000
52.90591 74.000
52.92586 86.000
52.94581 95.000
52.96576 109.000
52.98570 81.000
53.00565 94.000
53.02560 77.000
53.04554 89.000
53.06549 99.000
53.08544 104.000
53.10538 107.000
53.12533 95.000
53.14528 83.000
53.16523 88.000
53.18517 91.000
53.20512 98.000
53.22507 93.000
53.24501 99.000
53.26496 105.000
53.28491 103.000
53.30485 94.000
53.32480 96.000
53.34475 107.000
53.36469 105.000
53.38464 105.000
53.40459 101.000
53.42454 99.000
53.44448 99.000
53.46443 92.000
53.48438 101.000
53.50432 116.000
53.52427 102.000
53.54422 107.000
53.56416 96.000
53.58411 113.000
53.60406 108.000
53.62401 86.000
53.64395 91.000
53.66390 94.000
53.68385 101.000
53.70379 101.000
53.72374 93.000
53.74369 78.000
53.76363 81.000
53.78358 74.000
53.80353 91.000
53.82348 90.000
53.84342 92.000
53.86337 72.000
53.88332 98.000
53.90326 101.000
53.92321 100.000
53.94316 88.000
53.96310 93.000
53.98305 91.000
54.00300 90.000
54.02294 91.000
54.04289 94.000
54.06284 80.000
54.08279 78.000
54.10273 112.000
54.12268 112.000
54.14263 76.000
54.16257 79.000
54.18252 83.000
54.20247 83.000
54.22241 95.000
54.24236 87.000
54.26231 110.000
54.28226 86.000
54.30220 90.000
54.32215 95.000
54.34210 94.000
54.36204 102.000
54.38199 98.000
54.40194 92.000
54.42188 92.000
54.44183 109.000
54.46178 92.000
54.48172 95.000
54.50167 98.000
54.52162 96.000
54.54157 93.000
54.56151 88.000
54.58146 105.000
54.60141 75.000
54.62135 103.000
54.64130 98.000
54.66125 85.000
54.68119 97.000
54.70114 81.000
54.72109 81.000
54.74104 91.000
54.76098 80.000
54.78093 97.000
54.80088 87.000
54.82082 64.000
54.84077 89.000
54.86072 82.000
54.88066 100.000
54.90061 98.000
54.92056 115.000
54.94050 77.000
54.96045 95.000
54.98040 63.000
55.00035 97.000
55.02029 102.000
55.04024 76.000
55.06019 85.000
55.08013 96.000
55.10008 78.000
55.12003 92.000
55.13997 98.000
55.15992 96.000
55.17987 80.000
55.19982 101.000
55.21976 78.000
55.23971 92.000
55.25966 100.000
55.27960 91.000
55.29955 87.000
55.31950 108.000
55.33944 87.000
55.35939 89.000
55.37934 89.000
55.39929 76.000
55.41923 96.000
55.43918 73.000
55.45913 84.000
55.47907 77.000
55.49902 89.000
55.51897 95.000
55.53891 87.000
55.55886 77.000
55.57881 88.000
55.59875 86.000
55.61870 87.000
55.63865 94.000
55.65860 94.000
55.67854 85.000
55.69849 84.000
55.71844 80.000
55.73838 86.000
55.75833 100.000
55.77828 83.000
55.79822 75.000
55.81817 85.000
55.83812 97.000
55.85807 85.000
55.87801 96.000
55.89796 81.000
55.91791 102.000
55.93785 88.000
55.95780 100.000
55.97775 67.000
55.99769 94.000
56.01764 107.000
56.03759 105.000
56.05753 95.000
56.07748 88.000
56.09743 78.000
56.11738 84.000
56.13732 101.000
56.15727 110.000
56.17722 82.000
56.19716 83.000
56.21711 110.000
56.23706 98.000
56.25700 96.000
56.27695 102.000
56.29690 102.000
56.31685 84.000
56.33679 84.000
56.35674 78.000
56.37669 96.000
56.39663 100.000
56.41658 91.000
56.43653 71.000
56.45647 93.000
56.47642 95.000
56.49637 103.000
56.51631 98.000
56.53626 131.000
56.55621 102.000
56.57616 101.000
56.59610 89.000
56.61605 98.000
56.63600 86.000
56.65594 90.000
56.67589 96.000
56.69584 104.000
56.71578 116.000
56.73573 106.000
56.75568 103.000
56.77563 101.000
56.79557 110.000
56.81552 88.000
56.83547 89.000
56.85541 96.000
56.87536 95.000
56.89531 99.000
56.91525 93.000
56.93520 102.000
56.95515 97.000
56.97510 103.000
56.99504 107.000
57.01499 111.000
57.03494 109.000
57.05488 88.000
57.07483 122.000
57.09478 120.000
57.11472 107.000
57.13467 103.000
57.15462 123.000
57.17456 113.000
57.19451 122.000
57.21446 106.000
57.23441 102.000
57.25435 100.000
57.27430 108.000
57.29425 116.000
57.31419 108.000
57.33414 107.000
57.35409 93.000
57.37403 87.000
57.39398 75.000
57.41393 115.000
57.43388 91.000
57.45382 99.000
57.47377 97.000
57.49372 92.000
57.51366 124.000
57.53361 90.000
57.55356 93.000
57.57350 86.000
57.59345 111.000
57.61340 98.000
57.63334 91.000
57.65329 88.000
57.67324 101.000
57.69319 92.000
57.71313 93.000
57.73308 100.000
57.75303 87.000
57.77297 86.000
57.79292 82.000
57.81287 77.000
57.83281 89.000
57.85276 96.000
57.87271 103.000
57.89266 97.000
57.91260 75.000
57.93255 84.000
57.95250 96.000
57.97244 96.000
57.99239 94.000
58.01234 95.000
58.03228 99.000
58.05223 124.000
58.07218 92.000
58.09212 103.000
58.11207 112.000
58.13202 85.000
58.15197 106.000
58.17191 90.000
58.19186 127.000
58.21181 123.000
58.23175 106.000
58.25170 120.000
58.27165 127.000
58.29159 89.000
58.31154 90.000
58.33149 100.000
58.35144 125.000
58.37138 93.000
58.39133 100.000
58.41128 89.000
58.43122 85.000
58.45117 97.000
58.47112 98.000
58.49106 98.000
58.51101 96.000
58.53096 82.000
58.55090 97.000
58.57085 91.000
58.59080 96.000
58.61075 89.000
58.63069 87.000
58.65064 90.000
58.67059 95.000
58.69053 96.000
58.71048 104.000
58.73043 100.000
58.75037 110.000
58.77032 81.000
58.79027 120.000
58.81022 96.000
58.83016 101.000
58.85011 93.000
58.87006 85.000
58.89000 118.000
58.90995 101.000
58.92990 98.000
58.94984 89.000
58.96979 107.000
58.98974 94.000
59.00969 110.000
59.02963 101.000
59.04958 87.000
59.06953 103.000
59.08947 91.000
59.10942 92.000
59.12937 102.000
59.14931 91.000
59.16926 108.000
59.18921 84.000
59.20915 111.000
59.22910 90.000
59.24905 91.000
59.26900 99.000
59.28894 101.000
59.30889 106.000
59.32884 99.000
59.34878 109.000
59.36873 93.000
59.38868 94.000
59.40862 105.000
59.42857 99.000
59.44852 90.000
59.46847 85.000
59.48841 101.000
59.50836 84.000
59.52831 99.000
59.54825 103.000
59.56820 87.000
59.58815 110.000
59.60809 98.000
59.62804 100.000
59.64799 89.000
59.66793 107.000
59.68788 100.000
59.70783 114.000
59.72778 88.000
59.74772 83.000
59.76767 89.000
59.78762 107.000
59.80756 92.000
59.82751 89.000
59.84746 100.000
59.86740 97.000
59.88735 94.000
59.90730 98.000
59.92725 101.000
59.94719 107.000
59.96714 111.000
59.98709 81.000
60.00703 97.000
60.02698 104.000
60.04693 107.000
60.06687 107.000
60.08682 107.000
60.10677 103.000
60.12671 89.000
60.14666 104.000
60.16661 105.000
60.18656 108.000
60.20650 90.000
60.22645 95.000
60.24640 89.000
60.26634 96.000
60.28629 87.000
60.30624 96.000
60.32618 100.000
60.34613 86.000
60.36608 109.000
60.38603 108.000
60.40597 87.000
60.42592 101.000
60.44587 101.000
60.46581 102.000
60.48576 110.000
60.50571 102.000
60.52565 113.000
60.54560 97.000
60.56555 102.000
60.58550 113.000
60.60544 109.000
60.62539 109.000
60.64534 104.000
60.66528 109.000
60.68523 101.000
60.70518 96.000
60.72512 117.000
60.74507 115.000
60.76502 101.000
60.78496 114.000
60.80491 95.000
60.82486 129.000
60.84481 107.000
60.86475 101.000
60.88470 108.000
60.90465 103.000
60.92459 102.000
60.94454 116.000
60.96449 110.000
60.98443 101.000
61.00438 115.000
61.02433 110.000
61.04428 100.000
61.06422 92.000
61.08417 113.000
61.10412 123.000
61.12406 120.000
61.14401 112.000
61.16396 128.000
61.18390 116.000
61.20385 154.000
61.22380 148.000
61.24374 137.000
61.26369 148.000
61.28364 174.000
61.30359 139.000
61.32353 166.000
61.34348 178.000
61.36343 195.000
61.38337 172.000
61.40332 193.000
61.42327 198.000
61.44321 215.000
61.46316 212.000
61.48311 238.000
61.50306 274.000
61.52300 319.000
61.54295 358.000
61.56290 418.000
61.58284 432.000
61.60279 548.000
61.62274 586.000
61.64268 619.000
61.66263 778.000
61.68258 701.000
61.70252 723.000
61.72247 679.000
61.74242 711.000
61.76237 622.000
61.78231 601.000
61.80226 589.000
61.82221 600.000
61.84215 540.000
61.86210 546.000
61.88205 490.000
61.90199 422.000
61.92194 390.000
61.94189 374.000
61.96184 300.000
61.98178 268.000
62.00173 261.000
62.02168 249.000
62.04162 218.000
62.06157 178.000
62.08152 178.000
62.10146 179.000
62.12141 148.000
62.14136 147.000
62.16131 170.000
62.18125 129.000
62.20120 149.000
62.22115 136.000
62.24109 137.000
62.26104 136.000
62.28099 129.000
62.30093 125.000
62.32088 138.000
62.34083 106.000
62.36077 125.000
62.38072 119.000
62.40067 146.000
62.42062 121.000
62.44056 138.000
62.46051 130.000
62.48046 103.000
62.50040 110.000
62.52035 118.000
62.54030 131.000
62.56024 104.000
62.58019 120.000
62.60014 125.000
62.62009 124.000
62.64003 121.000
62.65998 117.000
62.67993 145.000
62.69987 146.000
62.71982 126.000
62.73977 142.000
62.75971 148.000
62.77966 132.000
62.79961 141.000
62.81955 116.000
62.83950 112.000
62.85945 129.000
62.87940 109.000
62.89934 131.000
62.91929 101.000
62.93924 120.000
62.95918 109.000
62.97913 116.000
62.99908 117.000
63.01902 108.000
63.03897 109.000
63.05892 121.000
63.07887 114.000
63.09881 123.000
63.11876 94.000
63.13871 126.000
63.15865 126.000
63.17860 112.000
63.19855 115.000
63.21849 105.000
63.23844 97.000
63.25839 96.000
63.27833 85.000
63.29828 122.000
63.31823 107.000
63.33818 109.000
63.35812 98.000
63.37807 107.000
63.39802 89.000
63.41796 90.000
63.43791 98.000
63.45786 86.000
63.47780 92.000
63.49775 80.000
63.51770 122.000
63.53765 93.000
63.55759 93.000
63.57754 105.000
63.59749 98.000
63.61743 104.000
63.63738 106.000
63.65733 107.000
63.67727 114.000
63.69722 108.000
63.71717 115.000
63.73712 111.000
63.75706 106.000
63.77701 114.000
63.79696 94.000
63.81690 109.000
63.83685 104.000
63.85680 117.000
63.87674 102.000
63.89669 115.000
63.91664 104.000
63.93658 117.000
63.95653 125.000
63.97648 142.000
63.99643 131.000
64.01637 146.000
64.03632 154.000
64.05627 124.000
64.07621 139.000
64.09616 141.000
64.11611 175.000
64.13605 172.000
64.15600 171.000
64.17595 171.000
64.19590 222.000
64.21584 261.000
64.23579 248.000
64.25574 283.000
64.27568 329.000
64.29563 374.000
64.31558 461.000
64.33552 537.000
64.35547 595.000
64.37542 627.000
64.39536 621.000
64.41531 529.000
64.43526 541.000
64.45521 494.000
64.47515 443.000
64.49510 420.000
64.51505 415.000
64.53499 451.000
64.55494 405.000
64.57489 376.000
64.59483 333.000
64.61478 316.000
64.63473 270.000
64.65468 226.000
64.67462 226.000
64.69457 193.000
64.71452 202.000
64.73446 188.000
64.75441 133.000
64.77436 146.000
64.79430 132.000
64.81425 126.000
64.83420 120.000
64.85414 146.000
64.87409 120.000
64.89404 125.000
64.91399 108.000
64.93393 134.000
64.95388 117.000
64.97383 126.000
64.99377 91.000
65.01372 92.000
65.03367 121.000
65.05361 108.000
65.07356 101.000
65.09351 99.000
65.11346 96.000
65.13340 113.000
65.15335 102.000
65.17330 88.000
65.19324 114.000
65.21319 106.000
65.23314 110.000
65.25308 101.000
65.27303 91.000
65.29298 106.000
65.31293 111.000
65.33287 115.000
65.35282 99.000
65.37277 106.000
65.39271 119.000
65.41266 91.000
65.43261 111.000
65.45255 112.000
65.47250 107.000
65.49245 85.000
65.51239 95.000
65.53234 99.000
65.55229 94.000
65.57224 97.000
65.59218 133.000
65.61213 107.000
65.63208 116.000
65.65202 110.000
65.67197 95.000
65.69192 118.000
65.71186 121.000
65.73181 96.000
65.75176 110.000
65.77171 105.000
65.79165 101.000
65.81160 115.000
65.83155 118.000
65.85149 119.000
65.87144 118.000
65.89139 104.000
65.91133 109.000
65.93128 118.000
65.95123 115.000
65.97117 110.000
65.99112 129.000
66.01107 114.000
66.03102 124.000
66.05096 108.000
66.07091 110.000
66.09086 129.000
66.11080 150.000
66.13075 137.000
66.15070 155.000
66.17064 148.000
66.19059 168.000
66.21054 174.000
66.23049 196.000
66.25043 187.000
66.27038 223.000
66.29033 219.000
66.31027 206.000
66.33022 226.000
66.35017 227.000
66.37011 223.000
66.39006 202.000
66.41001 235.000
66.42995 201.000
66.44990 186.000
66.46985 203.000
66.48980 206.000
66.50974 221.000
66.52969 211.000
66.54964 225.000
66.56958 220.000
66.58953 244.000
66.60948 283.000
66.62942 294.000
66.64937 325.000
66.66932 367.000
66.68927 423.000
66.70921 425.000
66.72916 450.000
66.74911 455.000
66.76905 433.000
66.78900 378.000
66.80895 342.000
66.82889 354.000
66.84884 358.000
66.86879 328.000
66.88874 322.000
66.90868 300.000
66.92863 312.000
66.94858 297.000
66.96852 278.000
66.98847 254.000
67.00842 199.000
67.02836 196.000
67.04831 157.000
67.06826 145.000
67.08820 169.000
67.10815 129.000
67.12810 144.000
67.14805 139.000
67.16799 97.000
67.18794 113.000
67.20789 126.000
67.22783 114.000
67.24778 109.000
67.26773 107.000
67.28767 115.000
67.30762 116.000
67.32757 119.000
67.34752 105.000
67.36746 99.000
67.38741 102.000
67.40736 106.000
67.42730 109.000
67.44725 89.000
67.46720 94.000
67.48714 99.000
67.50709 101.000
67.52704 91.000
67.54698 128.000
67.56693 114.000
67.58688 91.000
67.60683 100.000
67.62677 93.000
67.64672 95.000
67.66667 84.000
67.68661 95.000
67.70656 118.000
67.72651 83.000
67.74645 114.000
67.76640 86.000
67.78635 103.000
67.80630 108.000
67.82624 97.000
67.84619 93.000
67.86614 113.000
67.88608 100.000
67.90603 113.000
67.92598 89.000
67.94592 125.000
67.96587 100.000
67.98582 103.000
68.00576 105.000
68.02571 118.000
68.04566 103.000
68.06561 100.000
68.08555 96.000
68.10550 99.000
68.12545 114.000
68.14539 103.000
68.16534 95.000
68.18529 121.000
68.20523 115.000
68.22518 99.000
68.24513 95.000
68.26508 109.000
68.28502 83.000
68.30497 110.000
68.32492 102.000
68.34486 92.000
68.36481 91.000
68.38476 96.000
68.40470 92.000
68.42465 102.000
68.44460 101.000
68.46455 98.000
68.48449 114.000
68.50444 87.000
68.52439 80.000
68.54433 87.000
68.56428 99.000
68.58423 108.000
68.60417 73.000
68.62412 94.000
68.64407 88.000
68.66401 68.000
68.68396 107.000
68.70391 88.000
68.72386 91.000
68.74380 81.000
68.76375 98.000
68.78370 98.000
68.80364 87.000
68.82359 86.000
68.84354 93.000
68.86348 96.000
68.88343 72.000
68.90338 116.000
68.92333 94.000
68.94327 107.000
68.96322 101.000
68.98317 86.000
69.00311 90.000
69.02306 74.000
69.04301 86.000
69.06295 110.000
69.08290 100.000
69.10285 97.000
69.12279 83.000
69.14274 91.000
69.16269 110.000
69.18264 85.000
69.20258 86.000
69.22253 99.000
69.24248 87.000
69.26242 104.000
69.28237 103.000
69.30232 89.000
69.32226 89.000
69.34221 97.000
69.36216 114.000
69.38211 98.000
69.40205 96.000
69.42200 89.000
69.44195 92.000
69.46189 105.000
69.48184 94.000
69.50179 97.000
69.52173 109.000
69.54168 89.000
69.56163 103.000
69.58157 83.000
69.60152 88.000
69.62147 100.000
69.64142 96.000
69.66136 93.000
69.68131 83.000
69.70126 96.000
69.72120 78.000
69.74115 93.000
69.76110 91.000
69.78104 70.000
69.80099 91.000
69.82094 84.000
69.84089 76.000
69.86083 87.000
69.88078 109.000
69.90073 70.000
69.92067 82.000
69.94062 101.000
69.96057 81.000
69.98051 109.000
70.00046 75.000
70.02041 89.000
70.04035 77.000
70.06030 96.000
70.08025 80.000
70.10020 86.000
70.12014 96.000
70.14009 95.000
70.16004 74.000
70.17998 74.000
70.19993 90.000
70.21988 78.000
70.23982 78.000
70.25977 92.000
70.27972 68.000
70.29967 78.000
70.31961 82.000
70.33956 95.000
70.35951 83.000
70.37945 86.000
70.39940 72.000
70.41935 83.000
70.43929 104.000
70.45924 69.000
70.47919 96.000
70.49914 71.000
70.51908 85.000
70.53903 93.000
70.55898 104.000
70.57892 94.000
70.59887 81.000
70.61882 85.000
70.63876 82.000
70.65871 92.000
70.67866 102.000
70.69860 108.000
70.71855 86.000
70.73850 78.000
70.75845 80.000
70.77839 78.000
70.79834 104.000
70.81829 88.000
70.83823 83.000
70.85818 102.000
70.87813 87.000
70.89807 103.000
70.91802 88.000
70.93797 71.000
70.95792 92.000
70.97786 87.000
70.99781 81.000
71.01776 96.000
71.03770 77.000
71.05765 88.000
71.07760 79.000
71.09754 103.000
71.11749 105.000
71.13744 109.000
71.15738 78.000
71.17733 109.000
71.19728 93.000
71.21723 98.000
71.23717 96.000
71.25712 77.000
71.27707 101.000
71.29701 99.000
71.31696 95.000
71.33691 87.000
71.35685 81.000
71.37680 95.000
71.39675 86.000
71.41670 72.000
71.43664 101.000
71.45659 93.000
71.47654 110.000
71.49648 98.000
71.51643 80.000
71.53638 108.000
71.55632 83.000
71.57627 103.000
71.59622 93.000
71.61616 98.000
71.63611 96.000
71.65606 73.000
71.67601 85.000
71.69595 91.000
71.71590 89.000
71.73585 105.000
71.75579 85.000
71.77574 94.000
71.79569 70.000
71.81563 98.000
71.83558 95.000
71.85553 85.000
71.87548 85.000
71.89542 91.000
71.91537 95.000
71.93532 98.000
71.95526 82.000
71.97521 110.000
71.99516 98.000
72.01510 97.000
72.03505 91.000
72.05500 84.000
72.07495 78.000
72.09489 97.000
72.11484 90.000
72.13479 100.000
72.15473 91.000
72.17468 91.000
72.19463 94.000
72.21457 100.000
72.23452 79.000
72.25447 82.000
72.27441 93.000
72.29436 85.000
72.31431 100.000
72.33426 103.000
72.35420 89.000
72.37415 99.000
72.39410 95.000
72.41404 93.000
72.43399 90.000
72.45394 93.000
72.47388 100.000
72.49383 103.000
72.51378 92.000
72.53373 99.000
72.55367 84.000
72.57362 87.000
72.59357 99.000
72.61351 90.000
72.63346 89.000
72.65341 108.000
72.67335 96.000
72.69330 86.000
72.71325 94.000
72.73319 91.000
72.75314 86.000
72.77309 104.000
72.79304 82.000
72.81298 80.000
72.83293 92.000
72.85288 89.000
72.87282 107.000
72.89277 92.000
72.91272 104.000
72.93266 105.000
72.95261 85.000
72.97256 95.000
72.99251 93.000
73.01245 90.000
73.03240 105.000
73.05235 94.000
73.07229 110.000
73.09224 101.000
73.11219 105.000
73.13213 102.000
73.15208 95.000
73.17203 70.000
73.19197 111.000
73.21192 124.000
73.23187 112.000
73.25182 106.000
73.27176 103.000
73.29171 112.000
73.31166 98.000
73.33160 114.000
73.35155 128.000
73.37150 123.000
73.39144 137.000
73.41139 148.000
73.43134 141.000
73.45129 162.000
73.47123 180.000
73.49118 175.000
73.51113 204.000
73.53107 226.000
73.55102 239.000
73.57097 225.000
73.59091 255.000
73.61086 237.000
73.63081 230.000
73.65076 202.000
73.67070 169.000
73.69065 182.000
73.71060 173.000
73.73054 191.000
73.75049 185.000
73.77044 209.000
73.79038 157.000
73.81033 179.000
73.83028 165.000
73.85022 167.000
73.87017 135.000
73.89012 151.000
73.91007 130.000
73.93001 99.000
73.94996 107.000
73.96991 114.000
73.98985 94.000
74.00980 106.000
74.02975 118.000
74.04969 115.000
74.06964 103.000
74.08959 99.000
74.10954 110.000
74.12948 105.000
74.14943 95.000
74.16938 84.000
74.18932 110.000
74.20927 84.000
74.22922 102.000
74.24916 96.000
74.26911 107.000
74.28906 82.000
74.30900 108.000
74.32895 84.000
74.34890 92.000
74.36885 89.000
74.38879 105.000
74.40874 82.000
74.42869 82.000
74.44863 98.000
74.46858 112.000
74.48853 101.000
74.50847 108.000
74.52842 84.000
74.54837 103.000
74.56832 87.000
74.58826 81.000
74.60821 89.000
74.62816 81.000
74.64810 73.000
74.66805 89.000
74.68800 96.000
74.70794 101.000
74.72789 92.000
74.74784 95.000
74.76778 90.000
74.78773 99.000
74.80768 96.000
74.82763 104.000
74.84757 105.000
74.86752 92.000
74.88747 100.000
74.90741 87.000
74.92736 117.000
74.94731 97.000
74.96725 95.000
74.98720 100.000
75.00715 122.000
75.02710 88.000
75.04704 74.000
75.06699 87.000
75.08694 90.000
75.10688 99.000
75.12683 95.000
75.14678 110.000
75.16672 106.000
75.18667 103.000
75.20662 96.000
75.22657 88.000
75.24651 95.000
75.26646 101.000
75.28641 99.000
75.30635 108.000
75.32630 84.000
75.34625 124.000
75.36619 113.000
75.38614 99.000
75.40609 117.000
75.42603 110.000
75.44598 115.000
75.46593 116.000
75.48588 86.000
75.50582 96.000
75.52577 89.000
75.54572 110.000
75.56566 105.000
75.58561 102.000
75.60556 98.000
75.62550 105.000
75.64545 110.000
75.66540 101.000
75.68535 98.000
75.70529 105.000
75.72524 104.000
75.74519 111.000
75.76513 107.000
75.78508 116.000
75.80503 105.000
75.82497 128.000
75.84492 124.000
75.86487 136.000
75.88481 133.000
75.90476 142.000
75.92471 171.000
75.94466 123.000
75.96460 142.000
75.98455 141.000
76.00450 140.000
76.02444 150.000
76.04439 146.000
76.06434 118.000
76.08428 136.000
76.10423 145.000
76.12418 123.000
76.14413 152.000
76.16407 124.000
76.18402 126.000
76.20397 125.000
76.22391 120.000
76.24386 97.000
76.26381 106.000
76.28375 86.000
76.30370 106.000
76.32365 109.000
76.34359 97.000
76.36354 120.000
76.38349 104.000
76.40344 108.000
76.42338 98.000
76.44333 98.000
76.46328 90.000
76.48322 111.000
76.50317 105.000
76.52312 96.000
76.54306 95.000
76.56301 84.000
76.58296 99.000
76.60291 100.000
76.62285 87.000
76.64280 95.000
76.66275 95.000
76.68269 90.000
76.70264 105.000
76.72259 102.000
76.74253 104.000
76.76248 88.000
76.78243 94.000
76.80238 96.000
76.82232 82.000
76.84227 99.000
76.86222 110.000
76.88216 93.000
76.90211 87.000
76.92206 94.000
76.94200 104.000
76.96195 90.000
76.98190 98.000
77.00184 108.000
77.02179 95.000
77.04174 117.000
77.06169 102.000
77.08163 89.000
77.10158 124.000
77.12153 91.000
77.14147 102.000
77.16142 98.000
77.18137 116.000
77.20131 92.000
77.22126 114.000
77.24121 110.000
77.26116 113.000
77.28110 121.000
77.30105 92.000
77.32100 103.000
77.34094 104.000
77.36089 98.000
77.38084 115.000
77.40078 131.000
77.42073 119.000
77.44068 121.000
77.46062 118.000
77.48057 123.000
77.50052 158.000
77.52047 124.000
77.54041 129.000
77.56036 163.000
77.58031 172.000
77.60025 184.000
77.62020 215.000
77.64015 223.000
77.66009 200.000
77.68004 237.000
77.69999 225.000
77.71994 234.000
77.73988 274.000
77.75983 252.000
77.77978 249.000
77.79972 233.000
77.81967 257.000
77.83962 230.000
77.85956 200.000
77.87951 200.000
77.89946 213.000
77.91940 233.000
77.93935 248.000
77.95930 229.000
77.97925 228.000
77.99919 254.000
78.01914 233.000
78.03909 237.000
78.05903 272.000
78.07898 293.000
78.09893 291.000
78.11887 248.000
78.13882 280.000
78.15877 277.000
78.17872 243.000
78.19866 255.000
78.21861 216.000
78.23856 244.000
78.25850 221.000
78.27845 223.000
78.29840 202.000
78.31834 183.000
78.33829 193.000
78.35824 181.000
78.37819 190.000
78.39813 169.000
78.41808 169.000
78.43803 148.000
78.45797 162.000
78.47792 166.000
78.49787 136.000
78.51781 129.000
78.53776 114.000
78.55771 115.000
78.57765 112.000
78.59760 119.000
78.61755 98.000
78.63750 81.000
78.65744 109.000
78.67739 90.000
78.69734 90.000
78.71728 96.000
78.73723 125.000
78.75718 91.000
78.77712 98.000
78.79707 98.000
78.81702 92.000
78.83697 107.000
78.85691 117.000
78.87686 98.000
78.89681 89.000
78.91675 90.000
78.93670 83.000
78.95665 109.000
78.97659 95.000
78.99654 97.000
79.01649 94.000
79.03643 94.000
79.05638 89.000
79.07633 80.000
79.09628 98.000
79.11622 94.000
79.13617 98.000
79.15612 94.000
79.17606 88.000
79.19601 100.000
79.21596 95.000
79.23590 100.000
79.25585 102.000
79.27580 87.000
79.29575 80.000
79.31569 104.000
79.33564 85.000
79.35559 79.000
79.37553 98.000
79.39548 81.000
79.41543 114.000
79.43537 99.000
79.45532 108.000
79.47527 102.000
79.49521 97.000
79.51516 89.000
79.53511 87.000
79.55506 80.000
79.57500 96.000
79.59495 88.000
79.61490 89.000
79.63484 83.000
79.65479 87.000
79.67474 77.000
79.69468 96.000
79.71463 79.000
79.73458 94.000
79.75453 90.000
79.77447 86.000
79.79442 105.000
79.81437 96.000
79.83431 80.000
79.85426 90.000
79.87421 94.000
79.89415 97.000
79.91410 88.000
79.93405 89.000
79.95399 76.000
79.97394 98.000
79.99389 88.000
80.01384 90.000
80.03378 76.000
80.05373 89.000
80.07368 80.000
80.09362 92.000
80.11357 90.000
80.13352 83.000
80.15346 90.000
80.17341 92.000
80.19336 93.000
80.21331 99.000
80.23325 88.000
80.25320 99.000
80.27315 97.000
80.29309 94.000
80.31304 112.000
80.33299 96.000
80.35293 112.000
80.37288 95.000
80.39283 85.000
80.41278 102.000
80.43272 81.000
80.45267 81.000
80.47262 102.000
80.49256 91.000
80.51251 110.000
80.53246 87.000
80.55240 88.000
80.57235 92.000
80.59230 89.000
80.61224 76.000
80.63219 95.000
80.65214 99.000
80.67209 79.000
80.69203 105.000
80.71198 99.000
80.73193 105.000
80.75187 103.000
80.77182 102.000
80.79177 98.000
80.81171 112.000
80.83166 117.000
80.85161 100.000
80.87156 91.000
80.89150 120.000
80.91145 102.000
80.93140 112.000
80.95134 91.000
80.97129 106.000
80.99124 90.000
81.01118 107.000
81.03113 92.000
81.05108 98.000
81.07102 98.000
81.09097 91.000
81.11092 102.000
81.13087 107.000
81.15081 88.000
81.17076 81.000
81.19071 97.000
81.21065 114.000
81.23060 107.000
81.25055 94.000
81.27049 89.000
81.29044 92.000
81.31039 76.000
81.33034 90.000
81.35028 99.000
81.37023 91.000
81.39018 76.000
81.41012 88.000
81.43007 78.000
81.45002 85.000
81.46996 79.000
81.48991 92.000
81.50986 89.000
81.52980 80.000
81.54975 70.000
81.56970 74.000
81.58965 83.000
81.60959 95.000
81.62954 79.000
81.64949 115.000
81.66943 71.000
81.68938 94.000
81.70933 103.000
81.72927 96.000
81.74922 87.000
81.76917 97.000
81.78912 81.000
81.80906 88.000
81.82901 78.000
81.84896 84.000
81.86890 86.000
81.88885 79.000
81.90880 112.000
81.92874 82.000
81.94869 77.000
81.96864 106.000
81.98859 100.000
82.00853 79.000
82.02848 75.000
82.04843 78.000
82.06837 80.000
82.08832 86.000
82.10827 80.000
82.12821 79.000
82.14816 72.000
82.16811 86.000
82.18805 95.000
82.20800 89.000
82.22795 82.000
82.24790 84.000
82.26784 107.000
82.28779 88.000
82.30774 78.000
82.32768 88.000
82.34763 92.000
82.36758 80.000
82.38752 93.000
82.40747 92.000
82.42742 73.000
82.44737 74.000
82.46731 96.000
82.48726 83.000
82.50721 88.000
82.52715 91.000
82.54710 92.000
82.56705 84.000
82.58699 98.000
82.60694 96.000
82.62689 103.000
82.64683 93.000
82.66678 87.000
82.68673 79.000
82.70668 114.000
82.72662 100.000
82.74657 84.000
82.76652 74.000
82.78646 96.000
82.80641 81.000
82.82636 91.000
82.84630 83.000
82.86625 90.000
82.88620 79.000
82.90615 87.000
82.92609 87.000
82.94604 88.000
82.96599 91.000
82.98593 104.000
83.00588 91.000
83.02583 89.000
83.04577 80.000
83.06572 73.000
83.08567 91.000
83.10561 102.000
83.12556 121.000
83.14551 90.000
83.16546 90.000
83.18540 82.000
83.20535 96.000
83.22530 91.000
83.24524 84.000
83.26519 90.000
83.28514 78.000
83.30508 89.000
83.32503 90.000
83.34498 97.000
83.36493 94.000
83.38487 91.000
83.40482 74.000
83.42477 79.000
83.44471 84.000
83.46466 86.000
83.48461 77.000
83.50455 77.000
83.52450 79.000
83.54445 93.000
83.56440 95.000
83.58434 110.000
83.60429 92.000
83.62424 94.000
83.64418 97.000
83.66413 94.000
83.68408 102.000
83.70402 97.000
83.72397 104.000
83.74392 95.000
83.76386 82.000
83.78381 87.000
83.80376 85.000
83.82371 86.000
83.84365 87.000
83.86360 95.000
83.88355 101.000
83.90349 101.000
83.92344 93.000
83.94339 105.000
83.96333 100.000
83.98328 112.000
84.00323 110.000
84.02318 99.000
84.04312 92.000
84.06307 95.000
84.08302 102.000
84.10296 85.000
84.12291 113.000
84.14286 112.000
84.16280 93.000
84.18275 106.000
84.20270 109.000
84.22264 109.000
84.24259 91.000
84.26254 112.000
84.28249 102.000
84.30243 107.000
84.32238 124.000
84.34233 114.000
84.36227 118.000
84.38222 132.000
84.40217 126.000
84.42211 149.000
84.44206 153.000
84.46201 151.000
84.48196 132.000
84.50190 177.000
84.52185 186.000
84.54180 210.000
84.56174 206.000
84.58169 226.000
84.60164 210.000
84.62158 265.000
84.64153 266.000
84.66148 235.000
84.68142 248.000
84.70137 209.000
84.72132 212.000
84.74127 203.000
84.76121 185.000
84.78116 199.000
84.80111 202.000
84.82105 176.000
84.84100 158.000
84.86095 185.000
84.88089 189.000
84.90084 199.000
84.92079 171.000
84.94074 197.000
84.96068 149.000
84.98063 154.000
85.00058 167.000
85.02052 149.000
85.04047 116.000
85.06042 113.000
85.08036 121.000
85.10031 130.000
85.12026 117.000
85.14021 112.000
85.16015 118.000
85.18010 98.000
85.20005 91.000
85.21999 114.000
85.23994 109.000
85.25989 94.000
85.27983 88.000
85.29978 86.000
85.31973 104.000
85.33967 81.000
85.35962 95.000
85.37957 96.000
85.39952 86.000
85.41946 93.000
85.43941 81.000
85.45936 72.000
85.47930 80.000
85.49925 103.000
85.51920 97.000
85.53914 95.000
85.55909 91.000
85.57904 99.000
85.59899 82.000
85.61893 83.000
85.63888 90.000
85.65883 81.000
85.67877 86.000
85.69872 96.000
85.71867 76.000
85.73861 91.000
85.75856 81.000
85.77851 86.000
85.79845 93.000
85.81840 82.000
85.83835 101.000
85.85830 92.000
85.87824 94.000
85.89819 82.000
85.91814 94.000
85.93808 84.000
85.95803 70.000
85.97798 108.000
85.99792 83.000
86.01787 113.000
86.03782 114.000
86.05777 105.000
86.07771 107.000
86.09766 106.000
86.11761 101.000
86.13755 120.000
86.15750 116.000
86.17745 104.000
86.19739 120.000
86.21734 104.000
86.23729 115.000
86.25723 109.000
86.27718 95.000
86.29713 92.000
86.31708 106.000
86.33702 106.000
86.35697 100.000
86.37692 100.000
86.39686 122.000
86.41681 110.000
86.43676 94.000
86.45670 98.000
86.47665 106.000
86.49660 90.000
86.51655 112.000
86.53649 111.000
86.55644 105.000
86.57639 91.000
86.59633 86.000
86.61628 95.000
86.63623 90.000
86.65617 101.000
86.67612 89.000
86.69607 92.000
86.71602 112.000
86.73596 101.000
86.75591 101.000
86.77586 93.000
86.79580 96.000
86.81575 95.000
86.83570 106.000
86.85564 95.000
86.87559 106.000
86.89554 118.000
86.91548 108.000
86.93543 110.000
86.95538 105.000
86.97533 88.000
86.99527 99.000
87.01522 92.000
87.03517 95.000
87.05511 108.000
87.07506 119.000
87.09501 109.000
87.11495 116.000
87.13490 98.000
87.15485 105.000
87.17480 89.000
87.19474 81.000
87.21469 87.000
87.23464 108.000
87.25458 104.000
87.27453 75.000
87.29448 94.000
87.31442 89.000
87.33437 109.000
87.35432 106.000
87.37426 110.000
87.39421 88.000
87.41416 89.000
87.43411 89.000
87.45405 108.000
87.47400 93.000
87.49395 83.000
87.51389 90.000
87.53384 79.000
87.55379 96.000
87.57373 93.000
87.59368 65.000
87.61363 89.000
87.63358 83.000
87.65352 84.000
87.67347 79.000
87.69342 86.000
87.71336 86.000
87.73331 83.000
87.75326 87.000
87.77320 99.000
87.79315 90.000
87.81310 94.000
87.83304 97.000
87.85299 88.000
87.87294 105.000
87.89289 81.000
87.91283 83.000
87.93278 82.000
87.95273 89.000
87.97267 75.000
87.99262 83.000
88.01257 107.000
88.03251 79.000
88.05246 97.000
88.07241 85.000
88.09236 92.000
88.11230 86.000
88.13225 73.000
88.15220 95.000
88.17214 90.000
88.19209 84.000
88.21204 67.000
88.23198 89.000
88.25193 84.000
88.27188 98.000
88.29183 93.000
88.31177 94.000
88.33172 78.000
88.35167 76.000
88.37161 84.000
88.39156 92.000
88.41151 81.000
88.43145 83.000
88.45140 95.000
88.47135 72.000
88.49129 77.000
88.51124 77.000
88.53119 79.000
88.55114 96.000
88.57108 76.000
88.59103 97.000
88.61098 81.000
88.63092 82.000
88.65087 78.000
88.67082 97.000
88.69076 103.000
88.71071 85.000
88.73066 95.000
88.75061 76.000
88.77055 104.000
88.79050 83.000
88.81045 89.000
88.83039 94.000
88.85034 85.000
88.87029 76.000
88.89023 64.000
88.91018 86.000
88.93013 79.000
88.95007 78.000
88.97002 84.000
88.98997 102.000
89.00992 71.000
89.02986 96.000
89.04981 86.000
89.06976 87.000
89.08970 72.000
89.10965 88.000
89.12960 98.000
89.14954 78.000
89.16949 103.000
89.18944 85.000
89.20939 86.000
89.22933 77.000
89.24928 79.000
89.26923 88.000
89.28917 100.000
89.30912 75.000
89.32907 87.000
89.34901 96.000
89.36896 90.000
89.38891 80.000
89.40885 80.000
89.42880 89.000
89.44875 101.000
89.46870 97.000
89.48864 118.000
89.50859 105.000
89.52854 94.000
89.54848 98.000
89.56843 84.000
89.58838 92.000
89.60832 96.000
89.62827 98.000
89.64822 65.000
89.66817 94.000
89.68811 101.000
89.70806 110.000
89.72801 88.000
89.74795 94.000
89.76790 94.000
89.78785 75.000
89.80779 103.000
89.82774 102.000
89.84769 94.000
89.86764 97.000
89.88758 95.000
89.90753 98.000
89.92748 91.000
89.94742 83.000
89.96737 81.000
89.98732 92.000
90.00726 85.000
