10.00000 155.000
10.01995 163.000
10.03989 180.000
10.05984 147.000
10.07979 155.000
10.09973 194.000
10.11968 158.000
10.13963 163.000
10.15958 154.000
10.17952 135.000
10.19947 163.000
10.21942 150.000
10.23936 159.000
10.25931 147.000
10.27926 155.000
10.29920 158.000
10.31915 143.000
10.33910 156.000
10.35905 150.000
10.37899 126.000
10.39894 151.000
10.41889 151.000
10.43883 157.000
10.45878 166.000
10.47873 151.000
10.49867 168.000
10.51862 155.000
10.53857 158.000
10.55851 173.000
10.57846 156.000
10.59841 153.000
10.61836 152.000
10.63830 150.000
10.65825 167.000
10.67820 143.000
10.69814 161.000
10.71809 158.000
10.73804 177.000
10.75798 161.000
10.77793 160.000
10.79788 154.000
10.81783 168.000
10.83777 136.000
10.85772 142.000
10.87767 179.000
10.89761 165.000
10.91756 171.000
10.93751 147.000
10.95745 159.000
10.97740 152.000
10.99735 162.000
11.01730 160.000
11.03724 142.000
11.05719 159.000
11.07714 148.000
11.09708 155.000
11.11703 151.000
11.13698 156.000
11.15692 162.000
11.17687 149.000
11.19682 143.000
11.21676 143.000
11.23671 136.000
11.25666 153.000
11.27661 152.000
11.29655 185.000
11.31650 164.000
11.33645 149.000
11.35639 156.000
11.37634 125.000
11.39629 165.000
11.41623 163.000
11.43618 157.000
11.45613 143.000
11.47608 153.000
11.49602 175.000
11.51597 166.000
11.53592 148.000
11.55586 160.000
11.57581 178.000
11.59576 167.000
11.61570 166.000
11.63565 176.000
11.65560 141.000
11.67554 125.000
11.69549 165.000
11.71544 154.000
11.73539 170.000
11.75533 119.000
11.77528 164.000
11.79523 158.000
11.81517 154.000
11.83512 170.000
11.85507 129.000
11.87501 169.000
11.89496 174.000
11.91491 148.000
11.93486 149.000
11.95480 158.000
11.97475 172.000
11.99470 164.000
12.01464 170.000
12.03459 148.000
12.05454 143.000
12.07448 159.000
12.09443 163.000
12.11438 151.000
12.13432 156.000
12.15427 171.000
12.17422 143.000
12.19417 170.000
12.21411 137.000
12.23406 140.000
12.25401 163.000
12.27395 164.000
12.29390 153.000
12.31385 156.000
12.33379 145.000
12.35374 152.000
12.37369 141.000
12.39364 146.000
12.41358 156.000
12.43353 154.000
12.45348 170.000
12.47342 147.000
12.49337 140.000
12.51332 151.000
12.53326 173.000
12.55321 152.000
12.57316 156.000
12.59311 161.000
12.61305 153.000
12.63300 155.000
12.65295 163.000
12.67289 151.000
12.69284 161.000
12.71279 147.000
12.73273 154.000
12.75268 154.000
12.77263 167.000
12.79257 184.000
12.81252 163.000
12.83247 174.000
12.85242 156.000
12.87236 170.000
12.89231 159.000
12.91226 150.000
12.93220 156.000
12.95215 168.000
12.97210 173.000
12.99204 151.000
13.01199 159.000
13.03194 176.000
13.05189 165.000
13.07183 165.000
13.09178 161.000
13.11173 154.000
13.13167 158.000
13.15162 156.000
13.17157 136.000
13.19151 143.000
13.21146 150.000
13.23141 155.000
13.25135 149.000
13.27130 170.000
13.29125 153.000
13.31120 142.000
13.33114 152.000
13.35109 155.000
13.37104 179.000
13.39098 159.000
13.41093 169.000
13.43088 162.000
13.45082 126.000
13.47077 175.000
13.49072 204.000
13.51067 168.000
13.53061 160.000
13.55056 136.000
13.57051 164.000
13.59045 182.000
13.61040 168.000
13.63035 142.000
13.65029 153.000
13.67024 150.000
13.69019 172.000
13.71013 171.000
13.73008 168.000
13.75003 168.000
13.76998 156.000
13.78992 143.000
13.80987 172.000
13.82982 143.000
13.84976 152.000
13.86971 164.000
13.88966 138.000
13.90960 163.000
13.92955 170.000
13.94950 152.000
13.96945 151.000
13.98939 161.000
14.00934 157.000
14.02929 153.000
14.04923 151.000
14.06918 172.000
14.08913 158.000
14.10907 148.000
14.12902 164.000
14.14897 150.000
14.16892 175.000
14.18886 178.000
14.20881 185.000
14.22876 173.000
14.24870 165.000
14.26865 169.000
14.28860 175.000
14.30854 189.000
14.32849 138.000
14.34844 154.000
14.36838 163.000
14.38833 168.000
14.40828 180.000
14.42823 174.000
14.44817 158.000
14.46812 167.000
14.48807 133.000
14.50801 160.000
14.52796 182.000
14.54791 163.000
14.56785 169.000
14.58780 156.000
14.60775 160.000
14.62770 154.000
14.64764 151.000
14.66759 182.000
14.68754 187.000
14.70748 168.000
14.72743 166.000
14.74738 163.000
14.76732 155.000
14.78727 134.000
14.80722 158.000
14.82716 150.000
14.84711 151.000
14.86706 153.000
14.88701 143.000
14.90695 152.000
14.92690 177.000
14.94685 143.000
14.96679 151.000
14.98674 189.000
15.00669 156.000
15.02663 161.000
15.04658 189.000
15.06653 167.000
15.08648 194.000
15.10642 178.000
15.12637 166.000
15.14632 176.000
15.16626 163.000
15.18621 178.000
15.20616 153.000
15.22610 164.000
15.24605 175.000
15.26600 188.000
15.28594 163.000
15.30589 165.000
15.32584 163.000
15.34579 163.000
15.36573 191.000
15.38568 197.000
15.40563 164.000
15.42557 179.000
15.44552 212.000
15.46547 181.000
15.48541 165.000
15.50536 202.000
15.52531 181.000
15.54526 191.000
15.56520 214.000
15.58515 209.000
15.60510 244.000
15.62504 246.000
15.64499 251.000
15.66494 262.000
15.68488 358.000
15.70483 463.000
15.72478 621.000
15.74472 863.000
15.76467 1365.000
15.78462 1891.000
15.80457 2091.000
15.82451 2111.000
15.84446 2163.000
15.86441 1945.000
15.88435 1586.000
15.90430 1191.000
15.92425 894.000
15.94419 659.000
15.96414 527.000
15.98409 463.000
16.00404 472.000
16.02398 613.000
16.04393 691.000
16.06388 871.000
16.08382 970.000
16.10377 1170.000
16.12372 1247.000
16.14366 1464.000
16.16361 1518.000
16.18356 1592.000
16.20351 1665.000
16.22345 1728.000
16.24340 1819.000
16.26335 1886.000
16.28329 1993.000
16.30324 1994.000
16.32319 2139.000
16.34313 2170.000
16.36308 2047.000
16.38303 1975.000
16.40297 1748.000
16.42292 1325.000
16.44287 1034.000
16.46282 700.000
16.48276 559.000
16.50271 407.000
16.52266 328.000
16.54260 236.000
16.56255 234.000
16.58250 248.000
16.60244 219.000
16.62239 188.000
16.64234 194.000
16.66229 187.000
16.68223 204.000
16.70218 195.000
16.72213 180.000
16.74207 202.000
16.76202 197.000
16.78197 218.000
16.80191 201.000
16.82186 198.000
16.84181 223.000
16.86175 189.000
16.88170 188.000
16.90165 178.000
16.92160 192.000
16.94154 186.000
16.96149 151.000
16.98144 164.000
17.00138 177.000
17.02133 188.000
17.04128 178.000
17.06122 162.000
17.08117 171.000
17.10112 174.000
17.12107 178.000
17.14101 165.000
17.16096 173.000
17.18091 183.000
17.20085 170.000
17.22080 155.000
17.24075 145.000
17.26069 170.000
17.28064 182.000
17.30059 173.000
17.32053 169.000
17.34048 160.000
17.36043 165.000
17.38038 178.000
17.40032 143.000
17.42027 187.000
17.44022 145.000
17.46016 153.000
17.48011 169.000
17.50006 157.000
17.52000 143.000
17.53995 157.000
17.55990 171.000
17.57985 158.000
17.59979 170.000
17.61974 165.000
17.63969 176.000
17.65963 174.000
17.67958 167.000
17.69953 160.000
17.71947 188.000
17.73942 170.000
17.75937 158.000
17.77932 167.000
17.79926 161.000
17.81921 133.000
17.83916 157.000
17.85910 178.000
17.87905 160.000
17.89900 161.000
17.91894 158.000
17.93889 163.000
17.95884 161.000
17.97878 155.000
17.99873 120.000
18.01868 150.000
18.03863 171.000
18.05857 129.000
18.07852 187.000
18.09847 181.000
18.11841 151.000
18.13836 175.000
18.15831 167.000
18.17825 166.000
18.19820 155.000
18.21815 152.000
18.23810 187.000
18.25804 179.000
18.27799 163.000
18.29794 156.000
18.31788 175.000
18.33783 167.000
18.35778 178.000
18.37772 170.000
18.39767 169.000
18.41762 183.000
18.43756 157.000
18.45751 171.000
18.47746 147.000
18.49741 165.000
18.51735 153.000
18.53730 160.000
18.55725 155.000
18.57719 175.000
18.59714 144.000
18.61709 168.000
18.63703 161.000
18.65698 163.000
18.67693 138.000
18.69688 158.000
18.71682 147.000
18.73677 168.000
18.75672 146.000
18.77666 167.000
18.79661 158.000
18.81656 160.000
18.83650 149.000
18.85645 168.000
18.87640 169.000
18.89634 173.000
18.91629 169.000
18.93624 158.000
18.95619 169.000
18.97613 180.000
18.99608 165.000
19.01603 154.000
19.03597 162.000
19.05592 145.000
19.07587 160.000
19.09581 132.000
19.11576 163.000
19.13571 140.000
19.15566 163.000
19.17560 156.000
19.19555 157.000
19.21550 171.000
19.23544 161.000
19.25539 148.000
19.27534 174.000
19.29528 145.000
19.31523 142.000
19.33518 159.000
19.35513 165.000
19.37507 153.000
19.39502 166.000
19.41497 132.000
19.43491 155.000
19.45486 174.000
19.47481 158.000
19.49475 140.000
19.51470 159.000
19.53465 146.000
19.55459 158.000
19.57454 169.000
19.59449 171.000
19.61444 182.000
19.63438 185.000
19.65433 178.000
19.67428 179.000
19.69422 178.000
19.71417 180.000
19.73412 184.000
19.75406 154.000
19.77401 122.000
19.79396 160.000
19.81391 169.000
19.83385 160.000
19.85380 140.000
19.87375 138.000
19.89369 144.000
19.91364 173.000
19.93359 155.000
19.95353 147.000
19.97348 152.000
19.99343 164.000
20.01337 183.000
20.03332 144.000
20.05327 175.000
20.07322 151.000
20.09316 157.000
20.11311 150.000
20.13306 161.000
20.15300 160.000
20.17295 163.000
20.19290 150.000
20.21284 141.000
20.23279 157.000
20.25274 143.000
20.27269 173.000
20.29263 160.000
20.31258 154.000
20.33253 159.000
20.35247 148.000
20.37242 141.000
20.39237 174.000
20.41231 151.000
20.43226 144.000
20.45221 163.000
20.47215 168.000
20.49210 160.000
20.51205 184.000
20.53200 166.000
20.55194 139.000
20.57189 159.000
20.59184 145.000
20.61178 164.000
20.63173 156.000
20.65168 171.000
20.67162 154.000
20.69157 185.000
20.71152 157.000
20.73147 174.000
20.75141 207.000
20.77136 209.000
20.79131 243.000
20.81125 272.000
20.83120 307.000
20.85115 286.000
20.87109 330.000
20.89104 284.000
20.91099 300.000
20.93094 277.000
20.95088 279.000
20.97083 226.000
20.99078 207.000
21.01072 230.000
21.03067 186.000
21.05062 192.000
21.07056 185.000
21.09051 176.000
21.11046 149.000
21.13040 155.000
21.15035 187.000
21.17030 183.000
21.19025 158.000
21.21019 154.000
21.23014 175.000
21.25009 163.000
21.27003 160.000
21.28998 168.000
21.30993 144.000
21.32987 149.000
21.34982 134.000
21.36977 158.000
21.38972 165.000
21.40966 156.000
21.42961 168.000
21.44956 176.000
21.46950 150.000
21.48945 156.000
21.50940 145.000
21.52934 159.000
21.54929 149.000
21.56924 148.000
21.58918 146.000
21.60913 133.000
21.62908 159.000
21.64903 139.000
21.66897 142.000
21.68892 151.000
21.70887 156.000
21.72881 161.000
21.74876 162.000
21.76871 168.000
21.78865 152.000
21.80860 144.000
21.82855 154.000
21.84850 161.000
21.86844 180.000
21.88839 150.000
21.90834 153.000
21.92828 166.000
21.94823 143.000
21.96818 165.000
21.98812 161.000
22.00807 153.000
22.02802 146.000
22.04796 151.000
22.06791 145.000
22.08786 158.000
22.10781 157.000
22.12775 163.000
22.14770 145.000
22.16765 146.000
22.18759 148.000
22.20754 149.000
22.22749 139.000
22.24743 166.000
22.26738 154.000
22.28733 165.000
22.30728 167.000
22.32722 167.000
22.34717 161.000
22.36712 175.000
22.38706 157.000
22.40701 146.000
22.42696 174.000
22.44690 137.000
22.46685 189.000
22.48680 167.000
22.50675 159.000
22.52669 143.000
22.54664 171.000
22.56659 149.000
22.58653 149.000
22.60648 182.000
22.62643 139.000
22.64637 155.000
22.66632 161.000
22.68627 162.000
22.70621 154.000
22.72616 140.000
22.74611 165.000
22.76606 162.000
22.78600 160.000
22.80595 167.000
22.82590 180.000
22.84584 134.000
22.86579 150.000
22.88574 168.000
22.90568 165.000
22.92563 141.000
22.94558 173.000
22.96553 166.000
22.98547 180.000
23.00542 163.000
23.02537 162.000
23.04531 156.000
23.06526 140.000
23.08521 154.000
23.10515 145.000
23.12510 159.000
23.14505 181.000
23.16499 161.000
23.18494 175.000
23.20489 169.000
23.22484 163.000
23.24478 184.000
23.26473 150.000
23.28468 173.000
23.30462 142.000
23.32457 153.000
23.34452 145.000
23.36446 160.000
23.38441 163.000
23.40436 149.000
23.42431 164.000
23.44425 153.000
23.46420 180.000
23.48415 159.000
23.50409 150.000
23.52404 149.000
23.54399 163.000
23.56393 161.000
23.58388 159.000
23.60383 182.000
23.62377 166.000
23.64372 169.000
23.66367 140.000
23.68362 156.000
23.70356 165.000
23.72351 156.000
23.74346 167.000
23.76340 149.000
23.78335 183.000
23.80330 148.000
23.82324 187.000
23.84319 139.000
23.86314 162.000
23.88309 134.000
23.90303 185.000
23.92298 142.000
23.94293 153.000
23.96287 127.000
23.98282 146.000
24.00277 175.000
24.02271 161.000
24.04266 180.000
24.06261 155.000
24.08256 146.000
24.10250 159.000
24.12245 149.000
24.14240 181.000
24.16234 166.000
24.18229 143.000
24.20224 181.000
24.22218 163.000
24.24213 169.000
24.26208 166.000
24.28202 158.000
24.30197 150.000
24.32192 149.000
24.34187 143.000
24.36181 153.000
24.38176 151.000
24.40171 171.000
24.42165 156.000
24.44160 159.000
24.46155 161.000
24.48149 147.000
24.50144 154.000
24.52139 155.000
24.54134 148.000
24.56128 156.000
24.58123 144.000
24.60118 146.000
24.62112 169.000
24.64107 175.000
24.66102 143.000
24.68096 175.000
24.70091 159.000
24.72086 174.000
24.74080 163.000
24.76075 148.000
24.78070 158.000
24.80065 160.000
24.82059 176.000
24.84054 172.000
24.86049 153.000
24.88043 183.000
24.90038 160.000
24.92033 169.000
24.94027 170.000
24.96022 169.000
24.98017 185.000
25.00012 176.000
25.02006 198.000
25.04001 173.000
25.05996 173.000
25.07990 179.000
25.09985 155.000
25.11980 147.000
25.13974 164.000
25.15969 173.000
25.17964 165.000
25.19958 166.000
25.21953 183.000
25.23948 163.000
25.25943 165.000
25.27937 155.000
25.29932 178.000
25.31927 165.000
25.33921 145.000
25.35916 153.000
25.37911 174.000
25.39905 174.000
25.41900 174.000
25.43895 136.000
25.45890 153.000
25.47884 144.000
25.49879 152.000
25.51874 164.000
25.53868 171.000
25.55863 164.000
25.57858 158.000
25.59852 162.000
25.61847 151.000
25.63842 161.000
25.65837 195.000
25.67831 148.000
25.69826 157.000
25.71821 159.000
25.73815 160.000
25.75810 161.000
25.77805 153.000
25.79799 178.000
25.81794 172.000
25.83789 149.000
25.85783 159.000
25.87778 167.000
25.89773 150.000
25.91768 194.000
25.93762 146.000
25.95757 163.000
25.97752 171.000
25.99746 180.000
26.01741 189.000
26.03736 177.000
26.05730 161.000
26.07725 160.000
26.09720 157.000
26.11715 165.000
26.13709 169.000
26.15704 155.000
26.17699 155.000
26.19693 141.000
26.21688 167.000
26.23683 153.000
26.25677 161.000
26.27672 165.000
26.29667 165.000
26.31661 177.000
26.33656 172.000
26.35651 156.000
26.37646 159.000
26.39640 154.000
26.41635 152.000
26.43630 152.000
26.45624 184.000
26.47619 178.000
26.49614 151.000
26.51608 165.000
26.53603 154.000
26.55598 160.000
26.57593 152.000
26.59587 149.000
26.61582 167.000
26.63577 163.000
26.65571 166.000
26.67566 169.000
26.69561 163.000
26.71555 150.000
26.73550 135.000
26.75545 170.000
26.77539 157.000
26.79534 132.000
26.81529 172.000
26.83524 148.000
26.85518 163.000
26.87513 165.000
26.89508 144.000
26.91502 170.000
26.93497 171.000
26.95492 147.000
26.97486 164.000
26.99481 165.000
27.01476 159.000
27.03471 158.000
27.05465 160.000
27.07460 160.000
27.09455 144.000
27.11449 161.000
27.13444 159.000
27.15439 161.000
27.17433 172.000
27.19428 157.000
27.21423 174.000
27.23417 170.000
27.25412 163.000
27.27407 153.000
27.29402 181.000
27.31396 174.000
27.33391 186.000
27.35386 145.000
27.37380 174.000
27.39375 162.000
27.41370 168.000
27.43364 168.000
27.45359 156.000
27.47354 167.000
27.49349 166.000
27.51343 168.000
27.53338 163.000
27.55333 145.000
27.57327 146.000
27.59322 193.000
27.61317 180.000
27.63311 178.000
27.65306 151.000
27.67301 174.000
27.69296 161.000
27.71290 177.000
27.73285 176.000
27.75280 208.000
27.77274 161.000
27.79269 154.000
27.81264 167.000
27.83258 144.000
27.85253 166.000
27.87248 182.000
27.89242 155.000
27.91237 177.000
27.93232 167.000
27.95227 165.000
27.97221 160.000
27.99216 161.000
28.01211 159.000
28.03205 158.000
28.05200 147.000
28.07195 161.000
28.09189 153.000
28.11184 171.000
28.13179 168.000
28.15174 145.000
28.17168 160.000
28.19163 158.000
28.21158 176.000
28.23152 160.000
28.25147 179.000
28.27142 182.000
28.29136 146.000
28.31131 180.000
28.33126 181.000
28.35120 157.000
28.37115 174.000
28.39110 186.000
28.41105 182.000
28.43099 188.000
28.45094 185.000
28.47089 178.000
28.49083 162.000
28.51078 154.000
28.53073 166.000
28.55067 157.000
28.57062 166.000
28.59057 183.000
28.61052 161.000
28.63046 142.000
28.65041 156.000
28.67036 163.000
28.69030 183.000
28.71025 170.000
28.73020 188.000
28.75014 161.000
28.77009 161.000
28.79004 150.000
28.80998 169.000
28.82993 152.000
28.84988 173.000
28.86983 189.000
28.88977 137.000
28.90972 168.000
28.92967 168.000
28.94961 168.000
28.96956 163.000
28.98951 162.000
29.00945 168.000
29.02940 182.000
29.04935 174.000
29.06930 163.000
29.08924 189.000
29.10919 161.000
29.12914 130.000
29.14908 184.000
29.16903 186.000
29.18898 199.000
29.20892 187.000
29.22887 188.000
29.24882 187.000
29.26877 181.000
29.28871 219.000
29.30866 216.000
29.32861 233.000
29.34855 227.000
29.36850 205.000
29.38845 225.000
29.40839 220.000
29.42834 236.000
29.44829 195.000
29.46823 193.000
29.48818 206.000
29.50813 181.000
29.52808 182.000
29.54802 188.000
29.56797 183.000
29.58792 145.000
29.60786 179.000
29.62781 178.000
29.64776 180.000
29.66770 190.000
29.68765 159.000
29.70760 180.000
29.72755 180.000
29.74749 176.000
29.76744 183.000
29.78739 165.000
29.80733 152.000
29.82728 161.000
29.84723 181.000
29.86717 185.000
29.88712 154.000
29.90707 179.000
29.92701 200.000
29.94696 188.000
29.96691 182.000
29.98686 171.000
30.00680 177.000
30.02675 207.000
30.04670 193.000
30.06664 202.000
30.08659 205.000
30.10654 203.000
30.12648 197.000
30.14643 185.000
30.16638 208.000
30.18633 213.000
30.20627 216.000
30.22622 198.000
30.24617 231.000
30.26611 181.000
30.28606 186.000
30.30601 190.000
30.32595 181.000
30.34590 160.000
30.36585 193.000
30.38579 175.000
30.40574 166.000
30.42569 179.000
30.44564 177.000
30.46558 167.000
30.48553 172.000
30.50548 171.000
30.52542 141.000
30.54537 179.000
30.56532 191.000
30.58526 168.000
30.60521 181.000
30.62516 152.000
30.64511 175.000
30.66505 139.000
30.68500 163.000
30.70495 181.000
30.72489 166.000
30.74484 172.000
30.76479 163.000
30.78473 139.000
30.80468 176.000
30.82463 158.000
30.84458 173.000
30.86452 166.000
30.88447 181.000
30.90442 185.000
30.92436 157.000
30.94431 185.000
30.96426 166.000
30.98420 155.000
31.00415 173.000
31.02410 183.000
31.04404 174.000
31.06399 184.000
31.08394 162.000
31.10389 157.000
31.12383 172.000
31.14378 186.000
31.16373 195.000
31.18367 171.000
31.20362 182.000
31.22357 178.000
31.24351 144.000
31.26346 163.000
31.28341 159.000
31.30336 185.000
31.32330 170.000
31.34325 171.000
31.36320 166.000
31.38314 169.000
31.40309 169.000
31.42304 161.000
31.44298 165.000
31.46293 180.000
31.48288 176.000
31.50282 155.000
31.52277 162.000
31.54272 151.000
31.56267 181.000
31.58261 177.000
31.60256 146.000
31.62251 185.000
31.64245 177.000
31.66240 184.000
31.68235 183.000
31.70229 157.000
31.72224 175.000
31.74219 172.000
31.76214 205.000
31.78208 203.000
31.80203 161.000
31.82198 191.000
31.84192 195.000
31.86187 230.000
31.88182 250.000
31.90176 274.000
31.92171 269.000
31.94166 268.000
31.96160 254.000
31.98155 280.000
32.00150 305.000
32.02145 279.000
32.04139 281.000
32.06134 284.000
32.08129 279.000
32.10123 261.000
32.12118 256.000
32.14113 231.000
32.16107 223.000
32.18102 239.000
32.20097 197.000
32.22092 191.000
32.24086 191.000
32.26081 194.000
32.28076 199.000
32.30070 190.000
32.32065 210.000
32.34060 216.000
32.36054 183.000
32.38049 197.000
32.40044 227.000
32.42039 254.000
32.44033 245.000
32.46028 288.000
32.48023 297.000
32.50017 296.000
32.52012 325.000
32.54007 304.000
32.56001 322.000
32.57996 284.000
32.59991 275.000
32.61985 308.000
32.63980 267.000
32.65975 285.000
32.67970 291.000
32.69964 288.000
32.71959 268.000
32.73954 296.000
32.75948 302.000
32.77943 334.000
32.79938 314.000
32.81932 282.000
32.83927 310.000
32.85922 312.000
32.87917 313.000
32.89911 312.000
32.91906 309.000
32.93901 301.000
32.95895 337.000
32.97890 348.000
32.99885 321.000
33.01879 323.000
33.03874 414.000
33.05869 355.000
33.07863 360.000
33.09858 372.000
33.11853 345.000
33.13848 368.000
33.15842 320.000
33.17837 336.000
33.19832 343.000
33.21826 313.000
33.23821 277.000
33.25816 276.000
33.27810 248.000
33.29805 245.000
33.31800 209.000
33.33795 207.000
33.35789 227.000
33.37784 200.000
33.39779 172.000
33.41773 185.000
33.43768 169.000
33.45763 162.000
33.47757 190.000
33.49752 154.000
33.51747 151.000
33.53741 191.000
33.55736 172.000
33.57731 162.000
33.59726 186.000
33.61720 165.000
33.63715 183.000
33.65710 175.000
33.67704 183.000
33.69699 170.000
33.71694 171.000
33.73688 180.000
33.75683 186.000
33.77678 176.000
33.79673 173.000
33.81667 180.000
33.83662 192.000
33.85657 189.000
33.87651 191.000
33.89646 167.000
33.91641 187.000
33.93635 204.000
33.95630 162.000
33.97625 177.000
33.99620 182.000
34.01614 193.000
34.03609 168.000
34.05604 198.000
34.07598 196.000
34.09593 174.000
34.11588 228.000
34.13582 221.000
34.15577 222.000
34.17572 194.000
34.19566 196.000
34.21561 213.000
34.23556 242.000
34.25551 234.000
34.27545 275.000
34.29540 274.000
34.31535 296.000
34.33529 288.000
34.35524 311.000
34.37519 326.000
34.39513 325.000
34.41508 353.000
34.43503 341.000
34.45498 343.000
34.47492 323.000
34.49487 300.000
34.51482 280.000
34.53476 315.000
34.55471 276.000
34.57466 271.000
34.59460 284.000
34.61455 249.000
34.63450 256.000
34.65444 251.000
34.67439 248.000
34.69434 253.000
34.71429 250.000
34.73423 258.000
34.75418 219.000
34.77413 246.000
34.79407 262.000
34.81402 258.000
34.83397 235.000
34.85391 242.000
34.87386 230.000
34.89381 193.000
34.91376 222.000
34.93370 206.000
34.95365 220.000
34.97360 192.000
34.99354 206.000
35.01349 179.000
35.03344 221.000
35.05338 197.000
35.07333 233.000
35.09328 210.000
35.11322 237.000
35.13317 241.000
35.15312 238.000
35.17307 283.000
35.19301 289.000
35.21296 298.000
35.23291 343.000
35.25285 386.000
35.27280 427.000
35.29275 439.000
35.31269 482.000
35.33264 590.000
35.35259 726.000
35.37254 846.000
35.39248 962.000
35.41243 1007.000
35.43238 1114.000
35.45232 1187.000
35.47227 1353.000
35.49222 1471.000
35.51216 1533.000
35.53211 1437.000
35.55206 1417.000
35.57201 1320.000
35.59195 1213.000
35.61190 1202.000
35.63185 979.000
35.65179 768.000
35.67174 696.000
35.69169 613.000
35.71163 514.000
35.73158 429.000
35.75153 401.000
35.77147 327.000
35.79142 293.000
35.81137 292.000
35.83132 259.000
35.85126 266.000
35.87121 264.000
35.89116 219.000
35.91110 220.000
35.93105 210.000
35.95100 222.000
35.97094 217.000
35.99089 209.000
36.01084 210.000
36.03079 222.000
36.05073 250.000
36.07068 191.000
36.09063 236.000
36.11057 203.000
36.13052 190.000
36.15047 203.000
36.17041 199.000
36.19036 192.000
36.21031 173.000
36.23025 190.000
36.25020 231.000
36.27015 166.000
36.29010 194.000
36.31004 217.000
36.32999 207.000
36.34994 205.000
36.36988 204.000
36.38983 195.000
36.40978 197.000
36.42972 211.000
36.44967 231.000
36.46962 198.000
36.48957 245.000
36.50951 276.000
36.52946 309.000
36.54941 323.000
36.56935 326.000
36.58930 388.000
36.60925 428.000
36.62919 472.000
36.64914 529.000
36.66909 540.000
36.68903 565.000
36.70898 624.000
36.72893 649.000
36.74888 665.000
36.76882 638.000
36.78877 588.000
36.80872 525.000
36.82866 548.000
36.84861 488.000
36.86856 485.000
36.88850 452.000
36.90845 440.000
36.92840 393.000
36.94835 351.000
36.96829 366.000
36.98824 321.000
37.00819 257.000
37.02813 308.000
37.04808 265.000
37.06803 272.000
37.08797 265.000
37.10792 269.000
37.12787 250.000
37.14781 229.000
37.16776 225.000
37.18771 233.000
37.20766 254.000
37.22760 228.000
37.24755 228.000
37.26750 216.000
37.28744 217.000
37.30739 204.000
37.32734 221.000
37.34728 184.000
37.36723 202.000
37.38718 209.000
37.40713 187.000
37.42707 193.000
37.44702 197.000
37.46697 181.000
37.48691 184.000
37.50686 172.000
37.52681 198.000
37.54675 178.000
37.56670 187.000
37.58665 179.000
37.60660 187.000
37.62654 178.000
37.64649 156.000
37.66644 180.000
37.68638 210.000
37.70633 181.000
37.72628 187.000
37.74622 201.000
37.76617 172.000
37.78612 167.000
37.80606 186.000
37.82601 199.000
37.84596 183.000
37.86591 178.000
37.88585 185.000
37.90580 190.000
37.92575 192.000
37.94569 199.000
37.96564 225.000
37.98559 192.000
38.00553 218.000
38.02548 212.000
38.04543 189.000
38.06538 200.000
38.08532 209.000
38.10527 213.000
38.12522 189.000
38.14516 190.000
38.16511 222.000
38.18506 178.000
38.20500 160.000
38.22495 203.000
38.24490 223.000
38.26484 189.000
38.28479 219.000
38.30474 219.000
38.32469 236.000
38.34463 213.000
38.36458 216.000
38.38453 241.000
38.40447 227.000
38.42442 232.000
38.44437 260.000
38.46431 243.000
38.48426 288.000
38.50421 321.000
38.52416 363.000
38.54410 409.000
38.56405 451.000
38.58400 606.000
38.60394 725.000
38.62389 857.000
38.64384 987.000
38.66378 1086.000
38.68373 1089.000
38.70368 1068.000
38.72362 959.000
38.74357 1034.000
38.76352 902.000
38.78347 858.000
38.80341 738.000
38.82336 651.000
38.84331 582.000
38.86325 492.000
38.88320 488.000
38.90315 502.000
38.92309 464.000
38.94304 507.000
38.96299 531.000
38.98294 485.000
39.00288 459.000
39.02283 455.000
39.04278 438.000
39.06272 408.000
39.08267 403.000
39.10262 425.000
39.12256 423.000
39.14251 400.000
39.16246 370.000
39.18241 374.000
39.20235 421.000
39.22230 362.000
39.24225 331.000
39.26219 325.000
39.28214 357.000
39.30209 300.000
39.32203 325.000
39.34198 298.000
39.36193 301.000
39.38187 262.000
39.40182 242.000
39.42177 265.000
39.44172 235.000
39.46166 218.000
39.48161 210.000
39.50156 194.000
39.52150 190.000
39.54145 205.000
39.56140 181.000
39.58134 198.000
39.60129 186.000
39.62124 205.000
39.64119 182.000
39.66113 200.000
39.68108 194.000
39.70103 192.000
39.72097 198.000
39.74092 192.000
39.76087 181.000
39.78081 194.000
39.80076 176.000
39.82071 187.000
39.84065 194.000
39.86060 205.000
39.88055 167.000
39.90050 175.000
39.92044 187.000
39.94039 207.000
39.96034 169.000
39.98028 204.000
40.00023 187.000
40.02018 202.000
40.04012 178.000
40.06007 188.000
40.08002 196.000
40.09997 183.000
40.11991 194.000
40.13986 191.000
40.15981 169.000
40.17975 197.000
40.19970 194.000
40.21965 178.000
40.23959 188.000
40.25954 174.000
40.27949 168.000
40.29943 184.000
40.31938 192.000
40.33933 172.000
40.35928 187.000
40.37922 168.000
40.39917 170.000
40.41912 179.000
40.43906 173.000
40.45901 204.000
40.47896 187.000
40.49890 183.000
40.51885 174.000
40.53880 168.000
40.55875 186.000
40.57869 188.000
40.59864 197.000
40.61859 171.000
40.63853 164.000
40.65848 198.000
40.67843 168.000
40.69837 182.000
40.71832 178.000
40.73827 174.000
40.75822 183.000
40.77816 194.000
40.79811 202.000
40.81806 196.000
40.83800 181.000
40.85795 163.000
40.87790 196.000
40.89784 185.000
40.91779 167.000
40.93774 178.000
40.95768 198.000
40.97763 185.000
40.99758 211.000
41.01753 191.000
41.03747 181.000
41.05742 191.000
41.07737 198.000
41.09731 229.000
41.11726 194.000
41.13721 181.000
41.15715 189.000
41.17710 212.000
41.19705 202.000
41.21700 203.000
41.23694 246.000
41.25689 215.000
41.27684 230.000
41.29678 221.000
41.31673 237.000
41.33668 277.000
41.35662 336.000
41.37657 335.000
41.39652 356.000
41.41646 429.000
41.43641 531.000
41.45636 633.000
41.47631 860.000
41.49625 1100.000
41.51620 1415.000
41.53615 1737.000
41.55609 2225.000
41.57604 2515.000
41.59599 2710.000
41.61593 2820.000
41.63588 2806.000
41.65583 2575.000
41.67578 2392.000
41.69572 2140.000
41.71567 1919.000
41.73562 1704.000
41.75556 1335.000
41.77551 1100.000
41.79546 834.000
41.81540 624.000
41.83535 529.000
41.85530 411.000
41.87524 400.000
41.89519 321.000
41.91514 269.000
41.93509 270.000
41.95503 268.000
41.97498 235.000
41.99493 241.000
42.01487 224.000
42.03482 207.000
42.05477 209.000
42.07471 229.000
42.09466 205.000
42.11461 196.000
42.13456 185.000
42.15450 191.000
42.17445 185.000
42.19440 202.000
42.21434 208.000
42.23429 196.000
42.25424 162.000
42.27418 207.000
42.29413 200.000
42.31408 180.000
42.33403 195.000
42.35397 195.000
42.37392 204.000
42.39387 211.000
42.41381 215.000
42.43376 186.000
42.45371 198.000
42.47365 164.000
42.49360 186.000
42.51355 191.000
42.53349 206.000
42.55344 200.000
42.57339 184.000
42.59334 194.000
42.61328 163.000
42.63323 184.000
42.65318 188.000
42.67312 174.000
42.69307 173.000
42.71302 206.000
42.73296 177.000
42.75291 186.000
42.77286 188.000
42.79281 195.000
42.81275 182.000
42.83270 186.000
42.85265 194.000
42.87259 201.000
42.89254 200.000
42.91249 197.000
42.93243 193.000
42.95238 222.000
42.97233 210.000
42.99227 204.000
43.01222 218.000
43.03217 174.000
43.05212 205.000
43.07206 234.000
43.09201 229.000
43.11196 246.000
43.13190 257.000
43.15185 239.000
43.17180 228.000
43.19174 250.000
43.21169 256.000
43.23164 243.000
43.25159 292.000
43.27153 281.000
43.29148 270.000
43.31143 268.000
43.33137 258.000
43.35132 261.000
43.37127 258.000
43.39121 227.000
43.41116 225.000
43.43111 257.000
43.45105 254.000
43.47100 230.000
43.49095 223.000
43.51090 203.000
43.53084 213.000
43.55079 191.000
43.57074 183.000
43.59068 199.000
43.61063 187.000
43.63058 175.000
43.65052 185.000
43.67047 182.000
43.69042 180.000
43.71037 154.000
43.73031 179.000
43.75026 193.000
43.77021 199.000
43.79015 178.000
43.81010 176.000
43.83005 158.000
43.84999 180.000
43.86994 177.000
43.88989 181.000
43.90984 173.000
43.92978 175.000
43.94973 175.000
43.96968 182.000
43.98962 185.000
44.00957 171.000
44.02952 185.000
44.04946 172.000
44.06941 195.000
44.08936 168.000
44.10930 163.000
44.12925 154.000
44.14920 174.000
44.16915 155.000
44.18909 191.000
44.20904 189.000
44.22899 152.000
44.24893 189.000
44.26888 155.000
44.28883 190.000
44.30877 169.000
44.32872 154.000
44.34867 177.000
44.36862 169.000
44.38856 163.000
44.40851 176.000
44.42846 197.000
44.44840 184.000
44.46835 198.000
44.48830 136.000
44.50824 161.000
44.52819 150.000
44.54814 165.000
44.56808 161.000
44.58803 183.000
44.60798 171.000
44.62793 176.000
44.64787 181.000
44.66782 205.000
44.68777 172.000
44.70771 175.000
44.72766 188.000
44.74761 184.000
44.76755 192.000
44.78750 209.000
44.80745 177.000
44.82740 204.000
44.84734 207.000
44.86729 212.000
44.88724 192.000
44.90718 241.000
44.92713 208.000
44.94708 266.000
44.96702 234.000
44.98697 268.000
45.00692 217.000
45.02686 264.000
45.04681 206.000
45.06676 205.000
45.08671 210.000
45.10665 211.000
45.12660 250.000
45.14655 237.000
45.16649 208.000
45.18644 185.000
45.20639 204.000
45.22633 167.000
45.24628 185.000
45.26623 177.000
45.28618 148.000
45.30612 172.000
45.32607 171.000
45.34602 181.000
45.36596 184.000
45.38591 176.000
45.40586 161.000
45.42580 170.000
45.44575 171.000
45.46570 156.000
45.48565 194.000
45.50559 202.000
45.52554 174.000
45.54549 178.000
45.56543 178.000
45.58538 173.000
45.60533 165.000
45.62527 175.000
45.64522 186.000
45.66517 191.000
45.68511 170.000
45.70506 182.000
45.72501 188.000
45.74496 161.000
45.76490 152.000
45.78485 167.000
45.80480 175.000
45.82474 144.000
45.84469 184.000
45.86464 154.000
45.88458 163.000
45.90453 148.000
45.92448 180.000
45.94443 159.000
45.96437 175.000
45.98432 173.000
46.00427 164.000
46.02421 175.000
46.04416 165.000
46.06411 183.000
46.08405 186.000
46.10400 166.000
46.12395 185.000
46.14389 155.000
46.16384 169.000
46.18379 194.000
46.20374 196.000
46.22368 171.000
46.24363 190.000
46.26358 170.000
46.28352 184.000
46.30347 175.000
46.32342 216.000
46.34336 191.000
46.36331 194.000
46.38326 173.000
46.40321 181.000
46.42315 176.000
46.44310 187.000
46.46305 168.000
46.48299 179.000
46.50294 211.000
46.52289 173.000
46.54283 190.000
46.56278 171.000
46.58273 180.000
46.60267 154.000
46.62262 182.000
46.64257 179.000
46.66252 181.000
46.68246 184.000
46.70241 184.000
46.72236 156.000
46.74230 158.000
46.76225 175.000
46.78220 188.000
46.80214 190.000
46.82209 171.000
46.84204 178.000
46.86199 191.000
46.88193 159.000
46.90188 166.000
46.92183 176.000
46.94177 178.000
46.96172 173.000
46.98167 193.000
47.00161 154.000
47.02156 161.000
47.04151 157.000
47.06146 172.000
47.08140 170.000
47.10135 170.000
47.12130 170.000
47.14124 155.000
47.16119 189.000
47.18114 180.000
47.20108 175.000
47.22103 191.000
47.24098 172.000
47.26092 171.000
47.28087 158.000
47.30082 183.000
47.32077 176.000
47.34071 185.000
47.36066 158.000
47.38061 154.000
47.40055 171.000
47.42050 182.000
47.44045 171.000
47.46039 192.000
47.48034 160.000
47.50029 171.000
47.52024 175.000
47.54018 165.000
47.56013 135.000
47.58008 173.000
47.60002 175.000
47.61997 172.000
47.63992 175.000
47.65986 204.000
47.67981 163.000
47.69976 149.000
47.71970 172.000
47.73965 196.000
47.75960 171.000
47.77955 173.000
47.79949 193.000
47.81944 189.000
47.83939 175.000
47.85933 174.000
47.87928 160.000
47.89923 161.000
47.91917 200.000
47.93912 183.000
47.95907 178.000
47.97902 184.000
47.99896 172.000
48.01891 188.000
48.03886 201.000
48.05880 173.000
48.07875 183.000
48.09870 179.000
48.11864 166.000
48.13859 192.000
48.15854 175.000
48.17848 205.000
48.19843 198.000
48.21838 221.000
48.23833 184.000
48.25827 199.000
48.27822 217.000
48.29817 202.000
48.31811 200.000
48.33806 187.000
48.35801 202.000
48.37795 229.000
48.39790 234.000
48.41785 220.000
48.43780 255.000
48.45774 253.000
48.47769 286.000
48.49764 291.000
48.51758 295.000
48.53753 337.000
48.55748 308.000
48.57742 307.000
48.59737 342.000
48.61732 349.000
48.63726 387.000
48.65721 394.000
48.67716 407.000
48.69711 468.000
48.71705 477.000
48.73700 476.000
48.75695 520.000
48.77689 472.000
48.79684 474.000
48.81679 450.000
48.83673 458.000
48.85668 444.000
48.87663 401.000
48.89658 373.000
48.91652 340.000
48.93647 336.000
48.95642 311.000
48.97636 299.000
48.99631 266.000
49.01626 214.000
49.03620 188.000
49.05615 203.000
49.07610 200.000
49.09605 209.000
49.11599 186.000
49.13594 194.000
49.15589 218.000
49.17583 204.000
49.19578 181.000
49.21573 208.000
49.23567 196.000
49.25562 184.000
49.27557 182.000
49.29551 189.000
49.31546 190.000
49.33541 201.000
49.35536 193.000
49.37530 178.000
49.39525 195.000
49.41520 202.000
49.43514 200.000
49.45509 177.000
49.47504 202.000
49.49498 183.000
49.51493 210.000
49.53488 191.000
49.55483 211.000
49.57477 194.000
49.59472 198.000
49.61467 177.000
49.63461 192.000
49.65456 175.000
49.67451 167.000
49.69445 176.000
49.71440 177.000
49.73435 205.000
49.75429 155.000
49.77424 165.000
49.79419 178.000
49.81414 185.000
49.83408 201.000
49.85403 200.000
49.87398 165.000
49.89392 164.000
49.91387 165.000
49.93382 147.000
49.95376 169.000
49.97371 163.000
49.99366 169.000
50.01361 185.000
50.03355 175.000
50.05350 167.000
50.07345 178.000
50.09339 169.000
50.11334 164.000
50.13329 195.000
50.15323 165.000
50.17318 180.000
50.19313 182.000
50.21307 169.000
50.23302 160.000
50.25297 153.000
50.27292 156.000
50.29286 163.000
50.31281 168.000
50.33276 170.000
50.35270 159.000
50.37265 196.000
50.39260 164.000
50.41254 181.000
50.43249 165.000
50.45244 196.000
50.47239 145.000
50.49233 183.000
50.51228 179.000
50.53223 178.000
50.55217 160.000
50.57212 174.000
50.59207 182.000
50.61201 188.000
50.63196 174.000
50.65191 166.000
50.67186 169.000
50.69180 200.000
50.71175 150.000
50.73170 174.000
50.75164 202.000
50.77159 167.000
50.79154 184.000
50.81148 184.000
50.83143 186.000
50.85138 170.000
50.87132 165.000
50.89127 141.000
50.91122 180.000
50.93117 154.000
50.95111 156.000
50.97106 159.000
50.99101 159.000
51.01095 204.000
51.03090 200.000
51.05085 153.000
51.07079 179.000
51.09074 184.000
51.11069 179.000
51.13064 191.000
51.15058 164.000
51.17053 166.000
51.19048 157.000
51.21042 144.000
51.23037 176.000
51.25032 182.000
51.27026 162.000
51.29021 161.000
51.31016 186.000
51.33010 174.000
51.35005 176.000
51.37000 166.000
51.38995 179.000
51.40989 173.000
51.42984 200.000
51.44979 169.000
51.46973 172.000
51.48968 159.000
51.50963 173.000
51.52957 157.000
51.54952 156.000
51.56947 159.000
51.58942 169.000
51.60936 144.000
51.62931 152.000
51.64926 155.000
51.66920 158.000
51.68915 174.000
51.70910 173.000
51.72904 181.000
51.74899 179.000
51.76894 176.000
51.78888 147.000
51.80883 179.000
51.82878 184.000
51.84873 185.000
51.86867 161.000
51.88862 163.000
51.90857 173.000
51.92851 197.000
51.94846 207.000
51.96841 191.000
51.98835 180.000
52.00830 184.000
52.02825 190.000
52.04820 168.000
52.06814 194.000
52.08809 172.000
52.10804 173.000
52.12798 194.000
52.14793 205.000
52.16788 180.000
52.18782 186.000
52.20777 162.000
52.22772 215.000
52.24767 186.000
52.26761 177.000
52.28756 207.000
52.30751 184.000
52.32745 183.000
52.34740 153.000
52.36735 183.000
52.38729 194.000
52.40724 177.000
52.42719 177.000
52.44713 196.000
52.46708 148.000
52.48703 172.000
52.50698 171.000
52.52692 175.000
52.54687 206.000
52.56682 181.000
52.58676 174.000
52.60671 185.000
52.62666 196.000
52.64660 186.000
52.66655 181.000
52.68650 180.000
52.70645 189.000
52.72639 196.000
52.74634 195.000
52.76629 219.000
52.78623 202.000
52.80618 214.000
52.82613 227.000
52.84607 235.000
52.86602 232.000
52.88597 265.000
52.90591 266.000
52.92586 278.000
52.94581 293.000
52.96576 290.000
52.98570 297.000
53.00565 321.000
53.02560 341.000
53.04554 362.000
53.06549 362.000
53.08544 388.000
53.10538 414.000
53.12533 394.000
53.14528 435.000
53.16523 431.000
53.18517 426.000
53.20512 425.000
53.22507 385.000
53.24501 442.000
53.26496 427.000
53.28491 417.000
53.30485 412.000
53.32480 345.000
53.34475 348.000
53.36469 340.000
53.38464 252.000
53.40459 307.000
53.42454 290.000
53.44448 273.000
53.46443 258.000
53.48438 252.000
53.50432 231.000
53.52427 199.000
53.54422 210.000
53.56416 199.000
53.58411 213.000
53.60406 224.000
53.62401 201.000
53.64395 215.000
53.66390 196.000
53.68385 213.000
53.70379 194.000
53.72374 183.000
53.74369 176.000
53.76363 202.000
53.78358 198.000
53.80353 204.000
53.82348 200.000
53.84342 185.000
53.86337 185.000
53.88332 205.000
53.90326 185.000
53.92321 212.000
53.94316 177.000
53.96310 169.000
53.98305 184.000
54.00300 192.000
54.02294 181.000
54.04289 199.000
54.06284 187.000
54.08279 182.000
54.10273 167.000
54.12268 187.000
54.14263 170.000
54.16257 166.000
54.18252 185.000
54.20247 164.000
54.22241 186.000
54.24236 173.000
54.26231 177.000
54.28226 190.000
54.30220 172.000
54.32215 184.000
54.34210 148.000
54.36204 187.000
54.38199 188.000
54.40194 172.000
54.42188 180.000
54.44183 182.000
54.46178 161.000
54.48172 158.000
54.50167 176.000
54.52162 183.000
54.54157 188.000
54.56151 175.000
54.58146 170.000
54.60141 175.000
54.62135 201.000
54.64130 184.000
54.66125 213.000
54.68119 177.000
54.70114 171.000
54.72109 149.000
54.74104 175.000
54.76098 190.000
54.78093 174.000
54.80088 188.000
54.82082 155.000
54.84077 164.000
54.86072 173.000
54.88066 170.000
54.90061 154.000
54.92056 182.000
54.94050 185.000
54.96045 173.000
54.98040 175.000
55.00035 152.000
55.02029 181.000
55.04024 164.000
55.06019 185.000
55.08013 143.000
55.10008 167.000
55.12003 158.000
55.13997 161.000
55.15992 155.000
55.17987 166.000
55.19982 181.000
55.21976 173.000
55.23971 153.000
55.25966 169.000
55.27960 197.000
55.29955 156.000
55.31950 175.000
55.33944 153.000
55.35939 187.000
55.37934 158.000
55.39929 180.000
55.41923 177.000
55.43918 176.000
55.45913 193.000
55.47907 159.000
55.49902 171.000
55.51897 150.000
55.53891 180.000
55.55886 144.000
55.57881 189.000
55.59875 185.000
55.61870 177.000
55.63865 149.000
55.65860 164.000
55.67854 184.000
55.69849 161.000
55.71844 183.000
55.73838 158.000
55.75833 187.000
55.77828 174.000
55.79822 166.000
55.81817 167.000
55.83812 157.000
55.85807 182.000
55.87801 186.000
55.89796 173.000
55.91791 188.000
55.93785 156.000
55.95780 187.000
55.97775 202.000
55.99769 173.000
56.01764 186.000
56.03759 158.000
56.05753 163.000
56.07748 165.000
56.09743 170.000
56.11738 174.000
56.13732 163.000
56.15727 175.000
56.17722 152.000
56.19716 192.000
56.21711 166.000
56.23706 156.000
56.25700 167.000
56.27695 186.000
56.29690 158.000
56.31685 166.000
56.33679 187.000
56.35674 212.000
56.37669 183.000
56.39663 198.000
56.41658 173.000
56.43653 166.000
56.45647 198.000
56.47642 168.000
56.49637 191.000
56.51631 148.000
56.53626 179.000
56.55621 196.000
56.57616 167.000
56.59610 176.000
56.61605 167.000
56.63600 197.000
56.65594 174.000
56.67589 215.000
56.69584 164.000
56.71578 179.000
56.73573 193.000
56.75568 191.000
56.77563 186.000
56.79557 206.000
56.81552 195.000
56.83547 196.000
56.85541 176.000
56.87536 183.000
56.89531 184.000
56.91525 180.000
56.93520 178.000
56.95515 207.000
56.97510 198.000
56.99504 182.000
57.01499 196.000
57.03494 187.000
57.05488 190.000
57.07483 172.000
57.09478 190.000
57.11472 159.000
57.13467 197.000
57.15462 215.000
57.17456 183.000
57.19451 197.000
57.21446 195.000
57.23441 207.000
57.25435 226.000
57.27430 217.000
57.29425 216.000
57.31419 206.000
57.33414 207.000
57.35409 276.000
57.37403 251.000
57.39398 227.000
57.41393 270.000
57.43388 267.000
57.45382 255.000
57.47377 260.000
57.49372 268.000
57.51366 320.000
57.53361 279.000
57.55356 308.000
57.57350 356.000
57.59345 336.000
57.61340 351.000
57.63334 362.000
57.65329 388.000
57.67324 392.000
57.69319 403.000
57.71313 387.000
57.73308 432.000
57.75303 410.000
57.77297 441.000
57.79292 468.000
57.81287 458.000
57.83281 462.000
57.85276 485.000
57.87271 515.000
57.89266 534.000
57.91260 524.000
57.93255 478.000
57.95250 487.000
57.97244 467.000
57.99239 440.000
58.01234 454.000
58.03228 400.000
58.05223 394.000
58.07218 340.000
58.09212 364.000
58.11207 317.000
58.13202 314.000
58.15197 331.000
58.17191 294.000
58.19186 325.000
58.21181 320.000
58.23175 336.000
58.25170 320.000
58.27165 311.000
58.29159 249.000
58.31154 296.000
58.33149 261.000
58.35144 260.000
58.37138 275.000
58.39133 266.000
58.41128 258.000
58.43122 240.000
58.45117 250.000
58.47112 242.000
58.49106 207.000
58.51101 197.000
58.53096 189.000
58.55090 194.000
58.57085 182.000
58.59080 172.000
58.61075 176.000
58.63069 183.000
58.65064 186.000
58.67059 186.000
58.69053 168.000
58.71048 189.000
58.73043 176.000
58.75037 182.000
58.77032 204.000
58.79027 158.000
58.81022 159.000
58.83016 168.000
58.85011 176.000
58.87006 176.000
58.89000 166.000
58.90995 189.000
58.92990 186.000
58.94984 180.000
58.96979 164.000
58.98974 181.000
59.00969 167.000
59.02963 180.000
59.04958 190.000
59.06953 189.000
59.08947 168.000
59.10942 152.000
59.12937 146.000
59.14931 173.000
59.16926 164.000
59.18921 193.000
59.20915 172.000
59.22910 175.000
59.24905 173.000
59.26900 195.000
59.28894 175.000
59.30889 179.000
59.32884 171.000
59.34878 171.000
59.36873 173.000
59.38868 176.000
59.40862 179.000
59.42857 156.000
59.44852 175.000
59.46847 168.000
59.48841 179.000
59.50836 170.000
59.52831 185.000
59.54825 180.000
59.56820 185.000
59.58815 197.000
59.60809 176.000
59.62804 199.000
59.64799 175.000
59.66793 169.000
59.68788 160.000
59.70783 161.000
59.72778 171.000
59.74772 170.000
59.76767 179.000
59.78762 213.000
59.80756 182.000
59.82751 179.000
59.84746 196.000
59.86740 198.000
59.88735 172.000
59.90730 175.000
59.92725 164.000
59.94719 178.000
59.96714 188.000
59.98709 194.000
60.00703 179.000
60.02698 165.000
60.04693 206.000
60.06687 199.000
60.08682 178.000
60.10677 190.000
60.12671 174.000
60.14666 165.000
60.16661 161.000
60.18656 171.000
60.20650 207.000
60.22645 167.000
60.24640 180.000
60.26634 181.000
60.28629 194.000
60.30624 198.000
60.32618 168.000
60.34613 193.000
60.36608 183.000
60.38603 166.000
60.40597 169.000
60.42592 194.000
60.44587 193.000
60.46581 164.000
60.48576 176.000
60.50571 164.000
60.52565 192.000
60.54560 176.000
60.56555 180.000
60.58550 168.000
60.60544 182.000
60.62539 192.000
60.64534 168.000
60.66528 174.000
60.68523 179.000
60.70518 157.000
60.72512 179.000
60.74507 169.000
60.76502 180.000
60.78496 160.000
60.80491 156.000
60.82486 173.000
60.84481 179.000
60.86475 165.000
60.88470 183.000
60.90465 161.000
60.92459 161.000
60.94454 200.000
60.96449 183.000
60.98443 170.000
61.00438 195.000
61.02433 188.000
61.04428 188.000
61.06422 187.000
61.08417 193.000
61.10412 179.000
61.12406 159.000
61.14401 205.000
61.16396 174.000
61.18390 196.000
61.20385 178.000
61.22380 187.000
61.24374 185.000
61.26369 174.000
61.28364 186.000
61.30359 200.000
61.32353 206.000
61.34348 196.000
61.36343 196.000
61.38337 205.000
61.40332 228.000
61.42327 247.000
61.44321 250.000
61.46316 275.000
61.48311 317.000
61.50306 338.000
61.52300 390.000
61.54295 359.000
61.56290 366.000
61.58284 333.000
61.60279 344.000
61.62274 349.000
61.64268 308.000
61.66263 339.000
61.68258 337.000
61.70252 355.000
61.72247 296.000
61.74242 295.000
61.76237 288.000
61.78231 299.000
61.80226 281.000
61.82221 279.000
61.84215 293.000
61.86210 278.000
61.88205 320.000
61.90199 292.000
61.92194 285.000
61.94189 264.000
61.96184 266.000
61.98178 260.000
62.00173 232.000
62.02168 266.000
62.04162 260.000
62.06157 241.000
62.08152 243.000
62.10146 243.000
62.12141 234.000
62.14136 229.000
62.16131 247.000
62.18125 233.000
62.20120 239.000
62.22115 212.000
62.24109 232.000
62.26104 221.000
62.28099 235.000
62.30093 227.000
62.32088 236.000
62.34083 272.000
62.36077 283.000
62.38072 262.000
62.40067 246.000
62.42062 266.000
62.44056 279.000
62.46051 292.000
62.48046 331.000
62.50040 314.000
62.52035 343.000
62.54030 327.000
62.56024 338.000
62.58019 359.000
62.60014 398.000
62.62009 383.000
62.64003 376.000
62.65998 387.000
62.67993 392.000
62.69987 372.000
62.71982 373.000
62.73977 404.000
62.75971 464.000
62.77966 412.000
62.79961 406.000
62.81955 421.000
62.83950 410.000
62.85945 416.000
62.87940 440.000
62.89934 391.000
62.91929 394.000
62.93924 353.000
62.95918 351.000
62.97913 370.000
62.99908 349.000
63.01902 365.000
63.03897 323.000
63.05892 350.000
63.07887 364.000
63.09881 320.000
63.11876 312.000
63.13871 296.000
63.15865 244.000
63.17860 263.000
63.19855 260.000
63.21849 245.000
63.23844 275.000
63.25839 265.000
63.27833 240.000
63.29828 229.000
63.31823 237.000
63.33818 253.000
63.35812 220.000
63.37807 229.000
63.39802 220.000
63.41796 217.000
63.43791 215.000
63.45786 225.000
63.47780 209.000
63.49775 224.000
63.51770 234.000
63.53765 216.000
63.55759 181.000
63.57754 190.000
63.59749 204.000
63.61743 198.000
63.63738 198.000
63.65733 212.000
63.67727 194.000
63.69722 199.000
63.71717 208.000
63.73712 251.000
63.75706 234.000
63.77701 225.000
63.79696 209.000
63.81690 200.000
63.83685 231.000
63.85680 199.000
63.87674 218.000
63.89669 210.000
63.91664 212.000
63.93658 212.000
63.95653 196.000
63.97648 204.000
63.99643 225.000
64.01637 207.000
64.03632 223.000
64.05627 199.000
64.07621 242.000
64.09616 232.000
64.11611 207.000
64.13605 227.000
64.15600 199.000
64.17595 246.000
64.19590 233.000
64.21584 207.000
64.23579 224.000
64.25574 241.000
64.27568 238.000
64.29563 256.000
64.31558 253.000
64.33552 255.000
64.35547 272.000
64.37542 245.000
64.39536 218.000
64.41531 238.000
64.43526 218.000
64.45521 208.000
64.47515 205.000
64.49510 204.000
64.51505 222.000
64.53499 209.000
64.55494 204.000
64.57489 204.000
64.59483 186.000
64.61478 217.000
64.63473 184.000
64.65468 206.000
64.67462 190.000
64.69457 186.000
64.71452 185.000
64.73446 181.000
64.75441 216.000
64.77436 189.000
64.79430 199.000
64.81425 186.000
64.83420 207.000
64.85414 168.000
64.87409 185.000
64.89404 194.000
64.91399 185.000
64.93393 211.000
64.95388 189.000
64.97383 203.000
64.99377 215.000
65.01372 226.000
65.03367 217.000
65.05361 214.000
65.07356 206.000
65.09351 226.000
65.11346 235.000
65.13340 208.000
65.15335 246.000
65.17330 248.000
65.19324 239.000
65.21319 254.000
65.23314 281.000
65.25308 292.000
65.27303 302.000
65.29298 292.000
65.31293 290.000
65.33287 269.000
65.35282 278.000
65.37277 288.000
65.39271 278.000
65.41266 284.000
65.43261 333.000
65.45255 290.000
65.47250 328.000
65.49245 301.000
65.51239 343.000
65.53234 357.000
65.55229 304.000
65.57224 295.000
65.59218 329.000
65.61213 321.000
65.63208 320.000
65.65202 330.000
65.67197 284.000
65.69192 331.000
65.71186 308.000
65.73181 349.000
65.75176 320.000
65.77171 308.000
65.79165 322.000
65.81160 270.000
65.83155 273.000
65.85149 274.000
65.87144 251.000
65.89139 267.000
65.91133 255.000
65.93128 269.000
65.95123 229.000
65.97117 254.000
65.99112 260.000
66.01107 232.000
66.03102 225.000
66.05096 270.000
66.07091 255.000
66.09086 255.000
66.11080 251.000
66.13075 255.000
66.15070 230.000
66.17064 254.000
66.19059 286.000
66.21054 318.000
66.23049 322.000
66.25043 307.000
66.27038 310.000
66.29033 351.000
66.31027 320.000
66.33022 309.000
66.35017 300.000
66.37011 303.000
66.39006 284.000
66.41001 276.000
66.42995 257.000
66.44990 285.000
66.46985 268.000
66.48980 264.000
66.50974 253.000
66.52969 222.000
66.54964 242.000
66.56958 233.000
66.58953 228.000
66.60948 241.000
66.62942 193.000
66.64937 222.000
66.66932 221.000
66.68927 212.000
66.70921 175.000
66.72916 220.000
66.74911 196.000
66.76905 189.000
66.78900 184.000
66.80895 216.000
66.82889 198.000
66.84884 197.000
66.86879 192.000
66.88874 207.000
66.90868 208.000
66.92863 187.000
66.94858 167.000
66.96852 213.000
66.98847 192.000
67.00842 174.000
67.02836 202.000
67.04831 181.000
67.06826 178.000
67.08820 185.000
67.10815 191.000
67.12810 181.000
67.14805 160.000
67.16799 183.000
67.18794 183.000
67.20789 191.000
67.22783 186.000
67.24778 177.000
67.26773 198.000
67.28767 184.000
67.30762 190.000
67.32757 187.000
67.34752 200.000
67.36746 192.000
67.38741 180.000
67.40736 170.000
67.42730 200.000
67.44725 202.000
67.46720 208.000
67.48714 206.000
67.50709 174.000
67.52704 191.000
67.54698 189.000
67.56693 201.000
67.58688 194.000
67.60683 170.000
67.62677 212.000
67.64672 191.000
67.66667 223.000
67.68661 242.000
67.70656 230.000
67.72651 234.000
67.74645 267.000
67.76640 252.000
67.78635 256.000
67.80630 257.000
67.82624 293.000
67.84619 230.000
67.86614 297.000
67.88608 264.000
67.90603 300.000
67.92598 298.000
67.94592 322.000
67.96587 311.000
67.98582 349.000
68.00576 345.000
68.02571 355.000
68.04566 329.000
68.06561 357.000
68.08555 296.000
68.10550 335.000
68.12545 324.000
68.14539 327.000
68.16534 294.000
68.18529 312.000
68.20523 341.000
68.22518 310.000
68.24513 302.000
68.26508 303.000
68.28502 288.000
68.30497 273.000
68.32492 307.000
68.34486 285.000
68.36481 284.000
68.38476 268.000
68.40470 273.000
68.42465 281.000
68.44460 262.000
68.46455 247.000
68.48449 246.000
68.50444 251.000
68.52439 232.000
68.54433 247.000
68.56428 250.000
68.58423 211.000
68.60417 231.000
68.62412 219.000
68.64407 218.000
68.66401 202.000
68.68396 209.000
68.70391 173.000
68.72386 181.000
68.74380 200.000
68.76375 180.000
68.78370 203.000
68.80364 174.000
68.82359 193.000
68.84354 197.000
68.86348 179.000
68.88343 187.000
68.90338 202.000
68.92333 197.000
68.94327 169.000
68.96322 205.000
68.98317 163.000
69.00311 191.000
69.02306 187.000
69.04301 182.000
69.06295 189.000
69.08290 202.000
69.10285 172.000
69.12279 187.000
69.14274 171.000
69.16269 193.000
69.18264 190.000
69.20258 196.000
69.22253 201.000
69.24248 195.000
69.26242 151.000
69.28237 187.000
69.30232 223.000
69.32226 155.000
69.34221 187.000
69.36216 193.000
69.38211 180.000
69.40205 171.000
69.42200 207.000
69.44195 193.000
69.46189 200.000
69.48184 200.000
69.50179 221.000
69.52173 197.000
69.54168 203.000
69.56163 165.000
69.58157 204.000
69.60152 200.000
69.62147 198.000
69.64142 220.000
69.66136 195.000
69.68131 191.000
69.70126 185.000
69.72120 201.000
69.74115 189.000
69.76110 198.000
69.78104 203.000
69.80099 167.000
69.82094 213.000
69.84089 163.000
69.86083 181.000
69.88078 182.000
69.90073 184.000
69.92067 195.000
69.94062 158.000
69.96057 187.000
69.98051 179.000
70.00046 199.000
70.02041 183.000
70.04035 190.000
70.06030 171.000
70.08025 161.000
70.10020 174.000
70.12014 184.000
70.14009 176.000
70.16004 172.000
70.17998 174.000
70.19993 162.000
70.21988 183.000
70.23982 185.000
70.25977 188.000
70.27972 165.000
70.29967 180.000
70.31961 167.000
70.33956 149.000
70.35951 182.000
70.37945 167.000
70.39940 171.000
70.41935 182.000
70.43929 163.000
70.45924 192.000
70.47919 162.000
70.49914 172.000
70.51908 153.000
70.53903 191.000
70.55898 180.000
70.57892 159.000
70.59887 143.000
70.61882 172.000
70.63876 150.000
70.65871 190.000
70.67866 174.000
70.69860 187.000
70.71855 170.000
70.73850 171.000
70.75845 171.000
70.77839 172.000
70.79834 174.000
70.81829 144.000
70.83823 178.000
70.85818 196.000
70.87813 169.000
70.89807 175.000
70.91802 175.000
70.93797 178.000
70.95792 168.000
70.97786 159.000
70.99781 182.000
71.01776 164.000
71.03770 187.000
71.05765 166.000
71.07760 166.000
71.09754 187.000
71.11749 129.000
71.13744 165.000
71.15738 182.000
71.17733 175.000
71.19728 187.000
71.21723 155.000
71.23717 165.000
71.25712 164.000
71.27707 186.000
71.29701 162.000
71.31696 188.000
71.33691 186.000
71.35685 174.000
71.37680 177.000
71.39675 177.000
71.41670 170.000
71.43664 160.000
71.45659 197.000
71.47654 178.000
71.49648 166.000
71.51643 172.000
71.53638 185.000
71.55632 174.000
71.57627 176.000
71.59622 177.000
71.61616 181.000
71.63611 172.000
71.65606 181.000
71.67601 165.000
71.69595 175.000
71.71590 163.000
71.73585 190.000
71.75579 171.000
71.77574 196.000
71.79569 171.000
71.81563 171.000
71.83558 173.000
71.85553 182.000
71.87548 189.000
71.89542 178.000
71.91537 172.000
71.93532 167.000
71.95526 175.000
71.97521 170.000
71.99516 172.000
72.01510 157.000
72.03505 192.000
72.05500 173.000
72.07495 173.000
72.09489 181.000
72.11484 204.000
72.13479 166.000
72.15473 191.000
72.17468 187.000
72.19463 184.000
72.21457 186.000
72.23452 207.000
72.25447 200.000
72.27441 213.000
72.29436 232.000
72.31431 227.000
72.33426 229.000
72.35420 213.000
72.37415 248.000
72.39410 257.000
72.41404 255.000
72.43399 240.000
72.45394 241.000
72.47388 246.000
72.49383 204.000
72.51378 301.000
72.53373 249.000
72.55367 255.000
72.57362 258.000
72.59357 292.000
72.61351 271.000
72.63346 259.000
72.65341 222.000
72.67335 288.000
72.69330 293.000
72.71325 277.000
72.73319 333.000
72.75314 292.000
72.77309 285.000
72.79304 307.000
72.81298 284.000
72.83293 286.000
72.85288 289.000
72.87282 293.000
72.89277 258.000
72.91272 273.000
72.93266 258.000
72.95261 236.000
72.97256 243.000
72.99251 240.000
73.01245 258.000
73.03240 231.000
73.05235 241.000
73.07229 235.000
73.09224 211.000
73.11219 213.000
73.13213 218.000
73.15208 200.000
73.17203 237.000
73.19197 214.000
73.21192 205.000
73.23187 195.000
73.25182 224.000
73.27176 214.000
73.29171 216.000
73.31166 224.000
73.33160 210.000
73.35155 218.000
73.37150 204.000
73.39144 230.000
73.41139 210.000
73.43134 191.000
73.45129 204.000
73.47123 208.000
73.49118 206.000
73.51113 211.000
73.53107 213.000
73.55102 215.000
73.57097 215.000
73.59091 197.000
73.61086 192.000
73.63081 222.000
73.65076 224.000
73.67070 211.000
73.69065 213.000
73.71060 217.000
73.73054 227.000
73.75049 225.000
73.77044 212.000
73.79038 202.000
73.81033 208.000
73.83028 208.000
73.85022 229.000
73.87017 228.000
73.89012 241.000
73.91007 225.000
73.93001 237.000
73.94996 199.000
73.96991 190.000
73.98985 207.000
74.00980 205.000
74.02975 226.000
74.04969 221.000
74.06964 230.000
74.08959 194.000
74.10954 214.000
74.12948 213.000
74.14943 215.000
74.16938 231.000
74.18932 234.000
74.20927 222.000
74.22922 212.000
74.24916 215.000
74.26911 234.000
74.28906 220.000
74.30900 211.000
74.32895 184.000
74.34890 204.000
74.36885 212.000
74.38879 217.000
74.40874 213.000
74.42869 190.000
74.44863 206.000
74.46858 183.000
74.48853 193.000
74.50847 223.000
74.52842 206.000
74.54837 219.000
74.56832 214.000
74.58826 190.000
74.60821 230.000
74.62816 196.000
74.64810 202.000
74.66805 203.000
74.68800 214.000
74.70794 209.000
74.72789 209.000
74.74784 202.000
74.76778 204.000
74.78773 204.000
74.80768 203.000
74.82763 232.000
74.84757 204.000
74.86752 232.000
74.88747 238.000
74.90741 240.000
74.92736 227.000
74.94731 257.000
74.96725 235.000
74.98720 242.000
75.00715 247.000
75.02710 225.000
75.04704 244.000
75.06699 259.000
75.08694 247.000
75.10688 249.000
75.12683 240.000
75.14678 247.000
75.16672 268.000
75.18667 264.000
75.20662 241.000
75.22657 234.000
75.24651 276.000
75.26646 278.000
75.28641 238.000
75.30635 226.000
75.32630 212.000
75.34625 229.000
75.36619 220.000
75.38614 235.000
75.40609 212.000
75.42603 260.000
75.44598 204.000
75.46593 206.000
75.48588 221.000
75.50582 202.000
75.52577 186.000
75.54572 184.000
75.56566 195.000
75.58561 183.000
75.60556 203.000
75.62550 162.000
75.64545 194.000
75.66540 174.000
75.68535 191.000
75.70529 195.000
75.72524 180.000
75.74519 172.000
75.76513 180.000
75.78508 187.000
75.80503 183.000
75.82497 186.000
75.84492 158.000
75.86487 193.000
75.88481 184.000
75.90476 174.000
75.92471 146.000
75.94466 168.000
75.96460 166.000
75.98455 193.000
76.00450 172.000
76.02444 192.000
76.04439 177.000
76.06434 171.000
76.08428 166.000
76.10423 172.000
76.12418 186.000
76.14413 176.000
76.16407 153.000
76.18402 183.000
76.20397 179.000
76.22391 147.000
76.24386 170.000
76.26381 152.000
76.28375 154.000
76.30370 174.000
76.32365 164.000
76.34359 167.000
76.36354 162.000
76.38349 166.000
76.40344 183.000
76.42338 166.000
76.44333 157.000
76.46328 164.000
76.48322 195.000
76.50317 175.000
76.52312 172.000
76.54306 166.000
76.56301 183.000
76.58296 165.000
76.60291 172.000
76.62285 175.000
76.64280 186.000
76.66275 167.000
76.68269 179.000
76.70264 173.000
76.72259 182.000
76.74253 163.000
76.76248 160.000
76.78243 186.000
76.80238 164.000
76.82232 155.000
76.84227 155.000
76.86222 167.000
76.88216 153.000
76.90211 175.000
76.92206 166.000
76.94200 178.000
76.96195 153.000
76.98190 172.000
77.00184 189.000
77.02179 201.000
77.04174 168.000
77.06169 183.000
77.08163 179.000
77.10158 167.000
77.12153 173.000
77.14147 185.000
77.16142 166.000
77.18137 189.000
77.20131 164.000
77.22126 171.000
77.24121 168.000
77.26116 164.000
77.28110 178.000
77.30105 195.000
77.32100 168.000
77.34094 145.000
77.36089 158.000
77.38084 183.000
77.40078 186.000
77.42073 178.000
77.44068 192.000
77.46062 190.000
77.48057 186.000
77.50052 171.000
77.52047 172.000
77.54041 184.000
77.56036 186.000
77.58031 171.000
77.60025 188.000
77.62020 182.000
77.64015 184.000
77.66009 208.000
77.68004 221.000
77.69999 195.000
77.71994 195.000
77.73988 191.000
77.75983 192.000
77.77978 216.000
77.79972 211.000
77.81967 237.000
77.83962 213.000
77.85956 218.000
77.87951 219.000
77.89946 202.000
77.91940 242.000
77.93935 239.000
77.95930 248.000
77.97925 209.000
77.99919 247.000
78.01914 251.000
78.03909 247.000
78.05903 274.000
78.07898 260.000
78.09893 260.000
78.11887 279.000
78.13882 278.000
78.15877 278.000
78.17872 282.000
78.19866 242.000
78.21861 252.000
78.23856 269.000
78.25850 284.000
78.27845 263.000
78.29840 235.000
78.31834 258.000
78.33829 244.000
78.35824 239.000
78.37819 262.000
78.39813 247.000
78.41808 271.000
78.43803 244.000
78.45797 225.000
78.47792 243.000
78.49787 231.000
78.51781 198.000
78.53776 226.000
78.55771 243.000
78.57765 241.000
78.59760 220.000
78.61755 197.000
78.63750 232.000
78.65744 209.000
78.67739 225.000
78.69734 219.000
78.71728 176.000
78.73723 186.000
78.75718 197.000
78.77712 199.000
78.79707 172.000
78.81702 173.000
78.83697 190.000
78.85691 206.000
78.87686 197.000
78.89681 205.000
78.91675 194.000
78.93670 180.000
78.95665 178.000
78.97659 177.000
78.99654 192.000
79.01649 176.000
79.03643 163.000
79.05638 159.000
79.07633 158.000
79.09628 190.000
79.11622 188.000
79.13617 187.000
79.15612 156.000
79.17606 193.000
79.19601 183.000
79.21596 160.000
79.23590 157.000
79.25585 176.000
79.27580 181.000
79.29575 165.000
79.31569 191.000
79.33564 194.000
79.35559 141.000
79.37553 151.000
79.39548 174.000
79.41543 153.000
79.43537 175.000
79.45532 206.000
79.47527 158.000
79.49521 183.000
79.51516 176.000
79.53511 171.000
79.55506 185.000
79.57500 159.000
79.59495 182.000
79.61490 162.000
79.63484 177.000
79.65479 160.000
79.67474 174.000
79.69468 146.000
79.71463 146.000
79.73458 144.000
79.75453 166.000
79.77447 186.000
79.79442 158.000
79.81437 160.000
79.83431 149.000
79.85426 182.000
79.87421 150.000
79.89415 183.000
79.91410 170.000
79.93405 146.000
79.95399 163.000
79.97394 167.000
79.99389 168.000
80.01384 178.000
80.03378 178.000
80.05373 180.000
80.07368 178.000
80.09362 217.000
80.11357 145.000
80.13352 199.000
80.15346 190.000
80.17341 179.000
80.19336 185.000
80.21331 176.000
80.23325 221.000
80.25320 198.000
80.27315 192.000
80.29309 201.000
80.31304 165.000
80.33299 177.000
80.35293 198.000
80.37288 188.000
80.39283 172.000
80.41278 195.000
80.43272 188.000
80.45267 216.000
80.47262 211.000
80.49256 183.000
80.51251 185.000
80.53246 188.000
80.55240 163.000
80.57235 204.000
80.59230 204.000
80.61224 206.000
80.63219 175.000
80.65214 173.000
80.67209 199.000
80.69203 164.000
80.71198 171.000
80.73193 175.000
80.75187 162.000
80.77182 184.000
80.79177 128.000
80.81171 172.000
80.83166 182.000
80.85161 156.000
80.87156 203.000
80.89150 180.000
80.91145 182.000
80.93140 171.000
80.95134 182.000
80.97129 176.000
80.99124 171.000
81.01118 166.000
81.03113 157.000
81.05108 154.000
81.07102 177.000
81.09097 173.000
81.11092 159.000
81.13087 183.000
81.15081 173.000
81.17076 185.000
81.19071 195.000
81.21065 185.000
81.23060 155.000
81.25055 190.000
81.27049 170.000
81.29044 143.000
81.31039 166.000
81.33034 179.000
81.35028 171.000
81.37023 159.000
81.39018 183.000
81.41012 156.000
81.43007 209.000
81.45002 191.000
81.46996 187.000
81.48991 167.000
81.50986 184.000
81.52980 172.000
81.54975 153.000
81.56970 195.000
81.58965 186.000
81.60959 186.000
81.62954 164.000
81.64949 170.000
81.66943 168.000
81.68938 197.000
81.70933 169.000
81.72927 178.000
81.74922 181.000
81.76917 170.000
81.78912 151.000
81.80906 146.000
81.82901 169.000
81.84896 172.000
81.86890 172.000
81.88885 170.000
81.90880 164.000
81.92874 157.000
81.94869 144.000
81.96864 205.000
81.98859 155.000
82.00853 179.000
82.02848 159.000
82.04843 175.000
82.06837 172.000
82.08832 166.000
82.10827 184.000
82.12821 156.000
82.14816 183.000
82.16811 176.000
82.18805 217.000
82.20800 187.000
82.22795 192.000
82.24790 171.000
82.26784 177.000
82.28779 188.000
82.30774 167.000
82.32768 208.000
82.34763 173.000
82.36758 189.000
82.38752 201.000
82.40747 198.000
82.42742 222.000
82.44737 188.000
82.46731 183.000
82.48726 196.000
82.50721 192.000
82.52715 203.000
82.54710 190.000
82.56705 177.000
82.58699 192.000
82.60694 200.000
82.62689 231.000
82.64683 213.000
82.66678 209.000
82.68673 193.000
82.70668 197.000
82.72662 195.000
82.74657 210.000
82.76652 190.000
82.78646 211.000
82.80641 189.000
82.82636 206.000
82.84630 190.000
82.86625 194.000
82.88620 186.000
82.90615 190.000
82.92609 196.000
82.94604 169.000
82.96599 227.000
82.98593 195.000
83.00588 212.000
83.02583 181.000
83.04577 203.000
83.06572 198.000
83.08567 172.000
83.10561 200.000
83.12556 181.000
83.14551 184.000
83.16546 183.000
83.18540 215.000
83.20535 191.000
83.22530 172.000
83.24524 188.000
83.26519 216.000
83.28514 163.000
83.30508 191.000
83.32503 173.000
83.34498 197.000
83.36493 200.000
83.38487 198.000
83.40482 195.000
83.42477 168.000
83.44471 208.000
83.46466 205.000
83.48461 210.000
83.50455 187.000
83.52450 171.000
83.54445 174.000
83.56440 211.000
83.58434 204.000
83.60429 215.000
83.62424 179.000
83.64418 212.000
83.66413 177.000
83.68408 206.000
83.70402 204.000
83.72397 197.000
83.74392 187.000
83.76386 194.000
83.78381 224.000
83.80376 191.000
83.82371 189.000
83.84365 168.000
83.86360 205.000
83.88355 183.000
83.90349 194.000
83.92344 177.000
83.94339 211.000
83.96333 168.000
83.98328 187.000
84.00323 197.000
84.02318 160.000
84.04312 189.000
84.06307 192.000
84.08302 188.000
84.10296 202.000
84.12291 178.000
84.14286 181.000
84.16280 170.000
84.18275 171.000
84.20270 176.000
84.22264 218.000
84.24259 207.000
84.26254 186.000
84.28249 183.000
84.30243 206.000
84.32238 208.000
84.34233 215.000
84.36227 226.000
84.38222 193.000
84.40217 187.000
84.42211 207.000
84.44206 178.000
84.46201 180.000
84.48196 204.000
84.50190 211.000
84.52185 204.000
84.54180 193.000
84.56174 178.000
84.58169 161.000
84.60164 220.000
84.62158 184.000
84.64153 189.000
84.66148 204.000
84.68142 180.000
84.70137 208.000
84.72132 200.000
84.74127 168.000
84.76121 188.000
84.78116 169.000
84.80111 174.000
84.82105 209.000
84.84100 207.000
84.86095 175.000
84.88089 148.000
84.90084 181.000
84.92079 191.000
84.94074 161.000
84.96068 182.000
84.98063 191.000
85.00058 189.000
85.02052 193.000
85.04047 193.000
85.06042 171.000
85.08036 173.000
85.10031 169.000
85.12026 179.000
85.14021 158.000
85.16015 161.000
85.18010 160.000
85.20005 156.000
85.21999 168.000
85.23994 176.000
85.25989 165.000
85.27983 135.000
85.29978 160.000
85.31973 181.000
85.33967 169.000
85.35962 164.000
85.37957 154.000
85.39952 173.000
85.41946 168.000
85.43941 169.000
85.45936 179.000
85.47930 184.000
85.49925 207.000
85.51920 154.000
85.53914 178.000
85.55909 168.000
85.57904 182.000
85.59899 181.000
85.61893 168.000
85.63888 163.000
85.65883 173.000
85.67877 184.000
85.69872 164.000
85.71867 183.000
85.73861 175.000
85.75856 158.000
85.77851 154.000
85.79845 169.000
85.81840 172.000
85.83835 158.000
85.85830 184.000
85.87824 198.000
85.89819 153.000
85.91814 211.000
85.93808 178.000
85.95803 165.000
85.97798 154.000
85.99792 170.000
86.01787 170.000
86.03782 152.000
86.05777 186.000
86.07771 164.000
86.09766 180.000
86.11761 166.000
86.13755 174.000
86.15750 180.000
86.17745 151.000
86.19739 172.000
86.21734 168.000
86.23729 182.000
86.25723 190.000
86.27718 173.000
86.29713 180.000
86.31708 173.000
86.33702 162.000
86.35697 169.000
86.37692 176.000
86.39686 172.000
86.41681 194.000
86.43676 170.000
86.45670 166.000
86.47665 183.000
86.49660 192.000
86.51655 173.000
86.53649 201.000
86.55644 174.000
86.57639 204.000
86.59633 186.000
86.61628 185.000
86.63623 214.000
86.65617 226.000
86.67612 214.000
86.69607 220.000
86.71602 209.000
86.73596 216.000
86.75591 207.000
86.77586 225.000
86.79580 198.000
86.81575 206.000
86.83570 222.000
86.85564 240.000
86.87559 172.000
86.89554 226.000
86.91548 196.000
86.93543 194.000
86.95538 234.000
86.97533 213.000
86.99527 222.000
87.01522 202.000
87.03517 212.000
87.05511 213.000
87.07506 191.000
87.09501 169.000
87.11495 199.000
87.13490 173.000
87.15485 181.000
87.17480 184.000
87.19474 174.000
87.21469 183.000
87.23464 191.000
87.25458 181.000
87.27453 199.000
87.29448 159.000
87.31442 192.000
87.33437 174.000
87.35432 178.000
87.37426 174.000
87.39421 174.000
87.41416 172.000
87.43411 164.000
87.45405 177.000
87.47400 173.000
87.49395 160.000
87.51389 174.000
87.53384 163.000
87.55379 174.000
87.57373 186.000
87.59368 162.000
87.61363 159.000
87.63358 191.000
87.65352 175.000
87.67347 181.000
87.69342 179.000
87.71336 160.000
87.73331 170.000
87.75326 168.000
87.77320 162.000
87.79315 170.000
87.81310 178.000
87.83304 165.000
87.85299 159.000
87.87294 175.000
87.89289 181.000
87.91283 154.000
87.93278 209.000
87.95273 184.000
87.97267 157.000
87.99262 154.000
88.01257 182.000
88.03251 181.000
88.05246 175.000
88.07241 172.000
88.09236 194.000
88.11230 159.000
88.13225 181.000
88.15220 173.000
88.17214 181.000
88.19209 180.000
88.21204 149.000
88.23198 165.000
88.25193 168.000
88.27188 155.000
88.29183 167.000
88.31177 178.000
88.33172 177.000
88.35167 155.000
88.37161 187.000
88.39156 164.000
88.41151 174.000
88.43145 177.000
88.45140 196.000
88.47135 197.000
88.49129 178.000
88.51124 140.000
88.53119 169.000
88.55114 187.000
88.57108 166.000
88.59103 154.000
88.61098 151.000
88.63092 179.000
88.65087 165.000
88.67082 156.000
88.69076 191.000
88.71071 151.000
88.73066 174.000
88.75061 164.000
88.77055 184.000
88.79050 158.000
88.81045 185.000
88.83039 179.000
88.85034 155.000
88.87029 140.000
88.89023 172.000
88.91018 193.000
88.93013 171.000
88.95007 183.000
88.97002 191.000
88.98997 167.000
89.00992 142.000
89.02986 175.000
89.04981 178.000
89.06976 157.000
89.08970 187.000
89.10965 146.000
89.12960 193.000
89.14954 168.000
89.16949 145.000
89.18944 188.000
89.20939 172.000
89.22933 176.000
89.24928 177.000
89.26923 165.000
89.28917 188.000
89.30912 163.000
89.32907 193.000
89.34901 160.000
89.36896 176.000
89.38891 185.000
89.40885 187.000
89.42880 205.000
89.44875 209.000
89.46870 186.000
89.48864 183.000
89.50859 178.000
89.52854 206.000
89.54848 202.000
89.56843 197.000
89.58838 212.000
89.60832 186.000
89.62827 186.000
89.64822 210.000
89.66817 183.000
89.68811 210.000
89.70806 159.000
89.72801 190.000
89.74795 193.000
89.76790 189.000
89.78785 186.000
89.80779 207.000
89.82774 214.000
89.84769 170.000
89.86764 202.000
89.88758 190.000
89.90753 203.000
89.92748 204.000
89.94742 181.000
89.96737 197.000
89.98732 207.000
90.00726 185.000
