10.00000 134.000
10.01995 137.000
10.03989 145.000
10.05984 140.000
10.07979 133.000
10.09973 145.000
10.11968 148.000
10.13963 136.000
10.15958 120.000
10.17952 119.000
10.19947 129.000
10.21942 163.000
10.23936 131.000
10.25931 131.000
10.27926 136.000
10.29920 142.000
10.31915 143.000
10.33910 132.000
10.35905 150.000
10.37899 146.000
10.39894 156.000
10.41889 143.000
10.43883 134.000
10.45878 157.000
10.47873 143.000
10.49867 152.000
10.51862 117.000
10.53857 140.000
10.55851 151.000
10.57846 128.000
10.59841 140.000
10.61836 129.000
10.63830 145.000
10.65825 137.000
10.67820 134.000
10.69814 169.000
10.71809 118.000
10.73804 123.000
10.75798 123.000
10.77793 129.000
10.79788 134.000
10.81783 131.000
10.83777 151.000
10.85772 131.000
10.87767 142.000
10.89761 132.000
10.91756 127.000
10.93751 131.000
10.95745 130.000
10.97740 124.000
10.99735 150.000
11.01730 130.000
11.03724 120.000
11.05719 145.000
11.07714 157.000
11.09708 144.000
11.11703 123.000
11.13698 153.000
11.15692 139.000
11.17687 135.000
11.19682 132.000
11.21676 135.000
11.23671 153.000
11.25666 127.000
11.27661 116.000
11.29655 154.000
11.31650 125.000
11.33645 143.000
11.35639 145.000
11.37634 133.000
11.39629 129.000
11.41623 138.000
11.43618 134.000
11.45613 155.000
11.47608 118.000
11.49602 146.000
11.51597 136.000
11.53592 134.000
11.55586 136.000
11.57581 156.000
11.59576 126.000
11.61570 139.000
11.63565 138.000
11.65560 137.000
11.67554 123.000
11.69549 135.000
11.71544 116.000
11.73539 141.000
11.75533 145.000
11.77528 136.000
11.79523 153.000
11.81517 144.000
11.83512 113.000
11.85507 130.000
11.87501 131.000
11.89496 132.000
11.91491 129.000
11.93486 116.000
11.95480 132.000
11.97475 123.000
11.99470 127.000
12.01464 133.000
12.03459 150.000
12.05454 128.000
12.07448 119.000
12.09443 119.000
12.11438 137.000
12.13432 129.000
12.15427 123.000
12.17422 114.000
12.19417 123.000
12.21411 134.000
12.23406 119.000
12.25401 141.000
12.27395 149.000
12.29390 154.000
12.31385 126.000
12.33379 155.000
12.35374 132.000
12.37369 122.000
12.39364 146.000
12.41358 141.000
12.43353 133.000
12.45348 124.000
12.47342 144.000
12.49337 134.000
12.51332 141.000
12.53326 156.000
12.55321 127.000
12.57316 147.000
12.59311 115.000
12.61305 141.000
12.63300 116.000
12.65295 122.000
12.67289 137.000
12.69284 147.000
12.71279 128.000
12.73273 124.000
12.75268 133.000
12.77263 123.000
12.79257 139.000
12.81252 140.000
12.83247 117.000
12.85242 124.000
12.87236 144.000
12.89231 142.000
12.91226 133.000
12.93220 142.000
12.95215 131.000
12.97210 132.000
12.99204 129.000
13.01199 119.000
13.03194 127.000
13.05189 144.000
13.07183 143.000
13.09178 111.000
13.11173 138.000
13.13167 154.000
13.15162 136.000
13.17157 138.000
13.19151 134.000
13.21146 127.000
13.23141 133.000
13.25135 145.000
13.27130 144.000
13.29125 138.000
13.31120 137.000
13.33114 151.000
13.35109 160.000
13.37104 132.000
13.39098 130.000
13.41093 135.000
13.43088 135.000
13.45082 122.000
13.47077 131.000
13.49072 134.000
13.51067 148.000
13.53061 142.000
13.55056 129.000
13.57051 151.000
13.59045 130.000
13.61040 149.000
13.63035 141.000
13.65029 132.000
13.67024 139.000
13.69019 130.000
13.71013 138.000
13.73008 137.000
13.75003 149.000
13.76998 122.000
13.78992 115.000
13.80987 117.000
13.82982 159.000
13.84976 114.000
13.86971 119.000
13.88966 134.000
13.90960 135.000
13.92955 136.000
13.94950 171.000
13.96945 121.000
13.98939 146.000
14.00934 153.000
14.02929 132.000
14.04923 142.000
14.06918 141.000
14.08913 140.000
14.10907 130.000
14.12902 120.000
14.14897 133.000
14.16892 112.000
14.18886 132.000
14.20881 144.000
14.22876 153.000
14.24870 121.000
14.26865 137.000
14.28860 143.000
14.30854 134.000
14.32849 148.000
14.34844 126.000
14.36838 128.000
14.38833 133.000
14.40828 139.000
14.42823 134.000
14.44817 126.000
14.46812 125.000
14.48807 154.000
14.50801 127.000
14.52796 131.000
14.54791 155.000
14.56785 145.000
14.58780 152.000
14.60775 162.000
14.62770 142.000
14.64764 170.000
14.66759 134.000
14.68754 157.000
14.70748 132.000
14.72743 131.000
14.74738 177.000
14.76732 153.000
14.78727 150.000
14.80722 156.000
14.82716 151.000
14.84711 127.000
14.86706 142.000
14.88701 162.000
14.90695 168.000
14.92690 143.000
14.94685 165.000
14.96679 180.000
14.98674 167.000
15.00669 142.000
15.02663 198.000
15.04658 135.000
15.06653 151.000
15.08648 162.000
15.10642 165.000
15.12637 152.000
15.14632 182.000
15.16626 178.000
15.18621 210.000
15.20616 181.000
15.22610 174.000
15.24605 171.000
15.26600 182.000
15.28594 210.000
15.30589 174.000
15.32584 196.000
15.34579 199.000
15.36573 176.000
15.38568 168.000
15.40563 231.000
15.42557 216.000
15.44552 216.000
15.46547 227.000
15.48541 253.000
15.50536 253.000
15.52531 263.000
15.54526 268.000
15.56520 276.000
15.58515 306.000
15.60510 314.000
15.62504 401.000
15.64499 411.000
15.66494 440.000
15.68488 527.000
15.70483 613.000
15.72478 740.000
15.74472 930.000
15.76467 1190.000
15.78462 1592.000
15.80457 2123.000
15.82451 2805.000
15.84446 3607.000
15.86441 4125.000
15.88435 4036.000
15.90430 3265.000
15.92425 2529.000
15.94419 1716.000
15.96414 1185.000
15.98409 869.000
16.00404 683.000
16.02398 630.000
16.04393 535.000
16.06388 539.000
16.08382 451.000
16.10377 449.000
16.12372 467.000
16.14366 407.000
16.16361 413.000
16.18356 408.000
16.20351 395.000
16.22345 329.000
16.24340 337.000
16.26335 351.000
16.28329 279.000
16.30324 263.000
16.32319 274.000
16.34313 251.000
16.36308 236.000
16.38303 217.000
16.40297 215.000
16.42292 210.000
16.44287 204.000
16.46282 201.000
16.48276 194.000
16.50271 218.000
16.52266 216.000
16.54260 188.000
16.56255 210.000
16.58250 172.000
16.60244 172.000
16.62239 168.000
16.64234 164.000
16.66229 157.000
16.68223 163.000
16.70218 163.000
16.72213 176.000
16.74207 169.000
16.76202 186.000
16.78197 150.000
16.80191 166.000
16.82186 171.000
16.84181 169.000
16.86175 134.000
16.88170 181.000
16.90165 155.000
16.92160 166.000
16.94154 159.000
16.96149 147.000
16.98144 177.000
17.00138 167.000
17.02133 141.000
17.04128 186.000
17.06122 144.000
17.08117 156.000
17.10112 159.000
17.12107 169.000
17.14101 163.000
17.16096 150.000
17.18091 161.000
17.20085 163.000
17.22080 166.000
17.24075 135.000
17.26069 125.000
17.28064 154.000
17.30059 162.000
17.32053 153.000
17.34048 146.000
17.36043 166.000
17.38038 147.000
17.40032 142.000
17.42027 159.000
17.44022 147.000
17.46016 134.000
17.48011 149.000
17.50006 172.000
17.52000 156.000
17.53995 146.000
17.55990 143.000
17.57985 151.000
17.59979 156.000
17.61974 148.000
17.63969 145.000
17.65963 151.000
17.67958 135.000
17.69953 143.000
17.71947 154.000
17.73942 139.000
17.75937 140.000
17.77932 160.000
17.79926 149.000
17.81921 116.000
17.83916 184.000
17.85910 138.000
17.87905 142.000
17.89900 126.000
17.91894 146.000
17.93889 141.000
17.95884 137.000
17.97878 156.000
17.99873 156.000
18.01868 146.000
18.03863 158.000
18.05857 159.000
18.07852 145.000
18.09847 170.000
18.11841 149.000
18.13836 136.000
18.15831 123.000
18.17825 156.000
18.19820 129.000
18.21815 132.000
18.23810 136.000
18.25804 159.000
18.27799 162.000
18.29794 172.000
18.31788 166.000
18.33783 225.000
18.35778 220.000
18.37772 284.000
18.39767 340.000
18.41762 366.000
18.43756 327.000
18.45751 309.000
18.47746 233.000
18.49741 168.000
18.51735 167.000
18.53730 158.000
18.55725 162.000
18.57719 139.000
18.59714 162.000
18.61709 146.000
18.63703 149.000
18.65698 147.000
18.67693 146.000
18.69688 158.000
18.71682 143.000
18.73677 122.000
18.75672 127.000
18.77666 137.000
18.79661 167.000
18.81656 146.000
18.83650 134.000
18.85645 146.000
18.87640 128.000
18.89634 136.000
18.91629 138.000
18.93624 117.000
18.95619 125.000
18.97613 166.000
18.99608 120.000
19.01603 141.000
19.03597 124.000
19.05592 138.000
19.07587 139.000
19.09581 134.000
19.11576 123.000
19.13571 145.000
19.15566 130.000
19.17560 129.000
19.19555 125.000
19.21550 151.000
19.23544 158.000
19.25539 120.000
19.27534 138.000
19.29528 118.000
19.31523 145.000
19.33518 132.000
19.35513 148.000
19.37507 132.000
19.39502 155.000
19.41497 147.000
19.43491 128.000
19.45486 142.000
19.47481 139.000
19.49475 136.000
19.51470 143.000
19.53465 113.000
19.55459 134.000
19.57454 130.000
19.59449 116.000
19.61444 116.000
19.63438 147.000
19.65433 138.000
19.67428 114.000
19.69422 136.000
19.71417 135.000
19.73412 126.000
19.75406 108.000
19.77401 133.000
19.79396 130.000
19.81391 110.000
19.83385 136.000
19.85380 147.000
19.87375 136.000
19.89369 130.000
19.91364 125.000
19.93359 146.000
19.95353 135.000
19.97348 114.000
19.99343 127.000
20.01337 119.000
20.03332 110.000
20.05327 139.000
20.07322 148.000
20.09316 129.000
20.11311 127.000
20.13306 127.000
20.15300 137.000
20.17295 139.000
20.19290 141.000
20.21284 151.000
20.23279 144.000
20.25274 139.000
20.27269 141.000
20.29263 128.000
20.31258 140.000
20.33253 115.000
20.35247 147.000
20.37242 155.000
20.39237 117.000
20.41231 122.000
20.43226 142.000
20.45221 151.000
20.47215 146.000
20.49210 139.000
20.51205 137.000
20.53200 145.000
20.55194 116.000
20.57189 137.000
20.59184 143.000
20.61178 146.000
20.63173 130.000
20.65168 127.000
20.67162 145.000
20.69157 117.000
20.71152 127.000
20.73147 127.000
20.75141 151.000
20.77136 114.000
20.79131 126.000
20.81125 126.000
20.83120 151.000
20.85115 140.000
20.87109 130.000
20.89104 141.000
20.91099 152.000
20.93094 132.000
20.95088 148.000
20.97083 123.000
20.99078 132.000
21.01072 139.000
21.03067 156.000
21.05062 155.000
21.07056 154.000
21.09051 146.000
21.11046 165.000
21.13040 121.000
21.15035 146.000
21.17030 140.000
21.19025 137.000
21.21019 134.000
21.23014 148.000
21.25009 130.000
21.27003 117.000
21.28998 155.000
21.30993 126.000
21.32987 107.000
21.34982 138.000
21.36977 135.000
21.38972 153.000
21.40966 148.000
21.42961 152.000
21.44956 132.000
21.46950 126.000
21.48945 143.000
21.50940 157.000
21.52934 122.000
21.54929 138.000
21.56924 133.000
21.58918 136.000
21.60913 115.000
21.62908 132.000
21.64903 125.000
21.66897 146.000
21.68892 149.000
21.70887 141.000
21.72881 127.000
21.74876 118.000
21.76871 122.000
21.78865 136.000
21.80860 125.000
21.82855 127.000
21.84850 122.000
21.86844 126.000
21.88839 117.000
21.90834 140.000
21.92828 134.000
21.94823 146.000
21.96818 106.000
21.98812 142.000
22.00807 111.000
22.02802 147.000
22.04796 116.000
22.06791 150.000
22.08786 135.000
22.10781 130.000
22.12775 129.000
22.14770 140.000
22.16765 148.000
22.18759 123.000
22.20754 149.000
22.22749 131.000
22.24743 128.000
22.26738 154.000
22.28733 138.000
22.30728 135.000
22.32722 116.000
22.34717 136.000
22.36712 135.000
22.38706 135.000
22.40701 131.000
22.42696 124.000
22.44690 140.000
22.46685 137.000
22.48680 132.000
22.50675 151.000
22.52669 123.000
22.54664 128.000
22.56659 140.000
22.58653 140.000
22.60648 131.000
22.62643 131.000
22.64637 142.000
22.66632 135.000
22.68627 139.000
22.70621 129.000
22.72616 120.000
22.74611 125.000
22.76606 117.000
22.78600 133.000
22.80595 134.000
22.82590 140.000
22.84584 125.000
22.86579 133.000
22.88574 132.000
22.90568 128.000
22.92563 138.000
22.94558 131.000
22.96553 126.000
22.98547 147.000
23.00542 134.000
23.02537 124.000
23.04531 106.000
23.06526 144.000
23.08521 144.000
23.10515 142.000
23.12510 134.000
23.14505 133.000
23.16499 132.000
23.18494 121.000
23.20489 140.000
23.22484 120.000
23.24478 132.000
23.26473 128.000
23.28468 131.000
23.30462 131.000
23.32457 122.000
23.34452 125.000
23.36446 136.000
23.38441 134.000
23.40436 129.000
23.42431 115.000
23.44425 121.000
23.46420 132.000
23.48415 106.000
23.50409 145.000
23.52404 126.000
23.54399 119.000
23.56393 133.000
23.58388 112.000
23.60383 126.000
23.62377 144.000
23.64372 138.000
23.66367 128.000
23.68362 145.000
23.70356 123.000
23.72351 159.000
23.74346 120.000
23.76340 149.000
23.78335 140.000
23.80330 122.000
23.82324 124.000
23.84319 137.000
23.86314 121.000
23.88309 138.000
23.90303 125.000
23.92298 143.000
23.94293 105.000
23.96287 146.000
23.98282 134.000
24.00277 133.000
24.02271 130.000
24.04266 128.000
24.06261 109.000
24.08256 119.000
24.10250 130.000
24.12245 122.000
24.14240 131.000
24.16234 135.000
24.18229 116.000
24.20224 146.000
24.22218 151.000
24.24213 162.000
24.26208 136.000
24.28202 124.000
24.30197 115.000
24.32192 139.000
24.34187 123.000
24.36181 159.000
24.38176 140.000
24.40171 118.000
24.42165 133.000
24.44160 143.000
24.46155 130.000
24.48149 128.000
24.50144 113.000
24.52139 147.000
24.54134 122.000
24.56128 140.000
24.58123 148.000
24.60118 140.000
24.62112 105.000
24.64107 149.000
24.66102 136.000
24.68096 119.000
24.70091 117.000
24.72086 135.000
24.74080 109.000
24.76075 141.000
24.78070 132.000
24.80065 126.000
24.82059 113.000
24.84054 146.000
24.86049 151.000
24.88043 126.000
24.90038 130.000
24.92033 148.000
24.94027 114.000
24.96022 123.000
24.98017 105.000
25.00012 144.000
25.02006 132.000
25.04001 137.000
25.05996 148.000
25.07990 129.000
25.09985 127.000
25.11980 139.000
25.13974 119.000
25.15969 109.000
25.17964 138.000
25.19958 120.000
25.21953 122.000
25.23948 105.000
25.25943 137.000
25.27937 113.000
25.29932 131.000
25.31927 142.000
25.33921 141.000
25.35916 150.000
25.37911 129.000
25.39905 128.000
25.41900 124.000
25.43895 120.000
25.45890 126.000
25.47884 148.000
25.49879 142.000
25.51874 133.000
25.53868 135.000
25.55863 124.000
25.57858 125.000
25.59852 141.000
25.61847 128.000
25.63842 155.000
25.65837 163.000
25.67831 125.000
25.69826 131.000
25.71821 114.000
25.73815 136.000
25.75810 123.000
25.77805 125.000
25.79799 137.000
25.81794 147.000
25.83789 156.000
25.85783 138.000
25.87778 170.000
25.89773 130.000
25.91768 120.000
25.93762 114.000
25.95757 121.000
25.97752 118.000
25.99746 145.000
26.01741 107.000
26.03736 150.000
26.05730 120.000
26.07725 144.000
26.09720 120.000
26.11715 139.000
26.13709 137.000
26.15704 159.000
26.17699 109.000
26.19693 122.000
26.21688 129.000
26.23683 115.000
26.25677 125.000
26.27672 150.000
26.29667 120.000
26.31661 137.000
26.33656 109.000
26.35651 137.000
26.37646 137.000
26.39640 115.000
26.41635 151.000
26.43630 133.000
26.45624 148.000
26.47619 134.000
26.49614 134.000
26.51608 120.000
26.53603 132.000
26.55598 133.000
26.57593 142.000
26.59587 131.000
26.61582 128.000
26.63577 122.000
26.65571 118.000
26.67566 119.000
26.69561 164.000
26.71555 144.000
26.73550 145.000
26.75545 134.000
26.77539 135.000
26.79534 147.000
26.81529 119.000
26.83524 138.000
26.85518 119.000
26.87513 161.000
26.89508 138.000
26.91502 148.000
26.93497 144.000
26.95492 128.000
26.97486 131.000
26.99481 126.000
27.01476 115.000
27.03471 143.000
27.05465 134.000
27.07460 146.000
27.09455 121.000
27.11449 141.000
27.13444 138.000
27.15439 120.000
27.17433 136.000
27.19428 126.000
27.21423 142.000
27.23417 141.000
27.25412 143.000
27.27407 145.000
27.29402 140.000
27.31396 157.000
27.33391 161.000
27.35386 156.000
27.37380 139.000
27.39375 146.000
27.41370 131.000
27.43364 145.000
27.45359 133.000
27.47354 123.000
27.49349 130.000
27.51343 152.000
27.53338 126.000
27.55333 123.000
27.57327 123.000
27.59322 127.000
27.61317 144.000
27.63311 149.000
27.65306 139.000
27.67301 136.000
27.69296 133.000
27.71290 125.000
27.73285 122.000
27.75280 125.000
27.77274 127.000
27.79269 139.000
27.81264 139.000
27.83258 136.000
27.85253 142.000
27.87248 135.000
27.89242 136.000
27.91237 127.000
27.93232 139.000
27.95227 139.000
27.97221 138.000
27.99216 132.000
28.01211 130.000
28.03205 125.000
28.05200 123.000
28.07195 153.000
28.09189 158.000
28.11184 139.000
28.13179 127.000
28.15174 148.000
28.17168 134.000
28.19163 126.000
28.21158 128.000
28.23152 130.000
28.25147 151.000
28.27142 135.000
28.29136 160.000
28.31131 138.000
28.33126 138.000
28.35120 129.000
28.37115 147.000
28.39110 138.000
28.41105 126.000
28.43099 130.000
28.45094 141.000
28.47089 149.000
28.49083 137.000
28.51078 131.000
28.53073 132.000
28.55067 137.000
28.57062 148.000
28.59057 108.000
28.61052 137.000
28.63046 127.000
28.65041 121.000
28.67036 125.000
28.69030 128.000
28.71025 141.000
28.73020 144.000
28.75014 130.000
28.77009 119.000
28.79004 148.000
28.80998 135.000
28.82993 158.000
28.84988 138.000
28.86983 156.000
28.88977 150.000
28.90972 143.000
28.92967 159.000
28.94961 155.000
28.96956 148.000
28.98951 124.000
29.00945 123.000
29.02940 164.000
29.04935 141.000
29.06930 145.000
29.08924 132.000
29.10919 156.000
29.12914 136.000
29.14908 136.000
29.16903 121.000
29.18898 148.000
29.20892 137.000
29.22887 137.000
29.24882 139.000
29.26877 123.000
29.28871 122.000
29.30866 155.000
29.32861 144.000
29.34855 146.000
29.36850 159.000
29.38845 155.000
29.40839 145.000
29.42834 132.000
29.44829 138.000
29.46823 162.000
29.48818 146.000
29.50813 139.000
29.52808 144.000
29.54802 148.000
29.56797 136.000
29.58792 118.000
29.60786 139.000
29.62781 149.000
29.64776 132.000
29.66770 157.000
29.68765 162.000
29.70760 136.000
29.72755 132.000
29.74749 145.000
29.76744 140.000
29.78739 149.000
29.80733 145.000
29.82728 125.000
29.84723 146.000
29.86717 145.000
29.88712 147.000
29.90707 130.000
29.92701 162.000
29.94696 156.000
29.96691 147.000
29.98686 139.000
30.00680 170.000
30.02675 172.000
30.04670 156.000
30.06664 155.000
30.08659 173.000
30.10654 180.000
30.12648 180.000
30.14643 208.000
30.16638 220.000
30.18633 247.000
30.20627 275.000
30.22622 379.000
30.24617 463.000
30.26611 600.000
30.28606 675.000
30.30601 633.000
30.32595 527.000
30.34590 553.000
30.36585 440.000
30.38579 382.000
30.40574 299.000
30.42569 233.000
30.44564 226.000
30.46558 188.000
30.48553 180.000
30.50548 188.000
30.52542 152.000
30.54537 172.000
30.56532 157.000
30.58526 173.000
30.60521 158.000
30.62516 153.000
30.64511 163.000
30.66505 168.000
30.68500 140.000
30.70495 160.000
30.72489 175.000
30.74484 155.000
30.76479 152.000
30.78473 163.000
30.80468 162.000
30.82463 154.000
30.84458 171.000
30.86452 138.000
30.88447 150.000
30.90442 146.000
30.92436 171.000
30.94431 159.000
30.96426 151.000
30.98420 131.000
31.00415 153.000
31.02410 137.000
31.04404 142.000
31.06399 173.000
31.08394 148.000
31.10389 140.000
31.12383 135.000
31.14378 169.000
31.16373 155.000
31.18367 159.000
31.20362 165.000
31.22357 141.000
31.24351 142.000
31.26346 140.000
31.28341 149.000
31.30336 157.000
31.32330 152.000
31.34325 130.000
31.36320 146.000
31.38314 137.000
31.40309 158.000
31.42304 165.000
31.44298 153.000
31.46293 146.000
31.48288 147.000
31.50282 135.000
31.52277 146.000
31.54272 162.000
31.56267 179.000
31.58261 156.000
31.60256 149.000
31.62251 154.000
31.64245 156.000
31.66240 169.000
31.68235 147.000
31.70229 150.000
31.72224 167.000
31.74219 157.000
31.76214 153.000
31.78208 138.000
31.80203 173.000
31.82198 182.000
31.84192 159.000
31.86187 175.000
31.88182 213.000
31.90176 196.000
31.92171 208.000
31.94166 220.000
31.96160 248.000
31.98155 301.000
32.00150 330.000
32.02145 350.000
32.04139 378.000
32.06134 452.000
32.08129 430.000
32.10123 462.000
32.12118 421.000
32.14113 393.000
32.16107 338.000
32.18102 284.000
32.20097 289.000
32.22092 237.000
32.24086 250.000
32.26081 222.000
32.28076 182.000
32.30070 205.000
32.32065 173.000
32.34060 206.000
32.36054 174.000
32.38049 160.000
32.40044 178.000
32.42039 184.000
32.44033 172.000
32.46028 191.000
32.48023 176.000
32.50017 176.000
32.52012 185.000
32.54007 183.000
32.56001 192.000
32.57996 178.000
32.59991 179.000
32.61985 164.000
32.63980 181.000
32.65975 149.000
32.67970 182.000
32.69964 175.000
32.71959 156.000
32.73954 162.000
32.75948 180.000
32.77943 163.000
32.79938 180.000
32.81932 159.000
32.83927 140.000
32.85922 143.000
32.87917 157.000
32.89911 161.000
32.91906 164.000
32.93901 166.000
32.95895 157.000
32.97890 129.000
32.99885 140.000
33.01879 138.000
33.03874 147.000
33.05869 153.000
33.07863 148.000
33.09858 169.000
33.11853 178.000
33.13848 130.000
33.15842 141.000
33.17837 141.000
33.19832 126.000
33.21826 133.000
33.23821 171.000
33.25816 154.000
33.27810 141.000
33.29805 135.000
33.31800 156.000
33.33795 129.000
33.35789 139.000
33.37784 152.000
33.39779 153.000
33.41773 136.000
33.43768 122.000
33.45763 130.000
33.47757 152.000
33.49752 138.000
33.51747 140.000
33.53741 144.000
33.55736 141.000
33.57731 133.000
33.59726 157.000
33.61720 162.000
33.63715 165.000
33.65710 149.000
33.67704 148.000
33.69699 167.000
33.71694 149.000
33.73688 160.000
33.75683 150.000
33.77678 139.000
33.79673 159.000
33.81667 148.000
33.83662 121.000
33.85657 148.000
33.87651 153.000
33.89646 139.000
33.91641 171.000
33.93635 140.000
33.95630 176.000
33.97625 164.000
33.99620 148.000
34.01614 146.000
34.03609 174.000
34.05604 166.000
34.07598 150.000
34.09593 154.000
34.11588 139.000
34.13582 150.000
34.15577 170.000
34.17572 142.000
34.19566 146.000
34.21561 154.000
34.23556 162.000
34.25551 140.000
34.27545 163.000
34.29540 166.000
34.31535 157.000
34.33529 181.000
34.35524 162.000
34.37519 143.000
34.39513 153.000
34.41508 164.000
34.43503 160.000
34.45498 175.000
34.47492 167.000
34.49487 156.000
34.51482 157.000
34.53476 178.000
34.55471 142.000
34.57466 178.000
34.59460 177.000
34.61455 176.000
34.63450 155.000
34.65444 166.000
34.67439 187.000
34.69434 161.000
34.71429 152.000
34.73423 164.000
34.75418 170.000
34.77413 175.000
34.79407 159.000
34.81402 178.000
34.83397 149.000
34.85391 164.000
34.87386 157.000
34.89381 169.000
34.91376 172.000
34.93370 167.000
34.95365 200.000
34.97360 156.000
34.99354 181.000
35.01349 187.000
35.03344 180.000
35.05338 175.000
35.07333 171.000
35.09328 169.000
35.11322 176.000
35.13317 202.000
35.15312 169.000
35.17307 196.000
35.19301 196.000
35.21296 191.000
35.23291 216.000
35.25285 215.000
35.27280 204.000
35.29275 233.000
35.31269 243.000
35.33264 233.000
35.35259 292.000
35.37254 349.000
35.39248 384.000
35.41243 491.000
35.43238 537.000
35.45232 590.000
35.47227 740.000
35.49222 837.000
35.51216 961.000
35.53211 1057.000
35.55206 1146.000
35.57201 1210.000
35.59195 1325.000
35.61190 1470.000
35.63185 1798.000
35.65179 1995.000
35.67174 2099.000
35.69169 1899.000
35.71163 1734.000
35.73158 1585.000
35.75153 1506.000
35.77147 1284.000
35.79142 1046.000
35.81137 827.000
35.83132 691.000
35.85126 521.000
35.87121 405.000
35.89116 339.000
35.91110 332.000
35.93105 279.000
35.95100 267.000
35.97094 233.000
35.99089 231.000
36.01084 222.000
36.03079 222.000
36.05073 201.000
36.07068 203.000
36.09063 201.000
36.11057 180.000
36.13052 195.000
36.15047 185.000
36.17041 203.000
36.19036 202.000
36.21031 188.000
36.23025 168.000
36.25020 181.000
36.27015 181.000
36.29010 195.000
36.31004 190.000
36.32999 162.000
36.34994 213.000
36.36988 182.000
36.38983 212.000
36.40978 188.000
36.42972 201.000
36.44967 242.000
36.46962 210.000
36.48957 195.000
36.50951 224.000
36.52946 208.000
36.54941 208.000
36.56935 220.000
36.58930 235.000
36.60925 230.000
36.62919 204.000
36.64914 209.000
36.66909 231.000
36.68903 239.000
36.70898 246.000
36.72893 258.000
36.74888 251.000
36.76882 301.000
36.78877 290.000
36.80872 348.000
36.82866 373.000
36.84861 353.000
36.86856 429.000
36.88850 405.000
36.90845 496.000
36.92840 448.000
36.94835 513.000
36.96829 505.000
36.98824 540.000
37.00819 569.000
37.02813 533.000
37.04808 496.000
37.06803 498.000
37.08797 459.000
37.10792 462.000
37.12787 373.000
37.14781 370.000
37.16776 345.000
37.18771 334.000
37.20766 283.000
37.22760 296.000
37.24755 283.000
37.26750 301.000
37.28744 322.000
37.30739 290.000
37.32734 295.000
37.34728 269.000
37.36723 288.000
37.38718 289.000
37.40713 251.000
37.42707 207.000
37.44702 232.000
37.46697 204.000
37.48691 181.000
37.50686 200.000
37.52681 169.000
37.54675 159.000
37.56670 160.000
37.58665 152.000
37.60660 177.000
37.62654 145.000
37.64649 151.000
37.66644 155.000
37.68638 147.000
37.70633 148.000
37.72628 164.000
37.74622 170.000
37.76617 158.000
37.78612 142.000
37.80606 153.000
37.82601 164.000
37.84596 155.000
37.86591 151.000
37.88585 152.000
37.90580 153.000
37.92575 160.000
37.94569 159.000
37.96564 147.000
37.98559 155.000
38.00553 149.000
38.02548 160.000
38.04543 169.000
38.06538 160.000
38.08532 139.000
38.10527 192.000
38.12522 162.000
38.14516 177.000
38.16511 168.000
38.18506 179.000
38.20500 158.000
38.22495 163.000
38.24490 169.000
38.26484 166.000
38.28479 162.000
38.30474 170.000
38.32469 170.000
38.34463 163.000
38.36458 190.000
38.38453 194.000
38.40447 167.000
38.42442 182.000
38.44437 202.000
38.46431 182.000
38.48426 241.000
38.50421 193.000
38.52416 221.000
38.54410 254.000
38.56405 275.000
38.58400 276.000
38.60394 338.000
38.62389 326.000
38.64384 358.000
38.66378 366.000
38.68373 355.000
38.70368 359.000
38.72362 335.000
38.74357 377.000
38.76352 345.000
38.78347 331.000
38.80341 342.000
38.82336 328.000
38.84331 354.000
38.86325 325.000
38.88320 333.000
38.90315 361.000
38.92309 363.000
38.94304 388.000
38.96299 349.000
38.98294 429.000
39.00288 445.000
39.02283 553.000
39.04278 595.000
39.06272 748.000
39.08267 863.000
39.10262 1024.000
39.12256 1024.000
39.14251 1086.000
39.16246 1069.000
39.18241 1063.000
39.20235 1034.000
39.22230 995.000
39.24225 876.000
39.26219 828.000
39.28214 726.000
39.30209 638.000
39.32203 511.000
39.34198 467.000
39.36193 442.000
39.38187 419.000
39.40182 379.000
39.42177 346.000
39.44172 292.000
39.46166 291.000
39.48161 236.000
39.50156 237.000
39.52150 228.000
39.54145 229.000
39.56140 222.000
39.58134 205.000
39.60129 186.000
39.62124 193.000
39.64119 182.000
39.66113 186.000
39.68108 146.000
39.70103 192.000
39.72097 182.000
39.74092 171.000
39.76087 191.000
39.78081 170.000
39.80076 160.000
39.82071 161.000
39.84065 177.000
39.86060 164.000
39.88055 169.000
39.90050 165.000
39.92044 172.000
39.94039 183.000
39.96034 158.000
39.98028 154.000
40.00023 146.000
40.02018 176.000
40.04012 149.000
40.06007 182.000
40.08002 155.000
40.09997 159.000
40.11991 168.000
40.13986 168.000
40.15981 139.000
40.17975 176.000
40.19970 142.000
40.21965 154.000
40.23959 152.000
40.25954 144.000
40.27949 172.000
40.29943 151.000
40.31938 147.000
40.33933 163.000
40.35928 131.000
40.37922 132.000
40.39917 165.000
40.41912 166.000
40.43906 155.000
40.45901 136.000
40.47896 159.000
40.49890 163.000
40.51885 148.000
40.53880 148.000
40.55875 161.000
40.57869 161.000
40.59864 157.000
40.61859 156.000
40.63853 161.000
40.65848 156.000
40.67843 153.000
40.69837 173.000
40.71832 148.000
40.73827 168.000
40.75822 149.000
40.77816 160.000
40.79811 140.000
40.81806 140.000
40.83800 136.000
40.85795 168.000
40.87790 155.000
40.89784 163.000
40.91779 155.000
40.93774 145.000
40.95768 170.000
40.97763 140.000
40.99758 163.000
41.01753 156.000
41.03747 147.000
41.05742 164.000
41.07737 168.000
41.09731 142.000
41.11726 143.000
41.13721 163.000
41.15715 165.000
41.17710 163.000
41.19705 154.000
41.21700 152.000
41.23694 158.000
41.25689 152.000
41.27684 156.000
41.29678 165.000
41.31673 191.000
41.33668 166.000
41.35662 164.000
41.37657 156.000
41.39652 189.000
41.41646 179.000
41.43641 160.000
41.45636 188.000
41.47631 174.000
41.49625 178.000
41.51620 203.000
41.53615 193.000
41.55609 217.000
41.57604 225.000
41.59599 255.000
41.61593 262.000
41.63588 263.000
41.65583 265.000
41.67578 256.000
41.69572 286.000
41.71567 253.000
41.73562 214.000
41.75556 222.000
41.77551 256.000
41.79546 237.000
41.81540 222.000
41.83535 201.000
41.85530 208.000
41.87524 201.000
41.89519 193.000
41.91514 198.000
41.93509 210.000
41.95503 163.000
41.97498 158.000
41.99493 173.000
42.01487 176.000
42.03482 184.000
42.05477 178.000
42.07471 160.000
42.09466 150.000
42.11461 166.000
42.13456 186.000
42.15450 168.000
42.17445 206.000
42.19440 198.000
42.21434 170.000
42.23429 156.000
42.25424 159.000
42.27418 181.000
42.29413 181.000
42.31408 168.000
42.33403 169.000
42.35397 181.000
42.37392 197.000
42.39387 192.000
42.41381 201.000
42.43376 165.000
42.45371 202.000
42.47365 205.000
42.49360 214.000
42.51355 215.000
42.53349 210.000
42.55344 214.000
42.57339 228.000
42.59334 224.000
42.61328 204.000
42.63323 247.000
42.65318 246.000
42.67312 231.000
42.69307 267.000
42.71302 266.000
42.73296 278.000
42.75291 305.000
42.77286 268.000
42.79281 304.000
42.81275 318.000
42.83270 377.000
42.85265 385.000
42.87259 423.000
42.89254 462.000
42.91249 434.000
42.93243 486.000
42.95238 521.000
42.97233 603.000
42.99227 620.000
43.01222 603.000
43.03217 583.000
43.05212 587.000
43.07206 645.000
43.09201 616.000
43.11196 648.000
43.13190 626.000
43.15185 619.000
43.17180 612.000
43.19174 680.000
43.21169 666.000
43.23164 670.000
43.25159 754.000
43.27153 758.000
43.29148 776.000
43.31143 828.000
43.33137 828.000
43.35132 843.000
43.37127 807.000
43.39121 756.000
43.41116 719.000
43.43111 653.000
43.45105 583.000
43.47100 562.000
43.49095 508.000
43.51090 441.000
43.53084 353.000
43.55079 366.000
43.57074 316.000
43.59068 270.000
43.61063 237.000
43.63058 258.000
43.65052 243.000
43.67047 229.000
43.69042 225.000
43.71037 205.000
43.73031 217.000
43.75026 188.000
43.77021 173.000
43.79015 162.000
43.81010 185.000
43.83005 166.000
43.84999 180.000
43.86994 164.000
43.88989 175.000
43.90984 182.000
43.92978 169.000
43.94973 163.000
43.96968 158.000
43.98962 153.000
44.00957 166.000
44.02952 161.000
44.04946 163.000
44.06941 179.000
44.08936 156.000
44.10930 166.000
44.12925 141.000
44.14920 176.000
44.16915 159.000
44.18909 163.000
44.20904 167.000
44.22899 161.000
44.24893 160.000
44.26888 151.000
44.28883 171.000
44.30877 164.000
44.32872 155.000
44.34867 153.000
44.36862 147.000
44.38856 148.000
44.40851 168.000
44.42846 160.000
44.44840 148.000
44.46835 144.000
44.48830 169.000
44.50824 144.000
44.52819 142.000
44.54814 151.000
44.56808 151.000
44.58803 140.000
44.60798 166.000
44.62793 160.000
44.64787 147.000
44.66782 147.000
44.68777 170.000
44.70771 146.000
44.72766 138.000
44.74761 155.000
44.76755 161.000
44.78750 146.000
44.80745 150.000
44.82740 150.000
44.84734 139.000
44.86729 153.000
44.88724 149.000
44.90718 148.000
44.92713 159.000
44.94708 145.000
44.96702 137.000
44.98697 147.000
45.00692 153.000
45.02686 140.000
45.04681 143.000
45.06676 154.000
45.08671 151.000
45.10665 166.000
45.12660 127.000
45.14655 153.000
45.16649 140.000
45.18644 135.000
45.20639 119.000
45.22633 164.000
45.24628 149.000
45.26623 140.000
45.28618 153.000
45.30612 134.000
45.32607 143.000
45.34602 142.000
45.36596 132.000
45.38591 156.000
45.40586 152.000
45.42580 145.000
45.44575 150.000
45.46570 154.000
45.48565 157.000
45.50559 137.000
45.52554 148.000
45.54549 133.000
45.56543 137.000
45.58538 140.000
45.60533 120.000
45.62527 133.000
45.64522 132.000
45.66517 160.000
45.68511 154.000
45.70506 156.000
45.72501 155.000
45.74496 139.000
45.76490 139.000
45.78485 160.000
45.80480 144.000
45.82474 142.000
45.84469 129.000
45.86464 142.000
45.88458 158.000
45.90453 136.000
45.92448 132.000
45.94443 147.000
45.96437 137.000
45.98432 136.000
46.00427 135.000
46.02421 138.000
46.04416 139.000
46.06411 148.000
46.08405 133.000
46.10400 131.000
46.12395 142.000
46.14389 142.000
46.16384 133.000
46.18379 117.000
46.20374 146.000
46.22368 135.000
46.24363 156.000
46.26358 164.000
46.28352 159.000
46.30347 137.000
46.32342 138.000
46.34336 144.000
46.36331 144.000
46.38326 166.000
46.40321 132.000
46.42315 128.000
46.44310 151.000
46.46305 157.000
46.48299 126.000
46.50294 145.000
46.52289 121.000
46.54283 147.000
46.56278 134.000
46.58273 138.000
46.60267 140.000
46.62262 129.000
46.64257 129.000
46.66252 156.000
46.68246 145.000
46.70241 150.000
46.72236 144.000
46.74230 143.000
46.76225 130.000
46.78220 146.000
46.80214 154.000
46.82209 141.000
46.84204 135.000
46.86199 135.000
46.88193 145.000
46.90188 140.000
46.92183 127.000
46.94177 147.000
46.96172 140.000
46.98167 140.000
47.00161 109.000
47.02156 156.000
47.04151 140.000
47.06146 147.000
47.08140 149.000
47.10135 158.000
47.12130 154.000
47.14124 145.000
47.16119 129.000
47.18114 126.000
47.20108 132.000
47.22103 143.000
47.24098 146.000
47.26092 148.000
47.28087 127.000
47.30082 145.000
47.32077 142.000
47.34071 147.000
47.36066 152.000
47.38061 170.000
47.40055 151.000
47.42050 186.000
47.44045 139.000
47.46039 141.000
47.48034 151.000
47.50029 157.000
47.52024 126.000
47.54018 142.000
47.56013 151.000
47.58008 141.000
47.60002 145.000
47.61997 154.000
47.63992 173.000
47.65986 137.000
47.67981 146.000
47.69976 157.000
47.71970 143.000
47.73965 156.000
47.75960 152.000
47.77955 146.000
47.79949 149.000
47.81944 160.000
47.83939 135.000
47.85933 141.000
47.87928 155.000
47.89923 165.000
47.91917 179.000
47.93912 157.000
47.95907 154.000
47.97902 132.000
47.99896 171.000
48.01891 172.000
48.03886 152.000
48.05880 144.000
48.07875 185.000
48.09870 168.000
48.11864 187.000
48.13859 176.000
48.15854 176.000
48.17848 167.000
48.19843 177.000
48.21838 191.000
48.23833 184.000
48.25827 203.000
48.27822 202.000
48.29817 192.000
48.31811 212.000
48.33806 204.000
48.35801 219.000
48.37795 233.000
48.39790 296.000
48.41785 268.000
48.43780 303.000
48.45774 326.000
48.47769 358.000
48.49764 393.000
48.51758 471.000
48.53753 501.000
48.55748 582.000
48.57742 658.000
48.59737 694.000
48.61732 719.000
48.63726 767.000
48.65721 772.000
48.67716 768.000
48.69711 701.000
48.71705 718.000
48.73700 669.000
48.75695 736.000
48.77689 624.000
48.79684 593.000
48.81679 541.000
48.83673 517.000
48.85668 468.000
48.87663 448.000
48.89658 396.000
48.91652 358.000
48.93647 322.000
48.95642 299.000
48.97636 307.000
48.99631 307.000
49.01626 243.000
49.03620 264.000
49.05615 194.000
49.07610 244.000
49.09605 210.000
49.11599 206.000
49.13594 213.000
49.15589 172.000
49.17583 194.000
49.19578 172.000
49.21573 159.000
49.23567 180.000
49.25562 157.000
49.27557 196.000
49.29551 188.000
49.31546 201.000
49.33541 162.000
49.35536 166.000
49.37530 158.000
49.39525 168.000
49.41520 169.000
49.43514 159.000
49.45509 148.000
49.47504 149.000
49.49498 164.000
49.51493 157.000
49.53488 168.000
49.55483 149.000
49.57477 163.000
49.59472 147.000
49.61467 154.000
49.63461 157.000
49.65456 162.000
49.67451 162.000
49.69445 156.000
49.71440 148.000
49.73435 154.000
49.75429 158.000
49.77424 148.000
49.79419 156.000
49.81414 153.000
49.83408 163.000
49.85403 163.000
49.87398 145.000
49.89392 168.000
49.91387 142.000
49.93382 167.000
49.95376 157.000
49.97371 134.000
49.99366 168.000
50.01361 150.000
50.03355 145.000
50.05350 146.000
50.07345 165.000
50.09339 142.000
50.11334 160.000
50.13329 136.000
50.15323 133.000
50.17318 133.000
50.19313 161.000
50.21307 162.000
50.23302 145.000
50.25297 130.000
50.27292 138.000
50.29286 152.000
50.31281 114.000
50.33276 137.000
50.35270 135.000
50.37265 150.000
50.39260 151.000
50.41254 116.000
50.43249 145.000
50.45244 157.000
50.47239 161.000
50.49233 147.000
50.51228 135.000
50.53223 146.000
50.55217 132.000
50.57212 153.000
50.59207 133.000
50.61201 150.000
50.63196 146.000
50.65191 119.000
50.67186 153.000
50.69180 138.000
50.71175 133.000
50.73170 154.000
50.75164 153.000
50.77159 130.000
50.79154 134.000
50.81148 155.000
50.83143 150.000
50.85138 140.000
50.87132 126.000
50.89127 143.000
50.91122 139.000
50.93117 147.000
50.95111 159.000
50.97106 127.000
50.99101 147.000
51.01095 140.000
51.03090 124.000
51.05085 134.000
51.07079 131.000
51.09074 125.000
51.11069 152.000
51.13064 150.000
51.15058 160.000
51.17053 145.000
51.19048 147.000
51.21042 149.000
51.23037 165.000
51.25032 136.000
51.27026 158.000
51.29021 143.000
51.31016 140.000
51.33010 135.000
51.35005 123.000
51.37000 140.000
51.38995 141.000
51.40989 118.000
51.42984 139.000
51.44979 131.000
51.46973 130.000
51.48968 153.000
51.50963 129.000
51.52957 120.000
51.54952 137.000
51.56947 146.000
51.58942 137.000
51.60936 148.000
51.62931 129.000
51.64926 133.000
51.66920 149.000
51.68915 121.000
51.70910 127.000
51.72904 143.000
51.74899 132.000
51.76894 128.000
51.78888 127.000
51.80883 131.000
51.82878 140.000
51.84873 139.000
51.86867 145.000
51.88862 150.000
51.90857 154.000
51.92851 135.000
51.94846 135.000
51.96841 149.000
51.98835 131.000
52.00830 138.000
52.02825 124.000
52.04820 119.000
52.06814 119.000
52.08809 113.000
52.10804 147.000
52.12798 121.000
52.14793 118.000
52.16788 131.000
52.18782 148.000
52.20777 135.000
52.22772 147.000
52.24767 130.000
52.26761 116.000
52.28756 128.000
52.30751 136.000
52.32745 142.000
52.34740 123.000
52.36735 145.000
52.38729 133.000
52.40724 152.000
52.42719 130.000
52.44713 141.000
52.46708 137.000
52.48703 146.000
52.50698 131.000
52.52692 149.000
52.54687 129.000
52.56682 148.000
52.58676 135.000
52.60671 142.000
52.62666 131.000
52.64660 125.000
52.66655 142.000
52.68650 152.000
52.70645 133.000
52.72639 142.000
52.74634 130.000
52.76629 128.000
52.78623 155.000
52.80618 155.000
52.82613 136.000
52.84607 147.000
52.86602 153.000
52.88597 169.000
52.90591 131.000
52.92586 176.000
52.94581 162.000
52.96576 128.000
52.98570 163.000
53.00565 166.000
53.02560 187.000
53.04554 145.000
53.06549 174.000
53.08544 142.000
53.10538 164.000
53.12533 163.000
53.14528 163.000
53.16523 153.000
53.18517 150.000
53.20512 173.000
53.22507 159.000
53.24501 147.000
53.26496 152.000
53.28491 170.000
53.30485 155.000
53.32480 153.000
53.34475 147.000
53.36469 153.000
53.38464 163.000
53.40459 167.000
53.42454 165.000
53.44448 157.000
53.46443 148.000
53.48438 150.000
53.50432 149.000
53.52427 149.000
53.54422 145.000
53.56416 141.000
53.58411 173.000
53.60406 158.000
53.62401 170.000
53.64395 172.000
53.66390 156.000
53.68385 167.000
53.70379 195.000
53.72374 167.000
53.74369 200.000
53.76363 233.000
53.78358 249.000
53.80353 241.000
53.82348 254.000
53.84342 209.000
53.86337 214.000
53.88332 199.000
53.90326 240.000
53.92321 186.000
53.94316 171.000
53.96310 206.000
53.98305 180.000
54.00300 197.000
54.02294 151.000
54.04289 137.000
54.06284 182.000
54.08279 170.000
54.10273 141.000
54.12268 142.000
54.14263 143.000
54.16257 154.000
54.18252 141.000
54.20247 131.000
54.22241 120.000
54.24236 135.000
54.26231 135.000
54.28226 129.000
54.30220 128.000
54.32215 140.000
54.34210 145.000
54.36204 140.000
54.38199 148.000
54.40194 139.000
54.42188 126.000
54.44183 139.000
54.46178 121.000
54.48172 129.000
54.50167 134.000
54.52162 117.000
54.54157 129.000
54.56151 125.000
54.58146 128.000
54.60141 152.000
54.62135 137.000
54.64130 134.000
54.66125 133.000
54.68119 140.000
54.70114 143.000
54.72109 144.000
54.74104 143.000
54.76098 142.000
54.78093 124.000
54.80088 132.000
54.82082 132.000
54.84077 140.000
54.86072 122.000
54.88066 145.000
54.90061 143.000
54.92056 157.000
54.94050 157.000
54.96045 129.000
54.98040 133.000
55.00035 131.000
55.02029 140.000
55.04024 131.000
55.06019 148.000
55.08013 138.000
55.10008 132.000
55.12003 119.000
55.13997 124.000
55.15992 134.000
55.17987 145.000
55.19982 144.000
55.21976 144.000
55.23971 139.000
55.25966 146.000
55.27960 109.000
55.29955 159.000
55.31950 142.000
55.33944 134.000
55.35939 139.000
55.37934 144.000
55.39929 127.000
55.41923 136.000
55.43918 141.000
55.45913 136.000
55.47907 136.000
55.49902 122.000
55.51897 139.000
55.53891 150.000
55.55886 134.000
55.57881 142.000
55.59875 134.000
55.61870 136.000
55.63865 139.000
55.65860 133.000
55.67854 135.000
55.69849 137.000
55.71844 139.000
55.73838 138.000
55.75833 147.000
55.77828 139.000
55.79822 139.000
55.81817 141.000
55.83812 128.000
55.85807 134.000
55.87801 153.000
55.89796 151.000
55.91791 142.000
55.93785 131.000
55.95780 127.000
55.97775 134.000
55.99769 138.000
56.01764 117.000
56.03759 125.000
56.05753 131.000
56.07748 141.000
56.09743 142.000
56.11738 141.000
56.13732 144.000
56.15727 147.000
56.17722 143.000
56.19716 143.000
56.21711 126.000
56.23706 130.000
56.25700 135.000
56.27695 137.000
56.29690 143.000
56.31685 136.000
56.33679 126.000
56.35674 141.000
56.37669 138.000
56.39663 124.000
56.41658 134.000
56.43653 151.000
56.45647 134.000
56.47642 141.000
56.49637 152.000
56.51631 145.000
56.53626 164.000
56.55621 122.000
56.57616 161.000
56.59610 144.000
56.61605 140.000
56.63600 147.000
56.65594 128.000
56.67589 130.000
56.69584 144.000
56.71578 138.000
56.73573 155.000
56.75568 144.000
56.77563 121.000
56.79557 156.000
56.81552 138.000
56.83547 127.000
56.85541 151.000
56.87536 179.000
56.89531 146.000
56.91525 140.000
56.93520 161.000
56.95515 157.000
56.97510 141.000
56.99504 155.000
57.01499 158.000
57.03494 149.000
57.05488 146.000
57.07483 148.000
57.09478 151.000
57.11472 168.000
57.13467 178.000
57.15462 183.000
57.17456 198.000
57.19451 203.000
57.21446 212.000
57.23441 218.000
57.25435 272.000
57.27430 290.000
57.29425 384.000
57.31419 392.000
57.33414 467.000
57.35409 449.000
57.37403 441.000
57.39398 450.000
57.41393 361.000
57.43388 410.000
57.45382 370.000
57.47377 336.000
57.49372 362.000
57.51366 348.000
57.53361 336.000
57.55356 293.000
57.57350 289.000
57.59345 280.000
57.61340 255.000
57.63334 232.000
57.65329 176.000
57.67324 207.000
57.69319 178.000
57.71313 190.000
57.73308 166.000
57.75303 159.000
57.77297 179.000
57.79292 185.000
57.81287 190.000
57.83281 154.000
57.85276 156.000
57.87271 156.000
57.89266 177.000
57.91260 147.000
57.93255 145.000
57.95250 163.000
57.97244 157.000
57.99239 177.000
58.01234 173.000
58.03228 151.000
58.05223 152.000
58.07218 166.000
58.09212 167.000
58.11207 148.000
58.13202 170.000
58.15197 162.000
58.17191 173.000
58.19186 169.000
58.21181 166.000
58.23175 166.000
58.25170 165.000
58.27165 194.000
58.29159 163.000
58.31154 144.000
58.33149 164.000
58.35144 148.000
58.37138 159.000
58.39133 148.000
58.41128 162.000
58.43122 178.000
58.45117 141.000
58.47112 132.000
58.49106 156.000
58.51101 119.000
58.53096 140.000
58.55090 146.000
58.57085 141.000
58.59080 138.000
58.61075 147.000
58.63069 136.000
58.65064 167.000
58.67059 136.000
58.69053 147.000
58.71048 140.000
58.73043 154.000
58.75037 152.000
58.77032 145.000
58.79027 151.000
58.81022 133.000
58.83016 153.000
58.85011 144.000
58.87006 130.000
58.89000 137.000
58.90995 161.000
58.92990 132.000
58.94984 130.000
58.96979 127.000
58.98974 122.000
59.00969 140.000
59.02963 136.000
59.04958 140.000
59.06953 155.000
59.08947 109.000
59.10942 177.000
59.12937 133.000
59.14931 139.000
59.16926 159.000
59.18921 139.000
59.20915 135.000
59.22910 127.000
59.24905 135.000
59.26900 131.000
59.28894 153.000
59.30889 135.000
59.32884 128.000
59.34878 142.000
59.36873 157.000
59.38868 140.000
59.40862 156.000
59.42857 151.000
59.44852 153.000
59.46847 161.000
59.48841 151.000
59.50836 156.000
59.52831 152.000
59.54825 144.000
59.56820 134.000
59.58815 140.000
59.60809 155.000
59.62804 175.000
59.64799 145.000
59.66793 118.000
59.68788 139.000
59.70783 143.000
59.72778 154.000
59.74772 146.000
59.76767 154.000
59.78762 145.000
59.80756 158.000
59.82751 155.000
59.84746 150.000
59.86740 147.000
59.88735 161.000
59.90730 162.000
59.92725 138.000
59.94719 131.000
59.96714 148.000
59.98709 161.000
60.00703 144.000
60.02698 144.000
60.04693 137.000
60.06687 141.000
60.08682 159.000
60.10677 141.000
60.12671 168.000
60.14666 136.000
60.16661 127.000
60.18656 150.000
60.20650 160.000
60.22645 143.000
60.24640 146.000
60.26634 142.000
60.28629 117.000
60.30624 158.000
60.32618 128.000
60.34613 137.000
60.36608 144.000
60.38603 135.000
60.40597 143.000
60.42592 140.000
60.44587 129.000
60.46581 170.000
60.48576 155.000
60.50571 166.000
60.52565 132.000
60.54560 158.000
60.56555 151.000
60.58550 141.000
60.60544 130.000
60.62539 139.000
60.64534 139.000
60.66528 159.000
60.68523 133.000
60.70518 155.000
60.72512 148.000
60.74507 159.000
60.76502 123.000
60.78496 125.000
60.80491 156.000
60.82486 128.000
60.84481 159.000
60.86475 150.000
60.88470 160.000
60.90465 146.000
60.92459 148.000
60.94454 168.000
60.96449 172.000
60.98443 150.000
61.00438 145.000
61.02433 156.000
61.04428 172.000
61.06422 155.000
61.08417 139.000
61.10412 171.000
61.12406 122.000
61.14401 179.000
61.16396 168.000
61.18390 149.000
61.20385 166.000
61.22380 140.000
61.24374 162.000
61.26369 159.000
61.28364 152.000
61.30359 160.000
61.32353 163.000
61.34348 149.000
61.36343 182.000
61.38337 194.000
61.40332 167.000
61.42327 163.000
61.44321 167.000
61.46316 175.000
61.48311 178.000
61.50306 205.000
61.52300 203.000
61.54295 190.000
61.56290 165.000
61.58284 219.000
61.60279 215.000
61.62274 223.000
61.64268 213.000
61.66263 217.000
61.68258 224.000
61.70252 223.000
61.72247 236.000
61.74242 211.000
61.76237 265.000
61.78231 235.000
61.80226 253.000
61.82221 282.000
61.84215 303.000
61.86210 297.000
61.88205 333.000
61.90199 339.000
61.92194 344.000
61.94189 395.000
61.96184 385.000
61.98178 393.000
62.00173 399.000
62.02168 403.000
62.04162 381.000
62.06157 417.000
62.08152 373.000
62.10146 393.000
62.12141 407.000
62.14136 392.000
62.16131 389.000
62.18125 396.000
62.20120 352.000
62.22115 371.000
62.24109 349.000
62.26104 388.000
62.28099 361.000
62.30093 344.000
62.32088 355.000
62.34083 378.000
62.36077 374.000
62.38072 379.000
62.40067 341.000
62.42062 360.000
62.44056 341.000
62.46051 414.000
62.48046 353.000
62.50040 366.000
62.52035 358.000
62.54030 330.000
62.56024 349.000
62.58019 343.000
62.60014 375.000
62.62009 334.000
62.64003 312.000
62.65998 311.000
62.67993 319.000
62.69987 295.000
62.71982 337.000
62.73977 306.000
62.75971 310.000
62.77966 354.000
62.79961 291.000
62.81955 350.000
62.83950 332.000
62.85945 353.000
62.87940 350.000
62.89934 404.000
62.91929 486.000
62.93924 536.000
62.95918 586.000
62.97913 625.000
62.99908 568.000
63.01902 558.000
63.03897 584.000
63.05892 500.000
63.07887 514.000
63.09881 471.000
63.11876 499.000
63.13871 445.000
63.15865 465.000
63.17860 435.000
63.19855 420.000
63.21849 397.000
63.23844 363.000
63.25839 326.000
63.27833 264.000
63.29828 260.000
63.31823 253.000
63.33818 216.000
63.35812 224.000
63.37807 231.000
63.39802 224.000
63.41796 211.000
63.43791 207.000
63.45786 198.000
63.47780 191.000
63.49775 228.000
63.51770 200.000
63.53765 196.000
63.55759 201.000
63.57754 193.000
63.59749 189.000
63.61743 227.000
63.63738 218.000
63.65733 254.000
63.67727 277.000
63.69722 293.000
63.71717 338.000
63.73712 346.000
63.75706 356.000
63.77701 366.000
63.79696 341.000
63.81690 395.000
63.83685 346.000
63.85680 334.000
63.87674 335.000
63.89669 403.000
63.91664 372.000
63.93658 341.000
63.95653 338.000
63.97648 356.000
63.99643 309.000
64.01637 317.000
64.03632 332.000
64.05627 264.000
64.07621 296.000
64.09616 263.000
64.11611 249.000
64.13605 255.000
64.15600 244.000
64.17595 217.000
64.19590 233.000
64.21584 220.000
64.23579 195.000
64.25574 171.000
64.27568 202.000
64.29563 174.000
64.31558 190.000
64.33552 185.000
64.35547 176.000
64.37542 194.000
64.39536 169.000
64.41531 164.000
64.43526 163.000
64.45521 166.000
64.47515 167.000
64.49510 167.000
64.51505 154.000
64.53499 142.000
64.55494 180.000
64.57489 139.000
64.59483 154.000
64.61478 154.000
64.63473 169.000
64.65468 137.000
64.67462 150.000
64.69457 154.000
64.71452 123.000
64.73446 158.000
64.75441 163.000
64.77436 144.000
64.79430 152.000
64.81425 144.000
64.83420 135.000
64.85414 145.000
64.87409 148.000
64.89404 152.000
64.91399 141.000
64.93393 121.000
64.95388 143.000
64.97383 144.000
64.99377 134.000
65.01372 161.000
65.03367 144.000
65.05361 148.000
65.07356 159.000
65.09351 141.000
65.11346 147.000
65.13340 128.000
65.15335 126.000
65.17330 149.000
65.19324 139.000
65.21319 144.000
65.23314 167.000
65.25308 167.000
65.27303 158.000
65.29298 146.000
65.31293 166.000
65.33287 175.000
65.35282 144.000
65.37277 154.000
65.39271 145.000
65.41266 166.000
65.43261 177.000
65.45255 158.000
65.47250 179.000
65.49245 154.000
65.51239 170.000
65.53234 168.000
65.55229 174.000
65.57224 160.000
65.59218 180.000
65.61213 163.000
65.63208 178.000
65.65202 155.000
65.67197 175.000
65.69192 190.000
65.71186 130.000
65.73181 177.000
65.75176 136.000
65.77171 161.000
65.79165 175.000
65.81160 177.000
65.83155 188.000
65.85149 172.000
65.87144 184.000
65.89139 170.000
65.91133 183.000
65.93128 191.000
65.95123 189.000
65.97117 163.000
65.99112 178.000
66.01107 189.000
66.03102 199.000
66.05096 199.000
66.07091 216.000
66.09086 240.000
66.11080 254.000
66.13075 263.000
66.15070 274.000
66.17064 266.000
66.19059 308.000
66.21054 279.000
66.23049 262.000
66.25043 271.000
66.27038 305.000
66.29033 312.000
66.31027 293.000
66.33022 293.000
66.35017 285.000
66.37011 297.000
66.39006 322.000
66.41001 292.000
66.42995 242.000
66.44990 246.000
66.46985 247.000
66.48980 235.000
66.50974 222.000
66.52969 214.000
66.54964 202.000
66.56958 206.000
66.58953 199.000
66.60948 196.000
66.62942 200.000
66.64937 183.000
66.66932 178.000
66.68927 169.000
66.70921 179.000
66.72916 171.000
66.74911 164.000
66.76905 153.000
66.78900 157.000
66.80895 142.000
66.82889 180.000
66.84884 135.000
66.86879 137.000
66.88874 168.000
66.90868 173.000
66.92863 156.000
66.94858 174.000
66.96852 155.000
66.98847 165.000
67.00842 148.000
67.02836 162.000
67.04831 169.000
67.06826 166.000
67.08820 172.000
67.10815 171.000
67.12810 162.000
67.14805 181.000
67.16799 171.000
67.18794 158.000
67.20789 166.000
67.22783 169.000
67.24778 176.000
67.26773 149.000
67.28767 155.000
67.30762 171.000
67.32757 170.000
67.34752 137.000
67.36746 152.000
67.38741 173.000
67.40736 176.000
67.42730 136.000
67.44725 150.000
67.46720 123.000
67.48714 164.000
67.50709 159.000
67.52704 160.000
67.54698 160.000
67.56693 159.000
67.58688 159.000
67.60683 165.000
67.62677 157.000
67.64672 133.000
67.66667 158.000
67.68661 155.000
67.70656 126.000
67.72651 168.000
67.74645 146.000
67.76640 169.000
67.78635 149.000
67.80630 163.000
67.82624 181.000
67.84619 148.000
67.86614 178.000
67.88608 180.000
67.90603 149.000
67.92598 171.000
67.94592 151.000
67.96587 182.000
67.98582 174.000
68.00576 157.000
68.02571 162.000
68.04566 178.000
68.06561 165.000
68.08555 160.000
68.10550 169.000
68.12545 172.000
68.14539 185.000
68.16534 172.000
68.18529 162.000
68.20523 140.000
68.22518 158.000
68.24513 164.000
68.26508 162.000
68.28502 165.000
68.30497 141.000
68.32492 156.000
68.34486 143.000
68.36481 165.000
68.38476 149.000
68.40470 154.000
68.42465 149.000
68.44460 146.000
68.46455 144.000
68.48449 148.000
68.50444 138.000
68.52439 122.000
68.54433 131.000
68.56428 126.000
68.58423 146.000
68.60417 136.000
68.62412 141.000
68.64407 153.000
68.66401 128.000
68.68396 118.000
68.70391 144.000
68.72386 118.000
68.74380 163.000
68.76375 150.000
68.78370 164.000
68.80364 159.000
68.82359 141.000
68.84354 137.000
68.86348 135.000
68.88343 154.000
68.90338 126.000
68.92333 141.000
68.94327 145.000
68.96322 133.000
68.98317 146.000
69.00311 148.000
69.02306 143.000
69.04301 131.000
69.06295 135.000
69.08290 151.000
69.10285 142.000
69.12279 128.000
69.14274 151.000
69.16269 128.000
69.18264 154.000
69.20258 124.000
69.22253 142.000
69.24248 142.000
69.26242 115.000
69.28237 150.000
69.30232 162.000
69.32226 141.000
69.34221 126.000
69.36216 128.000
69.38211 153.000
69.40205 143.000
69.42200 133.000
69.44195 131.000
69.46189 148.000
69.48184 130.000
69.50179 129.000
69.52173 144.000
69.54168 125.000
69.56163 151.000
69.58157 156.000
69.60152 152.000
69.62147 125.000
69.64142 131.000
69.66136 137.000
69.68131 131.000
69.70126 131.000
69.72120 132.000
69.74115 140.000
69.76110 127.000
69.78104 161.000
69.80099 136.000
69.82094 149.000
69.84089 129.000
69.86083 132.000
69.88078 139.000
69.90073 129.000
69.92067 126.000
69.94062 138.000
69.96057 136.000
69.98051 146.000
70.00046 134.000
70.02041 120.000
70.04035 139.000
70.06030 134.000
70.08025 145.000
70.10020 128.000
70.12014 159.000
70.14009 137.000
70.16004 141.000
70.17998 144.000
70.19993 127.000
70.21988 108.000
70.23982 139.000
70.25977 138.000
70.27972 141.000
70.29967 161.000
70.31961 131.000
70.33956 126.000
70.35951 145.000
70.37945 151.000
70.39940 139.000
70.41935 128.000
70.43929 147.000
70.45924 139.000
70.47919 119.000
70.49914 140.000
70.51908 119.000
70.53903 124.000
70.55898 129.000
70.57892 132.000
70.59887 141.000
70.61882 150.000
70.63876 139.000
70.65871 121.000
70.67866 129.000
70.69860 150.000
70.71855 123.000
70.73850 131.000
70.75845 152.000
70.77839 126.000
70.79834 144.000
70.81829 123.000
70.83823 115.000
70.85818 133.000
70.87813 125.000
70.89807 152.000
70.91802 150.000
70.93797 139.000
70.95792 135.000
70.97786 132.000
70.99781 117.000
71.01776 124.000
71.03770 127.000
71.05765 154.000
71.07760 133.000
71.09754 106.000
71.11749 129.000
71.13744 153.000
71.15738 136.000
71.17733 144.000
71.19728 158.000
71.21723 122.000
71.23717 121.000
71.25712 158.000
71.27707 121.000
71.29701 153.000
71.31696 144.000
71.33691 149.000
71.35685 146.000
71.37680 123.000
71.39675 163.000
71.41670 157.000
71.43664 150.000
71.45659 168.000
71.47654 148.000
71.49648 159.000
71.51643 159.000
71.53638 167.000
71.55632 162.000
71.57627 158.000
71.59622 166.000
71.61616 185.000
71.63611 142.000
71.65606 168.000
71.67601 174.000
71.69595 158.000
71.71590 141.000
71.73585 159.000
71.75579 150.000
71.77574 145.000
71.79569 147.000
71.81563 148.000
71.83558 145.000
71.85553 136.000
71.87548 113.000
71.89542 152.000
71.91537 131.000
71.93532 152.000
71.95526 135.000
71.97521 140.000
71.99516 143.000
72.01510 147.000
72.03505 145.000
72.05500 127.000
72.07495 160.000
72.09489 170.000
72.11484 123.000
72.13479 164.000
72.15473 130.000
72.17468 137.000
72.19463 160.000
72.21457 143.000
72.23452 131.000
72.25447 146.000
72.27441 144.000
72.29436 159.000
72.31431 136.000
72.33426 172.000
72.35420 153.000
72.37415 143.000
72.39410 156.000
72.41404 145.000
72.43399 165.000
72.45394 157.000
72.47388 126.000
72.49383 138.000
72.51378 150.000
72.53373 151.000
72.55367 166.000
72.57362 142.000
72.59357 132.000
72.61351 140.000
72.63346 144.000
72.65341 170.000
72.67335 153.000
72.69330 147.000
72.71325 157.000
72.73319 140.000
72.75314 144.000
72.77309 140.000
72.79304 141.000
72.81298 155.000
72.83293 153.000
72.85288 145.000
72.87282 144.000
72.89277 152.000
72.91272 152.000
72.93266 143.000
72.95261 135.000
72.97256 160.000
72.99251 176.000
73.01245 159.000
73.03240 178.000
73.05235 160.000
73.07229 175.000
73.09224 200.000
73.11219 173.000
73.13213 149.000
73.15208 163.000
73.17203 201.000
73.19197 190.000
73.21192 179.000
73.23187 182.000
73.25182 229.000
73.27176 216.000
73.29171 184.000
73.31166 223.000
73.33160 220.000
73.35155 217.000
73.37150 184.000
73.39144 219.000
73.41139 200.000
73.43134 193.000
73.45129 198.000
73.47123 166.000
73.49118 191.000
73.51113 192.000
73.53107 193.000
73.55102 162.000
73.57097 175.000
73.59091 189.000
73.61086 171.000
73.63081 143.000
73.65076 167.000
73.67070 150.000
73.69065 174.000
73.71060 153.000
73.73054 149.000
73.75049 156.000
73.77044 146.000
73.79038 149.000
73.81033 173.000
73.83028 157.000
73.85022 149.000
73.87017 154.000
73.89012 163.000
73.91007 167.000
73.93001 139.000
73.94996 150.000
73.96991 143.000
73.98985 143.000
74.00980 130.000
74.02975 155.000
74.04969 131.000
74.06964 119.000
74.08959 130.000
74.10954 154.000
74.12948 123.000
74.14943 147.000
74.16938 149.000
74.18932 153.000
74.20927 133.000
74.22922 136.000
74.24916 165.000
74.26911 159.000
74.28906 160.000
74.30900 160.000
74.32895 161.000
74.34890 167.000
74.36885 148.000
74.38879 164.000
74.40874 163.000
74.42869 170.000
74.44863 187.000
74.46858 182.000
74.48853 204.000
74.50847 221.000
74.52842 240.000
74.54837 233.000
74.56832 228.000
74.58826 247.000
74.60821 232.000
74.62816 232.000
74.64810 234.000
74.66805 233.000
74.68800 208.000
74.70794 229.000
74.72789 248.000
74.74784 219.000
74.76778 245.000
74.78773 195.000
74.80768 221.000
74.82763 203.000
74.84757 232.000
74.86752 212.000
74.88747 207.000
74.90741 206.000
74.92736 236.000
74.94731 193.000
74.96725 227.000
74.98720 177.000
75.00715 187.000
75.02710 215.000
75.04704 211.000
75.06699 215.000
75.08694 225.000
75.10688 224.000
75.12683 217.000
75.14678 214.000
75.16672 219.000
75.18667 205.000
75.20662 193.000
75.22657 217.000
75.24651 208.000
75.26646 200.000
75.28641 197.000
75.30635 233.000
75.32630 197.000
75.34625 215.000
75.36619 180.000
75.38614 230.000
75.40609 199.000
75.42603 211.000
75.44598 207.000
75.46593 212.000
75.48588 214.000
75.50582 187.000
75.52577 195.000
75.54572 191.000
75.56566 204.000
75.58561 182.000
75.60556 176.000
75.62550 177.000
75.64545 171.000
75.66540 179.000
75.68535 168.000
75.70529 178.000
75.72524 156.000
75.74519 181.000
75.76513 165.000
75.78508 178.000
75.80503 168.000
75.82497 141.000
75.84492 142.000
75.86487 140.000
75.88481 145.000
75.90476 164.000
75.92471 160.000
75.94466 160.000
75.96460 157.000
75.98455 143.000
76.00450 142.000
76.02444 135.000
76.04439 137.000
76.06434 153.000
76.08428 135.000
76.10423 145.000
76.12418 134.000
76.14413 141.000
76.16407 157.000
76.18402 141.000
76.20397 141.000
76.22391 126.000
76.24386 127.000
76.26381 119.000
76.28375 160.000
76.30370 133.000
76.32365 121.000
76.34359 155.000
76.36354 151.000
76.38349 125.000
76.40344 131.000
76.42338 125.000
76.44333 129.000
76.46328 140.000
76.48322 150.000
76.50317 129.000
76.52312 142.000
76.54306 145.000
76.56301 136.000
76.58296 129.000
76.60291 114.000
76.62285 137.000
76.64280 132.000
76.66275 142.000
76.68269 138.000
76.70264 134.000
76.72259 126.000
76.74253 134.000
76.76248 131.000
76.78243 133.000
76.80238 123.000
76.82232 154.000
76.84227 153.000
76.86222 134.000
76.88216 149.000
76.90211 133.000
76.92206 138.000
76.94200 135.000
76.96195 158.000
76.98190 130.000
77.00184 149.000
77.02179 166.000
77.04174 121.000
77.06169 163.000
77.08163 146.000
77.10158 150.000
77.12153 137.000
77.14147 149.000
77.16142 160.000
77.18137 165.000
77.20131 152.000
77.22126 173.000
77.24121 170.000
77.26116 161.000
77.28110 157.000
77.30105 170.000
77.32100 166.000
77.34094 187.000
77.36089 172.000
77.38084 184.000
77.40078 185.000
77.42073 174.000
77.44068 144.000
77.46062 208.000
77.48057 189.000
77.50052 218.000
77.52047 181.000
77.54041 218.000
77.56036 188.000
77.58031 189.000
77.60025 215.000
77.62020 169.000
77.64015 203.000
77.66009 187.000
77.68004 188.000
77.69999 177.000
77.71994 201.000
77.73988 167.000
77.75983 188.000
77.77978 170.000
77.79972 157.000
77.81967 184.000
77.83962 190.000
77.85956 157.000
77.87951 166.000
77.89946 186.000
77.91940 170.000
77.93935 158.000
77.95930 166.000
77.97925 132.000
77.99919 163.000
78.01914 173.000
78.03909 156.000
78.05903 154.000
78.07898 166.000
78.09893 188.000
78.11887 161.000
78.13882 164.000
78.15877 169.000
78.17872 165.000
78.19866 200.000
78.21861 182.000
78.23856 192.000
78.25850 209.000
78.27845 191.000
78.29840 189.000
78.31834 201.000
78.33829 231.000
78.35824 199.000
78.37819 224.000
78.39813 218.000
78.41808 215.000
78.43803 209.000
78.45797 214.000
78.47792 202.000
78.49787 183.000
78.51781 222.000
78.53776 196.000
78.55771 202.000
78.57765 204.000
78.59760 191.000
78.61755 210.000
78.63750 199.000
78.65744 212.000
78.67739 181.000
78.69734 181.000
78.71728 198.000
78.73723 182.000
78.75718 235.000
78.77712 191.000
78.79707 185.000
78.81702 205.000
78.83697 177.000
78.85691 193.000
78.87686 202.000
78.89681 184.000
78.91675 182.000
78.93670 170.000
78.95665 198.000
78.97659 167.000
78.99654 177.000
79.01649 198.000
79.03643 179.000
79.05638 184.000
79.07633 202.000
79.09628 187.000
79.11622 169.000
79.13617 184.000
79.15612 157.000
79.17606 183.000
79.19601 194.000
79.21596 171.000
79.23590 168.000
79.25585 183.000
79.27580 165.000
79.29575 143.000
79.31569 183.000
79.33564 155.000
79.35559 163.000
79.37553 157.000
79.39548 153.000
79.41543 147.000
79.43537 152.000
79.45532 150.000
79.47527 151.000
79.49521 180.000
79.51516 140.000
79.53511 164.000
79.55506 163.000
79.57500 180.000
79.59495 160.000
79.61490 178.000
79.63484 159.000
79.65479 154.000
79.67474 177.000
79.69468 136.000
79.71463 162.000
79.73458 144.000
79.75453 161.000
79.77447 156.000
79.79442 142.000
79.81437 164.000
79.83431 164.000
79.85426 141.000
79.87421 140.000
79.89415 156.000
79.91410 136.000
79.93405 113.000
79.95399 143.000
79.97394 146.000
79.99389 132.000
80.01384 144.000
80.03378 159.000
80.05373 162.000
80.07368 144.000
80.09362 142.000
80.11357 152.000
80.13352 166.000
80.15346 129.000
80.17341 150.000
80.19336 158.000
80.21331 137.000
80.23325 135.000
80.25320 146.000
80.27315 156.000
80.29309 117.000
80.31304 163.000
80.33299 159.000
80.35293 149.000
80.37288 130.000
80.39283 139.000
80.41278 146.000
80.43272 149.000
80.45267 144.000
80.47262 149.000
80.49256 165.000
80.51251 126.000
80.53246 135.000
80.55240 153.000
80.57235 148.000
80.59230 152.000
80.61224 121.000
80.63219 162.000
80.65214 162.000
80.67209 132.000
80.69203 135.000
80.71198 136.000
80.73193 137.000
80.75187 159.000
80.77182 137.000
80.79177 111.000
80.81171 137.000
80.83166 135.000
80.85161 140.000
80.87156 125.000
80.89150 135.000
80.91145 144.000
80.93140 126.000
80.95134 158.000
80.97129 160.000
80.99124 144.000
81.01118 127.000
81.03113 121.000
81.05108 134.000
81.07102 157.000
81.09097 141.000
81.11092 146.000
81.13087 131.000
81.15081 147.000
81.17076 126.000
81.19071 134.000
81.21065 134.000
81.23060 126.000
81.25055 133.000
81.27049 129.000
81.29044 136.000
81.31039 128.000
81.33034 124.000
81.35028 121.000
81.37023 127.000
81.39018 126.000
81.41012 139.000
81.43007 130.000
81.45002 121.000
81.46996 120.000
81.48991 142.000
81.50986 138.000
81.52980 165.000
81.54975 126.000
81.56970 134.000
81.58965 124.000
81.60959 166.000
81.62954 140.000
81.64949 154.000
81.66943 113.000
81.68938 120.000
81.70933 124.000
81.72927 141.000
81.74922 139.000
81.76917 141.000
81.78912 132.000
81.80906 140.000
81.82901 160.000
81.84896 119.000
81.86890 142.000
81.88885 149.000
81.90880 155.000
81.92874 124.000
81.94869 142.000
81.96864 127.000
81.98859 116.000
82.00853 112.000
82.02848 125.000
82.04843 117.000
82.06837 142.000
82.08832 140.000
82.10827 126.000
82.12821 152.000
82.14816 139.000
82.16811 152.000
82.18805 117.000
82.20800 126.000
82.22795 141.000
82.24790 136.000
82.26784 138.000
82.28779 140.000
82.30774 139.000
82.32768 125.000
82.34763 132.000
82.36758 132.000
82.38752 128.000
82.40747 134.000
82.42742 143.000
82.44737 153.000
82.46731 154.000
82.48726 143.000
82.50721 140.000
82.52715 150.000
82.54710 149.000
82.56705 139.000
82.58699 144.000
82.60694 135.000
82.62689 141.000
82.64683 145.000
82.66678 132.000
82.68673 124.000
82.70668 142.000
82.72662 142.000
82.74657 145.000
82.76652 163.000
82.78646 144.000
82.80641 134.000
82.82636 136.000
82.84630 150.000
82.86625 143.000
82.88620 162.000
82.90615 154.000
82.92609 146.000
82.94604 125.000
82.96599 143.000
82.98593 132.000
83.00588 140.000
83.02583 144.000
83.04577 150.000
83.06572 151.000
83.08567 135.000
83.10561 149.000
83.12556 147.000
83.14551 139.000
83.16546 132.000
83.18540 144.000
83.20535 140.000
83.22530 136.000
83.24524 132.000
83.26519 128.000
83.28514 141.000
83.30508 156.000
83.32503 150.000
83.34498 168.000
83.36493 121.000
83.38487 128.000
83.40482 139.000
83.42477 139.000
83.44471 132.000
83.46466 152.000
83.48461 152.000
83.50455 149.000
83.52450 136.000
83.54445 145.000
83.56440 132.000
83.58434 134.000
83.60429 135.000
83.62424 139.000
83.64418 131.000
83.66413 149.000
83.68408 127.000
83.70402 141.000
83.72397 140.000
83.74392 153.000
83.76386 145.000
83.78381 159.000
83.80376 147.000
83.82371 176.000
83.84365 135.000
83.86360 150.000
83.88355 135.000
83.90349 175.000
83.92344 166.000
83.94339 173.000
83.96333 157.000
83.98328 164.000
84.00323 182.000
84.02318 168.000
84.04312 203.000
84.06307 149.000
84.08302 206.000
84.10296 192.000
84.12291 190.000
84.14286 172.000
84.16280 199.000
84.18275 196.000
84.20270 206.000
84.22264 189.000
84.24259 169.000
84.26254 194.000
84.28249 175.000
84.30243 175.000
84.32238 180.000
84.34233 181.000
84.36227 186.000
84.38222 182.000
84.40217 171.000
84.42211 187.000
84.44206 164.000
84.46201 198.000
84.48196 166.000
84.50190 174.000
84.52185 191.000
84.54180 185.000
84.56174 148.000
84.58169 155.000
84.60164 169.000
84.62158 169.000
84.64153 153.000
84.66148 133.000
84.68142 145.000
84.70137 145.000
84.72132 140.000
84.74127 147.000
84.76121 159.000
84.78116 156.000
84.80111 150.000
84.82105 129.000
84.84100 142.000
84.86095 132.000
84.88089 157.000
84.90084 143.000
84.92079 149.000
84.94074 145.000
84.96068 134.000
84.98063 145.000
85.00058 146.000
85.02052 120.000
85.04047 160.000
85.06042 147.000
85.08036 162.000
85.10031 131.000
85.12026 142.000
85.14021 137.000
85.16015 124.000
85.18010 150.000
85.20005 119.000
85.21999 135.000
85.23994 160.000
85.25989 116.000
85.27983 139.000
85.29978 156.000
85.31973 137.000
85.33967 128.000
85.35962 136.000
85.37957 128.000
85.39952 138.000
85.41946 139.000
85.43941 125.000
85.45936 133.000
85.47930 121.000
85.49925 139.000
85.51920 148.000
85.53914 156.000
85.55909 118.000
85.57904 117.000
85.59899 140.000
85.61893 154.000
85.63888 147.000
85.65883 144.000
85.67877 126.000
85.69872 136.000
85.71867 131.000
85.73861 137.000
85.75856 137.000
85.77851 139.000
85.79845 124.000
85.81840 135.000
85.83835 118.000
85.85830 127.000
85.87824 142.000
85.89819 154.000
85.91814 136.000
85.93808 141.000
85.95803 151.000
85.97798 135.000
85.99792 128.000
86.01787 152.000
86.03782 132.000
86.05777 149.000
86.07771 157.000
86.09766 136.000
86.11761 151.000
86.13755 131.000
86.15750 128.000
86.17745 152.000
86.19739 122.000
86.21734 127.000
86.23729 136.000
86.25723 127.000
86.27718 138.000
86.29713 139.000
86.31708 127.000
86.33702 144.000
86.35697 134.000
86.37692 132.000
86.39686 130.000
86.41681 129.000
86.43676 143.000
86.45670 157.000
86.47665 139.000
86.49660 115.000
86.51655 138.000
86.53649 126.000
86.55644 151.000
86.57639 142.000
86.59633 128.000
86.61628 122.000
86.63623 148.000
86.65617 147.000
86.67612 145.000
86.69607 140.000
86.71602 134.000
86.73596 133.000
86.75591 159.000
86.77586 152.000
86.79580 114.000
86.81575 140.000
86.83570 124.000
86.85564 139.000
86.87559 132.000
86.89554 125.000
86.91548 143.000
86.93543 138.000
86.95538 135.000
86.97533 144.000
86.99527 138.000
87.01522 134.000
87.03517 108.000
87.05511 138.000
87.07506 127.000
87.09501 149.000
87.11495 147.000
87.13490 149.000
87.15485 130.000
87.17480 136.000
87.19474 135.000
87.21469 177.000
87.23464 156.000
87.25458 156.000
87.27453 167.000
87.29448 162.000
87.31442 144.000
87.33437 152.000
87.35432 162.000
87.37426 164.000
87.39421 169.000
87.41416 184.000
87.43411 150.000
87.45405 199.000
87.47400 162.000
87.49395 163.000
87.51389 167.000
87.53384 174.000
87.55379 160.000
87.57373 150.000
87.59368 158.000
87.61363 167.000
87.63358 160.000
87.65352 188.000
87.67347 163.000
87.69342 165.000
87.71336 163.000
87.73331 167.000
87.75326 156.000
87.77320 149.000
87.79315 182.000
87.81310 151.000
87.83304 184.000
87.85299 159.000
87.87294 138.000
87.89289 143.000
87.91283 153.000
87.93278 142.000
87.95273 137.000
87.97267 147.000
87.99262 145.000
88.01257 137.000
88.03251 147.000
88.05246 141.000
88.07241 139.000
88.09236 140.000
88.11230 143.000
88.13225 167.000
88.15220 135.000
88.17214 140.000
88.19209 132.000
88.21204 110.000
88.23198 145.000
88.25193 136.000
88.27188 140.000
88.29183 130.000
88.31177 145.000
88.33172 139.000
88.35167 125.000
88.37161 147.000
88.39156 130.000
88.41151 133.000
88.43145 134.000
88.45140 132.000
88.47135 130.000
88.49129 143.000
88.51124 159.000
88.53119 121.000
88.55114 134.000
88.57108 120.000
88.59103 133.000
88.61098 119.000
88.63092 128.000
88.65087 142.000
88.67082 143.000
88.69076 147.000
88.71071 151.000
88.73066 128.000
88.75061 127.000
88.77055 151.000
88.79050 141.000
88.81045 116.000
88.83039 155.000
88.85034 145.000
88.87029 146.000
88.89023 119.000
88.91018 141.000
88.93013 131.000
88.95007 118.000
88.97002 124.000
88.98997 128.000
89.00992 133.000
89.02986 114.000
89.04981 148.000
89.06976 124.000
89.08970 133.000
89.10965 135.000
89.12960 147.000
89.14954 135.000
89.16949 141.000
89.18944 145.000
89.20939 146.000
89.22933 142.000
89.24928 123.000
89.26923 129.000
89.28917 139.000
89.30912 142.000
89.32907 141.000
89.34901 145.000
89.36896 147.000
89.38891 131.000
89.40885 136.000
89.42880 148.000
89.44875 133.000
89.46870 143.000
89.48864 136.000
89.50859 140.000
89.52854 157.000
89.54848 148.000
89.56843 143.000
89.58838 135.000
89.60832 160.000
89.62827 142.000
89.64822 139.000
89.66817 117.000
89.68811 170.000
89.70806 148.000
89.72801 156.000
89.74795 140.000
89.76790 138.000
89.78785 141.000
89.80779 150.000
89.82774 144.000
89.84769 137.000
89.86764 162.000
89.88758 138.000
89.90753 131.000
89.92748 140.000
89.94742 135.000
89.96737 139.000
89.98732 184.000
90.00726 147.000
