10.00000 153.000
10.01995 153.000
10.03989 155.000
10.05984 142.000
10.07979 152.000
10.09973 142.000
10.11968 146.000
10.13963 150.000
10.15958 169.000
10.17952 124.000
10.19947 138.000
10.21942 158.000
10.23936 153.000
10.25931 138.000
10.27926 152.000
10.29920 141.000
10.31915 145.000
10.33910 136.000
10.35905 135.000
10.37899 163.000
10.39894 176.000
10.41889 137.000
10.43883 156.000
10.45878 192.000
10.47873 157.000
10.49867 137.000
10.51862 155.000
10.53857 161.000
10.55851 156.000
10.57846 145.000
10.59841 148.000
10.61836 167.000
10.63830 136.000
10.65825 146.000
10.67820 152.000
10.69814 153.000
10.71809 155.000
10.73804 143.000
10.75798 147.000
10.77793 165.000
10.79788 181.000
10.81783 149.000
10.83777 146.000
10.85772 145.000
10.87767 149.000
10.89761 175.000
10.91756 158.000
10.93751 151.000
10.95745 153.000
10.97740 182.000
10.99735 159.000
11.01730 131.000
11.03724 148.000
11.05719 140.000
11.07714 129.000
11.09708 157.000
11.11703 139.000
11.13698 152.000
11.15692 186.000
11.17687 153.000
11.19682 138.000
11.21676 139.000
11.23671 153.000
11.25666 140.000
11.27661 136.000
11.29655 155.000
11.31650 153.000
11.33645 154.000
11.35639 150.000
11.37634 142.000
11.39629 145.000
11.41623 140.000
11.43618 152.000
11.45613 142.000
11.47608 137.000
11.49602 162.000
11.51597 131.000
11.53592 152.000
11.55586 150.000
11.57581 154.000
11.59576 152.000
11.61570 133.000
11.63565 173.000
11.65560 175.000
11.67554 154.000
11.69549 148.000
11.71544 152.000
11.73539 147.000
11.75533 152.000
11.77528 143.000
11.79523 152.000
11.81517 149.000
11.83512 144.000
11.85507 151.000
11.87501 136.000
11.89496 138.000
11.91491 153.000
11.93486 173.000
11.95480 151.000
11.97475 152.000
11.99470 138.000
12.01464 151.000
12.03459 159.000
12.05454 148.000
12.07448 135.000
12.09443 137.000
12.11438 141.000
12.13432 156.000
12.15427 136.000
12.17422 155.000
12.19417 162.000
12.21411 157.000
12.23406 163.000
12.25401 127.000
12.27395 152.000
12.29390 154.000
12.31385 165.000
12.33379 147.000
12.35374 152.000
12.37369 158.000
12.39364 154.000
12.41358 147.000
12.43353 153.000
12.45348 164.000
12.47342 141.000
12.49337 140.000
12.51332 166.000
12.53326 149.000
12.55321 172.000
12.57316 168.000
12.59311 142.000
12.61305 151.000
12.63300 141.000
12.65295 146.000
12.67289 154.000
12.69284 145.000
12.71279 162.000
12.73273 157.000
12.75268 160.000
12.77263 172.000
12.79257 141.000
12.81252 140.000
12.83247 131.000
12.85242 159.000
12.87236 147.000
12.89231 128.000
12.91226 177.000
12.93220 154.000
12.95215 151.000
12.97210 153.000
12.99204 145.000
13.01199 147.000
13.03194 139.000
13.05189 159.000
13.07183 144.000
13.09178 149.000
13.11173 162.000
13.13167 160.000
13.15162 166.000
13.17157 137.000
13.19151 135.000
13.21146 182.000
13.23141 135.000
13.25135 156.000
13.27130 159.000
13.29125 129.000
13.31120 144.000
13.33114 157.000
13.35109 141.000
13.37104 168.000
13.39098 160.000
13.41093 140.000
13.43088 151.000
13.45082 146.000
13.47077 158.000
13.49072 159.000
13.51067 147.000
13.53061 141.000
13.55056 153.000
13.57051 168.000
13.59045 161.000
13.61040 132.000
13.63035 148.000
13.65029 142.000
13.67024 125.000
13.69019 143.000
13.71013 151.000
13.73008 129.000
13.75003 160.000
13.76998 185.000
13.78992 146.000
13.80987 170.000
13.82982 153.000
13.84976 130.000
13.86971 135.000
13.88966 159.000
13.90960 156.000
13.92955 140.000
13.94950 140.000
13.96945 130.000
13.98939 152.000
14.00934 143.000
14.02929 155.000
14.04923 179.000
14.06918 154.000
14.08913 133.000
14.10907 154.000
14.12902 154.000
14.14897 140.000
14.16892 170.000
14.18886 174.000
14.20881 156.000
14.22876 165.000
14.24870 136.000
14.26865 147.000
14.28860 159.000
14.30854 157.000
14.32849 169.000
14.34844 196.000
14.36838 157.000
14.38833 164.000
14.40828 159.000
14.42823 168.000
14.44817 164.000
14.46812 157.000
14.48807 158.000
14.50801 156.000
14.52796 148.000
14.54791 134.000
14.56785 148.000
14.58780 139.000
14.60775 175.000
14.62770 163.000
14.64764 160.000
14.66759 157.000
14.68754 138.000
14.70748 167.000
14.72743 147.000
14.74738 178.000
14.76732 139.000
14.78727 172.000
14.80722 158.000
14.82716 153.000
14.84711 162.000
14.86706 160.000
14.88701 202.000
14.90695 172.000
14.92690 144.000
14.94685 158.000
14.96679 170.000
14.98674 180.000
15.00669 158.000
15.02663 150.000
15.04658 187.000
15.06653 157.000
15.08648 146.000
15.10642 172.000
15.12637 158.000
15.14632 156.000
15.16626 178.000
15.18621 206.000
15.20616 190.000
15.22610 205.000
15.24605 187.000
15.26600 195.000
15.28594 195.000
15.30589 212.000
15.32584 162.000
15.34579 213.000
15.36573 210.000
15.38568 200.000
15.40563 205.000
15.42557 210.000
15.44552 213.000
15.46547 212.000
15.48541 243.000
15.50536 214.000
15.52531 284.000
15.54526 227.000
15.56520 270.000
15.58515 289.000
15.60510 287.000
15.62504 290.000
15.64499 313.000
15.66494 340.000
15.68488 365.000
15.70483 451.000
15.72478 512.000
15.74472 603.000
15.76467 880.000
15.78462 1261.000
15.80457 1785.000
15.82451 2821.000
15.84446 3984.000
15.86441 5291.000
15.88435 6889.000
15.90430 8143.000
15.92425 8476.000
15.94419 8031.000
15.96414 6372.000
15.98409 4102.000
16.00404 2590.000
16.02398 1425.000
16.04393 990.000
16.06388 846.000
16.08382 921.000
16.10377 1055.000
16.12372 1183.000
16.14366 1353.000
16.16361 1436.000
16.18356 1413.000
16.20351 1242.000
16.22345 1016.000
16.24340 763.000
16.26335 603.000
16.28329 455.000
16.30324 350.000
16.32319 308.000
16.34313 258.000
16.36308 214.000
16.38303 251.000
16.40297 240.000
16.42292 231.000
16.44287 223.000
16.46282 204.000
16.48276 202.000
16.50271 204.000
16.52266 213.000
16.54260 187.000
16.56255 192.000
16.58250 176.000
16.60244 190.000
16.62239 159.000
16.64234 158.000
16.66229 182.000
16.68223 168.000
16.70218 183.000
16.72213 165.000
16.74207 149.000
16.76202 165.000
16.78197 178.000
16.80191 194.000
16.82186 179.000
16.84181 197.000
16.86175 168.000
16.88170 163.000
16.90165 170.000
16.92160 189.000
16.94154 172.000
16.96149 171.000
16.98144 179.000
17.00138 183.000
17.02133 151.000
17.04128 152.000
17.06122 147.000
17.08117 169.000
17.10112 155.000
17.12107 134.000
17.14101 144.000
17.16096 145.000
17.18091 159.000
17.20085 160.000
17.22080 169.000
17.24075 145.000
17.26069 153.000
17.28064 155.000
17.30059 157.000
17.32053 156.000
17.34048 171.000
17.36043 138.000
17.38038 149.000
17.40032 126.000
17.42027 145.000
17.44022 130.000
17.46016 136.000
17.48011 143.000
17.50006 152.000
17.52000 124.000
17.53995 173.000
17.55990 138.000
17.57985 132.000
17.59979 142.000
17.61974 149.000
17.63969 157.000
17.65963 151.000
17.67958 166.000
17.69953 151.000
17.71947 145.000
17.73942 129.000
17.75937 139.000
17.77932 150.000
17.79926 139.000
17.81921 164.000
17.83916 132.000
17.85910 144.000
17.87905 141.000
17.89900 166.000
17.91894 150.000
17.93889 135.000
17.95884 143.000
17.97878 147.000
17.99873 139.000
18.01868 141.000
18.03863 145.000
18.05857 140.000
18.07852 166.000
18.09847 148.000
18.11841 143.000
18.13836 161.000
18.15831 153.000
18.17825 144.000
18.19820 167.000
18.21815 142.000
18.23810 131.000
18.25804 152.000
18.27799 178.000
18.29794 145.000
18.31788 157.000
18.33783 136.000
18.35778 171.000
18.37772 184.000
18.39767 185.000
18.41762 188.000
18.43756 187.000
18.45751 212.000
18.47746 183.000
18.49741 162.000
18.51735 154.000
18.53730 152.000
18.55725 148.000
18.57719 153.000
18.59714 150.000
18.61709 155.000
18.63703 143.000
18.65698 178.000
18.67693 144.000
18.69688 165.000
18.71682 161.000
18.73677 121.000
18.75672 156.000
18.77666 165.000
18.79661 133.000
18.81656 127.000
18.83650 138.000
18.85645 132.000
18.87640 142.000
18.89634 133.000
18.91629 137.000
18.93624 140.000
18.95619 149.000
18.97613 142.000
18.99608 151.000
19.01603 129.000
19.03597 150.000
19.05592 137.000
19.07587 149.000
19.09581 141.000
19.11576 150.000
19.13571 147.000
19.15566 152.000
19.17560 162.000
19.19555 158.000
19.21550 140.000
19.23544 153.000
19.25539 143.000
19.27534 163.000
19.29528 148.000
19.31523 139.000
19.33518 142.000
19.35513 142.000
19.37507 148.000
19.39502 142.000
19.41497 136.000
19.43491 136.000
19.45486 140.000
19.47481 137.000
19.49475 144.000
19.51470 159.000
19.53465 138.000
19.55459 134.000
19.57454 138.000
19.59449 155.000
19.61444 161.000
19.63438 150.000
19.65433 144.000
19.67428 137.000
19.69422 158.000
19.71417 134.000
19.73412 143.000
19.75406 143.000
19.77401 148.000
19.79396 140.000
19.81391 137.000
19.83385 136.000
19.85380 138.000
19.87375 135.000
19.89369 175.000
19.91364 154.000
19.93359 165.000
19.95353 157.000
19.97348 135.000
19.99343 149.000
20.01337 148.000
20.03332 141.000
20.05327 159.000
20.07322 146.000
20.09316 152.000
20.11311 143.000
20.13306 142.000
20.15300 151.000
20.17295 150.000
20.19290 146.000
20.21284 144.000
20.23279 157.000
20.25274 161.000
20.27269 131.000
20.29263 147.000
20.31258 130.000
20.33253 163.000
20.35247 135.000
20.37242 145.000
20.39237 148.000
20.41231 166.000
20.43226 141.000
20.45221 149.000
20.47215 135.000
20.49210 147.000
20.51205 139.000
20.53200 147.000
20.55194 143.000
20.57189 169.000
20.59184 150.000
20.61178 148.000
20.63173 159.000
20.65168 148.000
20.67162 153.000
20.69157 142.000
20.71152 151.000
20.73147 163.000
20.75141 138.000
20.77136 160.000
20.79131 133.000
20.81125 170.000
20.83120 179.000
20.85115 168.000
20.87109 149.000
20.89104 167.000
20.91099 181.000
20.93094 182.000
20.95088 175.000
20.97083 185.000
20.99078 168.000
21.01072 196.000
21.03067 184.000
21.05062 166.000
21.07056 187.000
21.09051 213.000
21.11046 170.000
21.13040 180.000
21.15035 178.000
21.17030 167.000
21.19025 174.000
21.21019 172.000
21.23014 148.000
21.25009 160.000
21.27003 173.000
21.28998 145.000
21.30993 159.000
21.32987 152.000
21.34982 139.000
21.36977 143.000
21.38972 161.000
21.40966 177.000
21.42961 143.000
21.44956 123.000
21.46950 141.000
21.48945 156.000
21.50940 155.000
21.52934 145.000
21.54929 144.000
21.56924 145.000
21.58918 148.000
21.60913 143.000
21.62908 155.000
21.64903 146.000
21.66897 150.000
21.68892 140.000
21.70887 151.000
21.72881 149.000
21.74876 149.000
21.76871 182.000
21.78865 148.000
21.80860 180.000
21.82855 167.000
21.84850 154.000
21.86844 163.000
21.88839 166.000
21.90834 153.000
21.92828 135.000
21.94823 141.000
21.96818 155.000
21.98812 157.000
22.00807 158.000
22.02802 142.000
22.04796 148.000
22.06791 149.000
22.08786 137.000
22.10781 150.000
22.12775 152.000
22.14770 140.000
22.16765 155.000
22.18759 152.000
22.20754 162.000
22.22749 141.000
22.24743 144.000
22.26738 147.000
22.28733 139.000
22.30728 149.000
22.32722 173.000
22.34717 164.000
22.36712 122.000
22.38706 132.000
22.40701 145.000
22.42696 155.000
22.44690 139.000
22.46685 175.000
22.48680 163.000
22.50675 151.000
22.52669 151.000
22.54664 157.000
22.56659 152.000
22.58653 172.000
22.60648 161.000
22.62643 148.000
22.64637 160.000
22.66632 136.000
22.68627 138.000
22.70621 134.000
22.72616 149.000
22.74611 140.000
22.76606 140.000
22.78600 142.000
22.80595 141.000
22.82590 127.000
22.84584 157.000
22.86579 137.000
22.88574 160.000
22.90568 159.000
22.92563 148.000
22.94558 168.000
22.96553 136.000
22.98547 146.000
23.00542 171.000
23.02537 161.000
23.04531 162.000
23.06526 168.000
23.08521 145.000
23.10515 149.000
23.12510 141.000
23.14505 148.000
23.16499 132.000
23.18494 130.000
23.20489 152.000
23.22484 156.000
23.24478 126.000
23.26473 156.000
23.28468 157.000
23.30462 150.000
23.32457 141.000
23.34452 162.000
23.36446 132.000
23.38441 144.000
23.40436 153.000
23.42431 152.000
23.44425 144.000
23.46420 166.000
23.48415 147.000
23.50409 144.000
23.52404 147.000
23.54399 139.000
23.56393 134.000
23.58388 150.000
23.60383 143.000
23.62377 157.000
23.64372 157.000
23.66367 158.000
23.68362 181.000
23.70356 153.000
23.72351 143.000
23.74346 129.000
23.76340 159.000
23.78335 152.000
23.80330 153.000
23.82324 135.000
23.84319 171.000
23.86314 142.000
23.88309 145.000
23.90303 167.000
23.92298 154.000
23.94293 141.000
23.96287 147.000
23.98282 146.000
24.00277 154.000
24.02271 167.000
24.04266 166.000
24.06261 146.000
24.08256 153.000
24.10250 141.000
24.12245 153.000
24.14240 158.000
24.16234 150.000
24.18229 135.000
24.20224 168.000
24.22218 147.000
24.24213 132.000
24.26208 160.000
24.28202 152.000
24.30197 188.000
24.32192 137.000
24.34187 144.000
24.36181 150.000
24.38176 189.000
24.40171 158.000
24.42165 156.000
24.44160 144.000
24.46155 145.000
24.48149 144.000
24.50144 136.000
24.52139 125.000
24.54134 166.000
24.56128 146.000
24.58123 140.000
24.60118 148.000
24.62112 153.000
24.64107 151.000
24.66102 141.000
24.68096 155.000
24.70091 136.000
24.72086 156.000
24.74080 136.000
24.76075 170.000
24.78070 165.000
24.80065 155.000
24.82059 177.000
24.84054 132.000
24.86049 178.000
24.88043 132.000
24.90038 151.000
24.92033 152.000
24.94027 168.000
24.96022 154.000
24.98017 173.000
25.00012 149.000
25.02006 172.000
25.04001 152.000
25.05996 161.000
25.07990 151.000
25.09985 146.000
25.11980 142.000
25.13974 183.000
25.15969 156.000
25.17964 166.000
25.19958 150.000
25.21953 149.000
25.23948 149.000
25.25943 132.000
25.27937 160.000
25.29932 137.000
25.31927 161.000
25.33921 153.000
25.35916 141.000
25.37911 137.000
25.39905 149.000
25.41900 157.000
25.43895 139.000
25.45890 145.000
25.47884 146.000
25.49879 142.000
25.51874 145.000
25.53868 153.000
25.55863 150.000
25.57858 143.000
25.59852 162.000
25.61847 139.000
25.63842 159.000
25.65837 150.000
25.67831 155.000
25.69826 150.000
25.71821 167.000
25.73815 164.000
25.75810 136.000
25.77805 153.000
25.79799 146.000
25.81794 161.000
25.83789 141.000
25.85783 157.000
25.87778 126.000
25.89773 159.000
25.91768 136.000
25.93762 165.000
25.95757 153.000
25.97752 147.000
25.99746 157.000
26.01741 157.000
26.03736 142.000
26.05730 152.000
26.07725 160.000
26.09720 142.000
26.11715 151.000
26.13709 171.000
26.15704 161.000
26.17699 173.000
26.19693 163.000
26.21688 137.000
26.23683 170.000
26.25677 146.000
26.27672 149.000
26.29667 148.000
26.31661 165.000
26.33656 163.000
26.35651 142.000
26.37646 164.000
26.39640 172.000
26.41635 161.000
26.43630 151.000
26.45624 150.000
26.47619 132.000
26.49614 162.000
26.51608 158.000
26.53603 167.000
26.55598 153.000
26.57593 156.000
26.59587 171.000
26.61582 182.000
26.63577 154.000
26.65571 155.000
26.67566 145.000
26.69561 126.000
26.71555 157.000
26.73550 173.000
26.75545 181.000
26.77539 141.000
26.79534 156.000
26.81529 162.000
26.83524 139.000
26.85518 179.000
26.87513 137.000
26.89508 142.000
26.91502 143.000
26.93497 144.000
26.95492 135.000
26.97486 173.000
26.99481 171.000
27.01476 142.000
27.03471 157.000
27.05465 167.000
27.07460 150.000
27.09455 168.000
27.11449 172.000
27.13444 164.000
27.15439 154.000
27.17433 175.000
27.19428 156.000
27.21423 162.000
27.23417 160.000
27.25412 160.000
27.27407 171.000
27.29402 169.000
27.31396 155.000
27.33391 155.000
27.35386 166.000
27.37380 158.000
27.39375 171.000
27.41370 159.000
27.43364 152.000
27.45359 163.000
27.47354 159.000
27.49349 164.000
27.51343 149.000
27.53338 155.000
27.55333 145.000
27.57327 144.000
27.59322 162.000
27.61317 154.000
27.63311 165.000
27.65306 148.000
27.67301 177.000
27.69296 178.000
27.71290 175.000
27.73285 140.000
27.75280 172.000
27.77274 166.000
27.79269 155.000
27.81264 185.000
27.83258 169.000
27.85253 151.000
27.87248 159.000
27.89242 143.000
27.91237 181.000
27.93232 160.000
27.95227 178.000
27.97221 146.000
27.99216 147.000
28.01211 152.000
28.03205 164.000
28.05200 170.000
28.07195 176.000
28.09189 176.000
28.11184 153.000
28.13179 175.000
28.15174 167.000
28.17168 180.000
28.19163 187.000
28.21158 156.000
28.23152 182.000
28.25147 208.000
28.27142 165.000
28.29136 193.000
28.31131 172.000
28.33126 179.000
28.35120 182.000
28.37115 181.000
28.39110 180.000
28.41105 193.000
28.43099 157.000
28.45094 150.000
28.47089 165.000
28.49083 152.000
28.51078 148.000
28.53073 169.000
28.55067 167.000
28.57062 169.000
28.59057 166.000
28.61052 151.000
28.63046 157.000
28.65041 137.000
28.67036 169.000
28.69030 150.000
28.71025 192.000
28.73020 140.000
28.75014 188.000
28.77009 145.000
28.79004 158.000
28.80998 169.000
28.82993 154.000
28.84988 148.000
28.86983 158.000
28.88977 176.000
28.90972 163.000
28.92967 164.000
28.94961 170.000
28.96956 160.000
28.98951 173.000
29.00945 158.000
29.02940 177.000
29.04935 170.000
29.06930 164.000
29.08924 139.000
29.10919 164.000
29.12914 140.000
29.14908 138.000
29.16903 160.000
29.18898 135.000
29.20892 169.000
29.22887 158.000
29.24882 161.000
29.26877 164.000
29.28871 171.000
29.30866 192.000
29.32861 184.000
29.34855 190.000
29.36850 195.000
29.38845 175.000
29.40839 209.000
29.42834 183.000
29.44829 181.000
29.46823 187.000
29.48818 159.000
29.50813 187.000
29.52808 179.000
29.54802 161.000
29.56797 193.000
29.58792 159.000
29.60786 167.000
29.62781 159.000
29.64776 164.000
29.66770 169.000
29.68765 154.000
29.70760 151.000
29.72755 163.000
29.74749 161.000
29.76744 148.000
29.78739 170.000
29.80733 162.000
29.82728 158.000
29.84723 176.000
29.86717 154.000
29.88712 169.000
29.90707 149.000
29.92701 164.000
29.94696 162.000
29.96691 152.000
29.98686 163.000
30.00680 170.000
30.02675 153.000
30.04670 162.000
30.06664 187.000
30.08659 176.000
30.10654 203.000
30.12648 184.000
30.14643 164.000
30.16638 198.000
30.18633 174.000
30.20627 183.000
30.22622 190.000
30.24617 202.000
30.26611 217.000
30.28606 215.000
30.30601 248.000
30.32595 220.000
30.34590 241.000
30.36585 187.000
30.38579 182.000
30.40574 178.000
30.42569 188.000
30.44564 181.000
30.46558 167.000
30.48553 158.000
30.50548 147.000
30.52542 175.000
30.54537 154.000
30.56532 192.000
30.58526 179.000
30.60521 160.000
30.62516 180.000
30.64511 181.000
30.66505 158.000
30.68500 178.000
30.70495 175.000
30.72489 169.000
30.74484 177.000
30.76479 170.000
30.78473 140.000
30.80468 152.000
30.82463 145.000
30.84458 144.000
30.86452 174.000
30.88447 153.000
30.90442 160.000
30.92436 154.000
30.94431 183.000
30.96426 150.000
30.98420 145.000
31.00415 188.000
31.02410 181.000
31.04404 180.000
31.06399 159.000
31.08394 167.000
31.10389 144.000
31.12383 152.000
31.14378 153.000
31.16373 140.000
31.18367 168.000
31.20362 163.000
31.22357 161.000
31.24351 161.000
31.26346 162.000
31.28341 151.000
31.30336 146.000
31.32330 147.000
31.34325 163.000
31.36320 187.000
31.38314 170.000
31.40309 154.000
31.42304 173.000
31.44298 170.000
31.46293 162.000
31.48288 183.000
31.50282 175.000
31.52277 162.000
31.54272 180.000
31.56267 188.000
31.58261 174.000
31.60256 179.000
31.62251 174.000
31.64245 159.000
31.66240 188.000
31.68235 142.000
31.70229 168.000
31.72224 174.000
31.74219 169.000
31.76214 165.000
31.78208 158.000
31.80203 185.000
31.82198 209.000
31.84192 209.000
31.86187 177.000
31.88182 217.000
31.90176 198.000
31.92171 227.000
31.94166 259.000
31.96160 305.000
31.98155 351.000
32.00150 411.000
32.02145 418.000
32.04139 425.000
32.06134 514.000
32.08129 592.000
32.10123 663.000
32.12118 758.000
32.14113 760.000
32.16107 731.000
32.18102 757.000
32.20097 705.000
32.22092 740.000
32.24086 659.000
32.26081 476.000
32.28076 422.000
32.30070 377.000
32.32065 327.000
32.34060 258.000
32.36054 210.000
32.38049 215.000
32.40044 177.000
32.42039 186.000
32.44033 196.000
32.46028 214.000
32.48023 185.000
32.50017 187.000
32.52012 200.000
32.54007 223.000
32.56001 202.000
32.57996 256.000
32.59991 225.000
32.61985 239.000
32.63980 254.000
32.65975 292.000
32.67970 295.000
32.69964 269.000
32.71959 280.000
32.73954 243.000
32.75948 232.000
32.77943 236.000
32.79938 216.000
32.81932 228.000
32.83927 206.000
32.85922 179.000
32.87917 197.000
32.89911 192.000
32.91906 171.000
32.93901 175.000
32.95895 152.000
32.97890 179.000
32.99885 157.000
33.01879 163.000
33.03874 172.000
33.05869 174.000
33.07863 140.000
33.09858 183.000
33.11853 165.000
33.13848 196.000
33.15842 165.000
33.17837 192.000
33.19832 153.000
33.21826 188.000
33.23821 161.000
33.25816 168.000
33.27810 180.000
33.29805 173.000
33.31800 157.000
33.33795 154.000
33.35789 161.000
33.37784 147.000
33.39779 161.000
33.41773 164.000
33.43768 147.000
33.45763 172.000
33.47757 153.000
33.49752 154.000
33.51747 174.000
33.53741 156.000
33.55736 167.000
33.57731 152.000
33.59726 155.000
33.61720 160.000
33.63715 144.000
33.65710 172.000
33.67704 150.000
33.69699 148.000
33.71694 161.000
33.73688 151.000
33.75683 160.000
33.77678 166.000
33.79673 177.000
33.81667 164.000
33.83662 159.000
33.85657 150.000
33.87651 158.000
33.89646 175.000
33.91641 169.000
33.93635 153.000
33.95630 175.000
33.97625 163.000
33.99620 160.000
34.01614 151.000
34.03609 167.000
34.05604 179.000
34.07598 175.000
34.09593 161.000
34.11588 169.000
34.13582 166.000
34.15577 160.000
34.17572 164.000
34.19566 176.000
34.21561 180.000
34.23556 188.000
34.25551 163.000
34.27545 167.000
34.29540 157.000
34.31535 184.000
34.33529 160.000
34.35524 170.000
34.37519 183.000
34.39513 172.000
34.41508 182.000
34.43503 198.000
34.45498 181.000
34.47492 182.000
34.49487 213.000
34.51482 212.000
34.53476 212.000
34.55471 191.000
34.57466 188.000
34.59460 205.000
34.61455 218.000
34.63450 195.000
34.65444 228.000
34.67439 228.000
34.69434 201.000
34.71429 199.000
34.73423 188.000
34.75418 207.000
34.77413 224.000
34.79407 192.000
34.81402 221.000
34.83397 231.000
34.85391 189.000
34.87386 177.000
34.89381 208.000
34.91376 183.000
34.93370 192.000
34.95365 183.000
34.97360 192.000
34.99354 181.000
35.01349 182.000
35.03344 174.000
35.05338 178.000
35.07333 205.000
35.09328 166.000
35.11322 227.000
35.13317 185.000
35.15312 171.000
35.17307 193.000
35.19301 205.000
35.21296 192.000
35.23291 181.000
35.25285 232.000
35.27280 183.000
35.29275 194.000
35.31269 193.000
35.33264 221.000
35.35259 228.000
35.37254 249.000
35.39248 256.000
35.41243 239.000
35.43238 235.000
35.45232 302.000
35.47227 303.000
35.49222 316.000
35.51216 360.000
35.53211 384.000
35.55206 443.000
35.57201 457.000
35.59195 503.000
35.61190 595.000
35.63185 743.000
35.65179 909.000
35.67174 1022.000
35.69169 1057.000
35.71163 1056.000
35.73158 1026.000
35.75153 977.000
35.77147 1017.000
35.79142 871.000
35.81137 870.000
35.83132 808.000
35.85126 751.000
35.87121 725.000
35.89116 593.000
35.91110 541.000
35.93105 503.000
35.95100 443.000
35.97094 401.000
35.99089 346.000
36.01084 314.000
36.03079 262.000
36.05073 273.000
36.07068 266.000
36.09063 243.000
36.11057 229.000
36.13052 243.000
36.15047 219.000
36.17041 263.000
36.19036 216.000
36.21031 238.000
36.23025 221.000
36.25020 228.000
36.27015 224.000
36.29010 203.000
36.31004 223.000
36.32999 220.000
36.34994 227.000
36.36988 187.000
36.38983 218.000
36.40978 216.000
36.42972 222.000
36.44967 218.000
36.46962 209.000
36.48957 243.000
36.50951 211.000
36.52946 209.000
36.54941 235.000
36.56935 249.000
36.58930 304.000
36.60925 260.000
36.62919 266.000
36.64914 260.000
36.66909 264.000
36.68903 242.000
36.70898 286.000
36.72893 296.000
36.74888 316.000
36.76882 306.000
36.78877 314.000
36.80872 378.000
36.82866 387.000
36.84861 459.000
36.86856 507.000
36.88850 615.000
36.90845 694.000
36.92840 691.000
36.94835 809.000
36.96829 889.000
36.98824 934.000
37.00819 973.000
37.02813 989.000
37.04808 1017.000
37.06803 991.000
37.08797 1094.000
37.10792 1059.000
37.12787 997.000
37.14781 976.000
37.16776 862.000
37.18771 773.000
37.20766 666.000
37.22760 601.000
37.24755 578.000
37.26750 472.000
37.28744 427.000
37.30739 382.000
37.32734 318.000
37.34728 332.000
37.36723 311.000
37.38718 293.000
37.40713 264.000
37.42707 267.000
37.44702 269.000
37.46697 273.000
37.48691 230.000
37.50686 220.000
37.52681 237.000
37.54675 224.000
37.56670 198.000
37.58665 194.000
37.60660 201.000
37.62654 196.000
37.64649 200.000
37.66644 196.000
37.68638 202.000
37.70633 187.000
37.72628 196.000
37.74622 194.000
37.76617 172.000
37.78612 178.000
37.80606 182.000
37.82601 198.000
37.84596 178.000
37.86591 204.000
37.88585 179.000
37.90580 150.000
37.92575 194.000
37.94569 179.000
37.96564 214.000
37.98559 199.000
38.00553 188.000
38.02548 185.000
38.04543 203.000
38.06538 187.000
38.08532 184.000
38.10527 187.000
38.12522 182.000
38.14516 184.000
38.16511 188.000
38.18506 176.000
38.20500 191.000
38.22495 162.000
38.24490 201.000
38.26484 197.000
38.28479 178.000
38.30474 194.000
38.32469 197.000
38.34463 182.000
38.36458 192.000
38.38453 188.000
38.40447 181.000
38.42442 195.000
38.44437 194.000
38.46431 201.000
38.48426 202.000
38.50421 182.000
38.52416 221.000
38.54410 215.000
38.56405 185.000
38.58400 198.000
38.60394 217.000
38.62389 229.000
38.64384 268.000
38.66378 235.000
38.68373 265.000
38.70368 225.000
38.72362 247.000
38.74357 261.000
38.76352 264.000
38.78347 273.000
38.80341 281.000
38.82336 256.000
38.84331 280.000
38.86325 252.000
38.88320 267.000
38.90315 259.000
38.92309 260.000
38.94304 239.000
38.96299 284.000
38.98294 266.000
39.00288 279.000
39.02283 266.000
39.04278 263.000
39.06272 304.000
39.08267 301.000
39.10262 312.000
39.12256 348.000
39.14251 376.000
39.16246 422.000
39.18241 511.000
39.20235 573.000
39.22230 689.000
39.24225 928.000
39.26219 1202.000
39.28214 1542.000
39.30209 1681.000
39.32203 1555.000
39.34198 1513.000
39.36193 1419.000
39.38187 1395.000
39.40182 1380.000
39.42177 1276.000
39.44172 1126.000
39.46166 948.000
39.48161 782.000
39.50156 665.000
39.52150 562.000
39.54145 534.000
39.56140 398.000
39.58134 364.000
39.60129 322.000
39.62124 290.000
39.64119 250.000
39.66113 246.000
39.68108 245.000
39.70103 256.000
39.72097 214.000
39.74092 206.000
39.76087 222.000
39.78081 204.000
39.80076 195.000
39.82071 199.000
39.84065 207.000
39.86060 192.000
39.88055 192.000
39.90050 194.000
39.92044 171.000
39.94039 190.000
39.96034 185.000
39.98028 188.000
40.00023 162.000
40.02018 170.000
40.04012 184.000
40.06007 197.000
40.08002 168.000
40.09997 191.000
40.11991 172.000
40.13986 203.000
40.15981 184.000
40.17975 185.000
40.19970 167.000
40.21965 184.000
40.23959 182.000
40.25954 169.000
40.27949 192.000
40.29943 167.000
40.31938 141.000
40.33933 172.000
40.35928 173.000
40.37922 186.000
40.39917 153.000
40.41912 164.000
40.43906 196.000
40.45901 192.000
40.47896 175.000
40.49890 171.000
40.51885 179.000
40.53880 164.000
40.55875 161.000
40.57869 187.000
40.59864 174.000
40.61859 181.000
40.63853 178.000
40.65848 179.000
40.67843 167.000
40.69837 169.000
40.71832 182.000
40.73827 159.000
40.75822 172.000
40.77816 148.000
40.79811 169.000
40.81806 195.000
40.83800 187.000
40.85795 173.000
40.87790 186.000
40.89784 160.000
40.91779 184.000
40.93774 185.000
40.95768 177.000
40.97763 174.000
40.99758 178.000
41.01753 170.000
41.03747 165.000
41.05742 155.000
41.07737 190.000
41.09731 163.000
41.11726 167.000
41.13721 161.000
41.15715 185.000
41.17710 178.000
41.19705 179.000
41.21700 183.000
41.23694 196.000
41.25689 185.000
41.27684 198.000
41.29678 200.000
41.31673 193.000
41.33668 198.000
41.35662 187.000
41.37657 179.000
41.39652 214.000
41.41646 196.000
41.43641 216.000
41.45636 207.000
41.47631 193.000
41.49625 206.000
41.51620 211.000
41.53615 214.000
41.55609 236.000
41.57604 223.000
41.59599 246.000
41.61593 231.000
41.63588 235.000
41.65583 231.000
41.67578 255.000
41.69572 296.000
41.71567 321.000
41.73562 392.000
41.75556 400.000
41.77551 470.000
41.79546 591.000
41.81540 626.000
41.83535 722.000
41.85530 764.000
41.87524 745.000
41.89519 685.000
41.91514 670.000
41.93509 564.000
41.95503 625.000
41.97498 546.000
41.99493 506.000
42.01487 436.000
42.03482 375.000
42.05477 318.000
42.07471 291.000
42.09466 282.000
42.11461 292.000
42.13456 223.000
42.15450 260.000
42.17445 227.000
42.19440 238.000
42.21434 243.000
42.23429 248.000
42.25424 215.000
42.27418 225.000
42.29413 234.000
42.31408 235.000
42.33403 200.000
42.35397 229.000
42.37392 249.000
42.39387 231.000
42.41381 218.000
42.43376 240.000
42.45371 243.000
42.47365 232.000
42.49360 236.000
42.51355 246.000
42.53349 268.000
42.55344 244.000
42.57339 271.000
42.59334 252.000
42.61328 287.000
42.63323 290.000
42.65318 289.000
42.67312 306.000
42.69307 348.000
42.71302 342.000
42.73296 353.000
42.75291 371.000
42.77286 366.000
42.79281 435.000
42.81275 437.000
42.83270 461.000
42.85265 517.000
42.87259 548.000
42.89254 588.000
42.91249 638.000
42.93243 699.000
42.95238 743.000
42.97233 759.000
42.99227 855.000
43.01222 877.000
43.03217 888.000
43.05212 995.000
43.07206 1024.000
43.09201 1016.000
43.11196 1031.000
43.13190 1049.000
43.15185 1012.000
43.17180 982.000
43.19174 1031.000
43.21169 878.000
43.23164 831.000
43.25159 784.000
43.27153 752.000
43.29148 724.000
43.31143 639.000
43.33137 684.000
43.35132 670.000
43.37127 675.000
43.39121 702.000
43.41116 730.000
43.43111 839.000
43.45105 884.000
43.47100 895.000
43.49095 891.000
43.51090 800.000
43.53084 799.000
43.55079 729.000
43.57074 721.000
43.59068 650.000
43.61063 558.000
43.63058 512.000
43.65052 386.000
43.67047 382.000
43.69042 374.000
43.71037 314.000
43.73031 299.000
43.75026 274.000
43.77021 269.000
43.79015 251.000
43.81010 243.000
43.83005 253.000
43.84999 222.000
43.86994 218.000
43.88989 208.000
43.90984 222.000
43.92978 185.000
43.94973 227.000
43.96968 217.000
43.98962 183.000
44.00957 181.000
44.02952 203.000
44.04946 184.000
44.06941 199.000
44.08936 210.000
44.10930 176.000
44.12925 187.000
44.14920 187.000
44.16915 204.000
44.18909 208.000
44.20904 194.000
44.22899 166.000
44.24893 177.000
44.26888 190.000
44.28883 183.000
44.30877 174.000
44.32872 189.000
44.34867 185.000
44.36862 171.000
44.38856 185.000
44.40851 157.000
44.42846 186.000
44.44840 182.000
44.46835 183.000
44.48830 186.000
44.50824 199.000
44.52819 199.000
44.54814 178.000
44.56808 197.000
44.58803 168.000
44.60798 185.000
44.62793 183.000
44.64787 158.000
44.66782 170.000
44.68777 218.000
44.70771 189.000
44.72766 159.000
44.74761 176.000
44.76755 194.000
44.78750 175.000
44.80745 161.000
44.82740 165.000
44.84734 224.000
44.86729 189.000
44.88724 196.000
44.90718 195.000
44.92713 181.000
44.94708 171.000
44.96702 177.000
44.98697 200.000
45.00692 206.000
45.02686 197.000
45.04681 237.000
45.06676 213.000
45.08671 242.000
45.10665 201.000
45.12660 204.000
45.14655 228.000
45.16649 218.000
45.18644 202.000
45.20639 191.000
45.22633 221.000
45.24628 204.000
45.26623 193.000
45.28618 214.000
45.30612 201.000
45.32607 201.000
45.34602 202.000
45.36596 200.000
45.38591 189.000
45.40586 205.000
45.42580 170.000
45.44575 172.000
45.46570 157.000
45.48565 166.000
45.50559 157.000
45.52554 180.000
45.54549 173.000
45.56543 171.000
45.58538 147.000
45.60533 180.000
45.62527 146.000
45.64522 137.000
45.66517 152.000
45.68511 184.000
45.70506 165.000
45.72501 169.000
45.74496 160.000
45.76490 188.000
45.78485 164.000
45.80480 195.000
45.82474 178.000
45.84469 169.000
45.86464 164.000
45.88458 135.000
45.90453 161.000
45.92448 162.000
45.94443 187.000
45.96437 147.000
45.98432 157.000
46.00427 172.000
46.02421 155.000
46.04416 155.000
46.06411 145.000
46.08405 183.000
46.10400 169.000
46.12395 156.000
46.14389 167.000
46.16384 164.000
46.18379 167.000
46.20374 172.000
46.22368 169.000
46.24363 140.000
46.26358 169.000
46.28352 157.000
46.30347 187.000
46.32342 175.000
46.34336 157.000
46.36331 168.000
46.38326 149.000
46.40321 137.000
46.42315 183.000
46.44310 133.000
46.46305 172.000
46.48299 159.000
46.50294 152.000
46.52289 168.000
46.54283 161.000
46.56278 150.000
46.58273 162.000
46.60267 146.000
46.62262 170.000
46.64257 164.000
46.66252 184.000
46.68246 172.000
46.70241 164.000
46.72236 163.000
46.74230 174.000
46.76225 140.000
46.78220 166.000
46.80214 168.000
46.82209 158.000
46.84204 134.000
46.86199 170.000
46.88193 157.000
46.90188 176.000
46.92183 158.000
46.94177 180.000
46.96172 159.000
46.98167 174.000
47.00161 149.000
47.02156 163.000
47.04151 149.000
47.06146 152.000
47.08140 173.000
47.10135 146.000
47.12130 156.000
47.14124 154.000
47.16119 154.000
47.18114 169.000
47.20108 158.000
47.22103 169.000
47.24098 153.000
47.26092 162.000
47.28087 150.000
47.30082 147.000
47.32077 158.000
47.34071 150.000
47.36066 145.000
47.38061 151.000
47.40055 195.000
47.42050 171.000
47.44045 169.000
47.46039 161.000
47.48034 178.000
47.50029 157.000
47.52024 148.000
47.54018 152.000
47.56013 156.000
47.58008 164.000
47.60002 164.000
47.61997 160.000
47.63992 160.000
47.65986 167.000
47.67981 164.000
47.69976 155.000
47.71970 165.000
47.73965 148.000
47.75960 150.000
47.77955 168.000
47.79949 156.000
47.81944 178.000
47.83939 148.000
47.85933 158.000
47.87928 166.000
47.89923 189.000
47.91917 167.000
47.93912 150.000
47.95907 186.000
47.97902 173.000
47.99896 168.000
48.01891 172.000
48.03886 180.000
48.05880 183.000
48.07875 178.000
48.09870 191.000
48.11864 177.000
48.13859 175.000
48.15854 180.000
48.17848 200.000
48.19843 193.000
48.21838 191.000
48.23833 163.000
48.25827 205.000
48.27822 190.000
48.29817 176.000
48.31811 190.000
48.33806 226.000
48.35801 200.000
48.37795 182.000
48.39790 212.000
48.41785 214.000
48.43780 225.000
48.45774 206.000
48.47769 234.000
48.49764 226.000
48.51758 275.000
48.53753 282.000
48.55748 294.000
48.57742 290.000
48.59737 355.000
48.61732 333.000
48.63726 400.000
48.65721 462.000
48.67716 510.000
48.69711 641.000
48.71705 808.000
48.73700 948.000
48.75695 1077.000
48.77689 1275.000
48.79684 1390.000
48.81679 1460.000
48.83673 1473.000
48.85668 1286.000
48.87663 1237.000
48.89658 1081.000
48.91652 1024.000
48.93647 940.000
48.95642 881.000
48.97636 814.000
48.99631 654.000
49.01626 534.000
49.03620 416.000
49.05615 373.000
49.07610 346.000
49.09605 288.000
49.11599 284.000
49.13594 291.000
49.15589 237.000
49.17583 228.000
49.19578 243.000
49.21573 218.000
49.23567 206.000
49.25562 200.000
49.27557 214.000
49.29551 215.000
49.31546 178.000
49.33541 198.000
49.35536 189.000
49.37530 163.000
49.39525 206.000
49.41520 195.000
49.43514 174.000
49.45509 167.000
49.47504 193.000
49.49498 172.000
49.51493 189.000
49.53488 178.000
49.55483 178.000
49.57477 174.000
49.59472 170.000
49.61467 170.000
49.63461 175.000
49.65456 188.000
49.67451 159.000
49.69445 178.000
49.71440 171.000
49.73435 163.000
49.75429 162.000
49.77424 168.000
49.79419 167.000
49.81414 187.000
49.83408 185.000
49.85403 175.000
49.87398 189.000
49.89392 172.000
49.91387 170.000
49.93382 188.000
49.95376 163.000
49.97371 174.000
49.99366 151.000
50.01361 165.000
50.03355 170.000
50.05350 145.000
50.07345 153.000
50.09339 176.000
50.11334 182.000
50.13329 172.000
50.15323 154.000
50.17318 155.000
50.19313 157.000
50.21307 150.000
50.23302 166.000
50.25297 136.000
50.27292 133.000
50.29286 154.000
50.31281 166.000
50.33276 142.000
50.35270 176.000
50.37265 146.000
50.39260 146.000
50.41254 137.000
50.43249 139.000
50.45244 155.000
50.47239 157.000
50.49233 156.000
50.51228 150.000
50.53223 145.000
50.55217 154.000
50.57212 180.000
50.59207 152.000
50.61201 165.000
50.63196 142.000
50.65191 148.000
50.67186 127.000
50.69180 155.000
50.71175 149.000
50.73170 156.000
50.75164 167.000
50.77159 158.000
50.79154 147.000
50.81148 152.000
50.83143 148.000
50.85138 165.000
50.87132 148.000
50.89127 165.000
50.91122 152.000
50.93117 147.000
50.95111 146.000
50.97106 141.000
50.99101 186.000
51.01095 153.000
51.03090 160.000
51.05085 173.000
51.07079 149.000
51.09074 146.000
51.11069 153.000
51.13064 131.000
51.15058 177.000
51.17053 122.000
51.19048 138.000
51.21042 128.000
51.23037 129.000
51.25032 162.000
51.27026 142.000
51.29021 148.000
51.31016 141.000
51.33010 158.000
51.35005 156.000
51.37000 140.000
51.38995 147.000
51.40989 171.000
51.42984 152.000
51.44979 155.000
51.46973 164.000
51.48968 161.000
51.50963 145.000
51.52957 151.000
51.54952 166.000
51.56947 159.000
51.58942 171.000
51.60936 152.000
51.62931 151.000
51.64926 131.000
51.66920 147.000
51.68915 160.000
51.70910 138.000
51.72904 136.000
51.74899 159.000
51.76894 154.000
51.78888 139.000
51.80883 150.000
51.82878 124.000
51.84873 155.000
51.86867 178.000
51.88862 140.000
51.90857 163.000
51.92851 144.000
51.94846 155.000
51.96841 136.000
51.98835 165.000
52.00830 150.000
52.02825 165.000
52.04820 184.000
52.06814 161.000
52.08809 146.000
52.10804 178.000
52.12798 149.000
52.14793 190.000
52.16788 153.000
52.18782 164.000
52.20777 174.000
52.22772 160.000
52.24767 167.000
52.26761 152.000
52.28756 171.000
52.30751 148.000
52.32745 129.000
52.34740 165.000
52.36735 168.000
52.38729 153.000
52.40724 149.000
52.42719 160.000
52.44713 147.000
52.46708 146.000
52.48703 143.000
52.50698 161.000
52.52692 168.000
52.54687 155.000
52.56682 180.000
52.58676 148.000
52.60671 175.000
52.62666 180.000
52.64660 164.000
52.66655 146.000
52.68650 164.000
52.70645 164.000
52.72639 145.000
52.74634 177.000
52.76629 169.000
52.78623 180.000
52.80618 159.000
52.82613 166.000
52.84607 166.000
52.86602 149.000
52.88597 163.000
52.90591 163.000
52.92586 184.000
52.94581 167.000
52.96576 196.000
52.98570 168.000
53.00565 194.000
53.02560 190.000
53.04554 186.000
53.06549 172.000
53.08544 233.000
53.10538 218.000
53.12533 220.000
53.14528 260.000
53.16523 262.000
53.18517 234.000
53.20512 220.000
53.22507 223.000
53.24501 224.000
53.26496 205.000
53.28491 213.000
53.30485 221.000
53.32480 209.000
53.34475 198.000
53.36469 204.000
53.38464 212.000
53.40459 175.000
53.42454 161.000
53.44448 197.000
53.46443 148.000
53.48438 168.000
53.50432 155.000
53.52427 153.000
53.54422 181.000
53.56416 176.000
53.58411 176.000
53.60406 172.000
53.62401 167.000
53.64395 173.000
53.66390 141.000
53.68385 170.000
53.70379 164.000
53.72374 167.000
53.74369 168.000
53.76363 175.000
53.78358 178.000
53.80353 173.000
53.82348 172.000
53.84342 195.000
53.86337 174.000
53.88332 166.000
53.90326 189.000
53.92321 166.000
53.94316 178.000
53.96310 169.000
53.98305 161.000
54.00300 159.000
54.02294 144.000
54.04289 140.000
54.06284 183.000
54.08279 171.000
54.10273 172.000
54.12268 146.000
54.14263 165.000
54.16257 144.000
54.18252 152.000
54.20247 160.000
54.22241 137.000
54.24236 147.000
54.26231 147.000
54.28226 142.000
54.30220 128.000
54.32215 143.000
54.34210 174.000
54.36204 168.000
54.38199 152.000
54.40194 140.000
54.42188 155.000
54.44183 169.000
54.46178 181.000
54.48172 167.000
54.50167 156.000
54.52162 152.000
54.54157 165.000
54.56151 147.000
54.58146 151.000
54.60141 172.000
54.62135 169.000
54.64130 156.000
54.66125 148.000
54.68119 144.000
54.70114 170.000
54.72109 161.000
54.74104 154.000
54.76098 170.000
54.78093 163.000
54.80088 170.000
54.82082 146.000
54.84077 162.000
54.86072 168.000
54.88066 145.000
54.90061 169.000
54.92056 170.000
54.94050 148.000
54.96045 164.000
54.98040 165.000
55.00035 146.000
55.02029 149.000
55.04024 156.000
55.06019 150.000
55.08013 148.000
55.10008 161.000
55.12003 124.000
55.13997 173.000
55.15992 156.000
55.17987 143.000
55.19982 144.000
55.21976 163.000
55.23971 153.000
55.25966 136.000
55.27960 166.000
55.29955 161.000
55.31950 168.000
55.33944 126.000
55.35939 164.000
55.37934 169.000
55.39929 155.000
55.41923 146.000
55.43918 130.000
55.45913 140.000
55.47907 163.000
55.49902 139.000
55.51897 153.000
55.53891 166.000
55.55886 146.000
55.57881 157.000
55.59875 149.000
55.61870 142.000
55.63865 165.000
55.65860 163.000
55.67854 151.000
55.69849 161.000
55.71844 172.000
55.73838 141.000
55.75833 142.000
55.77828 158.000
55.79822 151.000
55.81817 158.000
55.83812 172.000
55.85807 163.000
55.87801 173.000
55.89796 141.000
55.91791 173.000
55.93785 162.000
55.95780 148.000
55.97775 150.000
55.99769 158.000
56.01764 172.000
56.03759 149.000
56.05753 183.000
56.07748 168.000
56.09743 163.000
56.11738 159.000
56.13732 167.000
56.15727 169.000
56.17722 153.000
56.19716 163.000
56.21711 148.000
56.23706 145.000
56.25700 164.000
56.27695 149.000
56.29690 166.000
56.31685 170.000
56.33679 160.000
56.35674 132.000
56.37669 184.000
56.39663 151.000
56.41658 129.000
56.43653 177.000
56.45647 150.000
56.47642 158.000
56.49637 144.000
56.51631 147.000
56.53626 162.000
56.55621 155.000
56.57616 170.000
56.59610 155.000
56.61605 172.000
56.63600 171.000
56.65594 177.000
56.67589 171.000
56.69584 181.000
56.71578 182.000
56.73573 156.000
56.75568 174.000
56.77563 149.000
56.79557 173.000
56.81552 147.000
56.83547 177.000
56.85541 161.000
56.87536 171.000
56.89531 161.000
56.91525 146.000
56.93520 160.000
56.95515 165.000
56.97510 159.000
56.99504 193.000
57.01499 184.000
57.03494 174.000
57.05488 161.000
57.07483 183.000
57.09478 164.000
57.11472 187.000
57.13467 172.000
57.15462 183.000
57.17456 160.000
57.19451 171.000
57.21446 155.000
57.23441 197.000
57.25435 192.000
57.27430 171.000
57.29425 219.000
57.31419 222.000
57.33414 210.000
57.35409 202.000
57.37403 200.000
57.39398 200.000
57.41393 222.000
57.43388 205.000
57.45382 193.000
57.47377 227.000
57.49372 214.000
57.51366 217.000
57.53361 231.000
57.55356 202.000
57.57350 207.000
57.59345 209.000
57.61340 211.000
57.63334 230.000
57.65329 224.000
57.67324 217.000
57.69319 232.000
57.71313 246.000
57.73308 234.000
57.75303 229.000
57.77297 272.000
57.79292 222.000
57.81287 214.000
57.83281 261.000
57.85276 206.000
57.87271 247.000
57.89266 247.000
57.91260 232.000
57.93255 229.000
57.95250 230.000
57.97244 216.000
57.99239 219.000
58.01234 219.000
58.03228 190.000
58.05223 171.000
58.07218 177.000
58.09212 194.000
58.11207 170.000
58.13202 183.000
58.15197 170.000
58.17191 173.000
58.19186 176.000
58.21181 159.000
58.23175 183.000
58.25170 185.000
58.27165 177.000
58.29159 163.000
58.31154 159.000
58.33149 170.000
58.35144 158.000
58.37138 187.000
58.39133 164.000
58.41128 161.000
58.43122 160.000
58.45117 152.000
58.47112 169.000
58.49106 149.000
58.51101 155.000
58.53096 151.000
58.55090 171.000
58.57085 161.000
58.59080 160.000
58.61075 143.000
58.63069 158.000
58.65064 172.000
58.67059 173.000
58.69053 164.000
58.71048 166.000
58.73043 160.000
58.75037 155.000
58.77032 140.000
58.79027 153.000
58.81022 161.000
58.83016 186.000
58.85011 147.000
58.87006 170.000
58.89000 168.000
58.90995 171.000
58.92990 162.000
58.94984 179.000
58.96979 139.000
58.98974 155.000
59.00969 161.000
59.02963 148.000
59.04958 136.000
59.06953 163.000
59.08947 175.000
59.10942 167.000
59.12937 167.000
59.14931 139.000
59.16926 170.000
59.18921 175.000
59.20915 153.000
59.22910 158.000
59.24905 151.000
59.26900 193.000
59.28894 165.000
59.30889 164.000
59.32884 140.000
59.34878 168.000
59.36873 158.000
59.38868 167.000
59.40862 175.000
59.42857 179.000
59.44852 163.000
59.46847 170.000
59.48841 160.000
59.50836 151.000
59.52831 160.000
59.54825 163.000
59.56820 160.000
59.58815 173.000
59.60809 168.000
59.62804 187.000
59.64799 150.000
59.66793 175.000
59.68788 138.000
59.70783 164.000
59.72778 166.000
59.74772 162.000
59.76767 159.000
59.78762 176.000
59.80756 170.000
59.82751 158.000
59.84746 164.000
59.86740 172.000
59.88735 168.000
59.90730 174.000
59.92725 173.000
59.94719 181.000
59.96714 180.000
59.98709 172.000
60.00703 170.000
60.02698 163.000
60.04693 149.000
60.06687 156.000
60.08682 199.000
60.10677 160.000
60.12671 147.000
60.14666 203.000
60.16661 183.000
60.18656 149.000
60.20650 170.000
60.22645 190.000
60.24640 161.000
60.26634 191.000
60.28629 161.000
60.30624 163.000
60.32618 161.000
60.34613 156.000
60.36608 168.000
60.38603 158.000
60.40597 161.000
60.42592 156.000
60.44587 167.000
60.46581 162.000
60.48576 158.000
60.50571 177.000
60.52565 178.000
60.54560 194.000
60.56555 152.000
60.58550 157.000
60.60544 161.000
60.62539 186.000
60.64534 165.000
60.66528 156.000
60.68523 159.000
60.70518 154.000
60.72512 168.000
60.74507 145.000
60.76502 180.000
60.78496 163.000
60.80491 148.000
60.82486 168.000
60.84481 169.000
60.86475 156.000
60.88470 183.000
60.90465 169.000
60.92459 162.000
60.94454 167.000
60.96449 155.000
60.98443 191.000
61.00438 181.000
61.02433 169.000
61.04428 167.000
61.06422 160.000
61.08417 162.000
61.10412 163.000
61.12406 197.000
61.14401 180.000
61.16396 156.000
61.18390 188.000
61.20385 174.000
61.22380 170.000
61.24374 173.000
61.26369 169.000
61.28364 171.000
61.30359 191.000
61.32353 165.000
61.34348 173.000
61.36343 150.000
61.38337 185.000
61.40332 163.000
61.42327 206.000
61.44321 171.000
61.46316 186.000
61.48311 186.000
61.50306 205.000
61.52300 184.000
61.54295 193.000
61.56290 197.000
61.58284 219.000
61.60279 204.000
61.62274 199.000
61.64268 203.000
61.66263 203.000
61.68258 236.000
61.70252 217.000
61.72247 215.000
61.74242 224.000
61.76237 244.000
61.78231 247.000
61.80226 228.000
61.82221 257.000
61.84215 238.000
61.86210 257.000
61.88205 239.000
61.90199 301.000
61.92194 300.000
61.94189 305.000
61.96184 322.000
61.98178 383.000
62.00173 385.000
62.02168 433.000
62.04162 487.000
62.06157 510.000
62.08152 584.000
62.10146 618.000
62.12141 625.000
62.14136 663.000
62.16131 678.000
62.18125 667.000
62.20120 675.000
62.22115 720.000
62.24109 700.000
62.26104 704.000
62.28099 662.000
62.30093 616.000
62.32088 642.000
62.34083 626.000
62.36077 600.000
62.38072 609.000
62.40067 590.000
62.42062 576.000
62.44056 597.000
62.46051 587.000
62.48046 598.000
62.50040 566.000
62.52035 541.000
62.54030 549.000
62.56024 551.000
62.58019 526.000
62.60014 535.000
62.62009 525.000
62.64003 516.000
62.65998 482.000
62.67993 500.000
62.69987 514.000
62.71982 451.000
62.73977 459.000
62.75971 459.000
62.77966 416.000
62.79961 403.000
62.81955 392.000
62.83950 370.000
62.85945 325.000
62.87940 317.000
62.89934 333.000
62.91929 323.000
62.93924 347.000
62.95918 324.000
62.97913 293.000
62.99908 292.000
63.01902 271.000
63.03897 283.000
63.05892 243.000
63.07887 268.000
63.09881 254.000
63.11876 258.000
63.13871 241.000
63.15865 269.000
63.17860 250.000
63.19855 244.000
63.21849 220.000
63.23844 224.000
63.25839 237.000
63.27833 228.000
63.29828 249.000
63.31823 228.000
63.33818 211.000
63.35812 225.000
63.37807 217.000
63.39802 230.000
63.41796 200.000
63.43791 232.000
63.45786 260.000
63.47780 256.000
63.49775 247.000
63.51770 289.000
63.53765 288.000
63.55759 285.000
63.57754 286.000
63.59749 281.000
63.61743 293.000
63.63738 254.000
63.65733 271.000
63.67727 252.000
63.69722 225.000
63.71717 263.000
63.73712 286.000
63.75706 256.000
63.77701 231.000
63.79696 242.000
63.81690 241.000
63.83685 236.000
63.85680 232.000
63.87674 232.000
63.89669 228.000
63.91664 237.000
63.93658 252.000
63.95653 258.000
63.97648 284.000
63.99643 318.000
64.01637 388.000
64.03632 368.000
64.05627 418.000
64.07621 491.000
64.09616 438.000
64.11611 482.000
64.13605 485.000
64.15600 451.000
64.17595 428.000
64.19590 429.000
64.21584 396.000
64.23579 415.000
64.25574 399.000
64.27568 385.000
64.29563 414.000
64.31558 368.000
64.33552 375.000
64.35547 341.000
64.37542 316.000
64.39536 306.000
64.41531 345.000
64.43526 286.000
64.45521 299.000
64.47515 260.000
64.49510 285.000
64.51505 251.000
64.53499 229.000
64.55494 259.000
64.57489 241.000
64.59483 240.000
64.61478 231.000
64.63473 224.000
64.65468 216.000
64.67462 213.000
64.69457 200.000
64.71452 217.000
64.73446 177.000
64.75441 203.000
64.77436 178.000
64.79430 164.000
64.81425 165.000
64.83420 187.000
64.85414 181.000
64.87409 170.000
64.89404 169.000
64.91399 177.000
64.93393 171.000
64.95388 194.000
64.97383 189.000
64.99377 177.000
65.01372 174.000
65.03367 169.000
65.05361 154.000
65.07356 170.000
65.09351 155.000
65.11346 174.000
65.13340 167.000
65.15335 177.000
65.17330 174.000
65.19324 182.000
65.21319 177.000
65.23314 178.000
65.25308 190.000
65.27303 172.000
65.29298 182.000
65.31293 140.000
65.33287 164.000
65.35282 186.000
65.37277 206.000
65.39271 179.000
65.41266 188.000
65.43261 197.000
65.45255 184.000
65.47250 205.000
65.49245 186.000
65.51239 184.000
65.53234 196.000
65.55229 175.000
65.57224 179.000
65.59218 205.000
65.61213 164.000
65.63208 190.000
65.65202 184.000
65.67197 184.000
65.69192 194.000
65.71186 184.000
65.73181 167.000
65.75176 167.000
65.77171 194.000
65.79165 208.000
65.81160 216.000
65.83155 175.000
65.85149 199.000
65.87144 187.000
65.89139 195.000
65.91133 209.000
65.93128 212.000
65.95123 196.000
65.97117 194.000
65.99112 188.000
66.01107 213.000
66.03102 226.000
66.05096 222.000
66.07091 201.000
66.09086 240.000
66.11080 232.000
66.13075 212.000
66.15070 229.000
66.17064 245.000
66.19059 216.000
66.21054 232.000
66.23049 226.000
66.25043 241.000
66.27038 233.000
66.29033 254.000
66.31027 235.000
66.33022 256.000
66.35017 223.000
66.37011 232.000
66.39006 253.000
66.41001 254.000
66.42995 274.000
66.44990 317.000
66.46985 327.000
66.48980 345.000
66.50974 361.000
66.52969 355.000
66.54964 344.000
66.56958 350.000
66.58953 374.000
66.60948 309.000
66.62942 295.000
66.64937 330.000
66.66932 301.000
66.68927 315.000
66.70921 316.000
66.72916 331.000
66.74911 296.000
66.76905 279.000
66.78900 314.000
66.80895 293.000
66.82889 272.000
66.84884 260.000
66.86879 259.000
66.88874 271.000
66.90868 247.000
66.92863 268.000
66.94858 225.000
66.96852 252.000
66.98847 253.000
67.00842 222.000
67.02836 233.000
67.04831 218.000
67.06826 229.000
67.08820 232.000
67.10815 211.000
67.12810 215.000
67.14805 222.000
67.16799 221.000
67.18794 216.000
67.20789 242.000
67.22783 248.000
67.24778 216.000
67.26773 237.000
67.28767 214.000
67.30762 195.000
67.32757 214.000
67.34752 208.000
67.36746 217.000
67.38741 209.000
67.40736 226.000
67.42730 207.000
67.44725 199.000
67.46720 197.000
67.48714 218.000
67.50709 213.000
67.52704 165.000
67.54698 193.000
67.56693 212.000
67.58688 195.000
67.60683 183.000
67.62677 192.000
67.64672 195.000
67.66667 176.000
67.68661 181.000
67.70656 174.000
67.72651 191.000
67.74645 175.000
67.76640 153.000
67.78635 160.000
67.80630 178.000
67.82624 184.000
67.84619 163.000
67.86614 174.000
67.88608 187.000
67.90603 201.000
67.92598 169.000
67.94592 197.000
67.96587 169.000
67.98582 189.000
68.00576 173.000
68.02571 192.000
68.04566 172.000
68.06561 199.000
68.08555 220.000
68.10550 181.000
68.12545 164.000
68.14539 183.000
68.16534 189.000
68.18529 154.000
68.20523 171.000
68.22518 177.000
68.24513 179.000
68.26508 198.000
68.28502 167.000
68.30497 176.000
68.32492 157.000
68.34486 168.000
68.36481 149.000
68.38476 179.000
68.40470 176.000
68.42465 178.000
68.44460 171.000
68.46455 182.000
68.48449 153.000
68.50444 165.000
68.52439 171.000
68.54433 149.000
68.56428 154.000
68.58423 171.000
68.60417 151.000
68.62412 165.000
68.64407 154.000
68.66401 179.000
68.68396 170.000
68.70391 151.000
68.72386 158.000
68.74380 158.000
68.76375 163.000
68.78370 164.000
68.80364 194.000
68.82359 157.000
68.84354 149.000
68.86348 165.000
68.88343 138.000
68.90338 162.000
68.92333 177.000
68.94327 166.000
68.96322 166.000
68.98317 134.000
69.00311 152.000
69.02306 164.000
69.04301 160.000
69.06295 161.000
69.08290 158.000
69.10285 157.000
69.12279 166.000
69.14274 157.000
69.16269 148.000
69.18264 138.000
69.20258 137.000
69.22253 159.000
69.24248 153.000
69.26242 150.000
69.28237 174.000
69.30232 138.000
69.32226 166.000
69.34221 140.000
69.36216 166.000
69.38211 158.000
69.40205 166.000
69.42200 147.000
69.44195 166.000
69.46189 154.000
69.48184 160.000
69.50179 168.000
69.52173 157.000
69.54168 143.000
69.56163 141.000
69.58157 133.000
69.60152 137.000
69.62147 142.000
69.64142 158.000
69.66136 151.000
69.68131 151.000
69.70126 173.000
69.72120 164.000
69.74115 146.000
69.76110 161.000
69.78104 150.000
69.80099 160.000
69.82094 167.000
69.84089 187.000
69.86083 151.000
69.88078 131.000
69.90073 163.000
69.92067 157.000
69.94062 162.000
69.96057 173.000
69.98051 144.000
70.00046 170.000
70.02041 152.000
70.04035 149.000
70.06030 183.000
70.08025 160.000
70.10020 160.000
70.12014 184.000
70.14009 150.000
70.16004 162.000
70.17998 163.000
70.19993 160.000
70.21988 156.000
70.23982 163.000
70.25977 160.000
70.27972 167.000
70.29967 163.000
70.31961 155.000
70.33956 164.000
70.35951 175.000
70.37945 165.000
70.39940 146.000
70.41935 133.000
70.43929 154.000
70.45924 143.000
70.47919 157.000
70.49914 145.000
70.51908 135.000
70.53903 144.000
70.55898 150.000
70.57892 173.000
70.59887 173.000
70.61882 165.000
70.63876 138.000
70.65871 182.000
70.67866 133.000
70.69860 149.000
70.71855 145.000
70.73850 131.000
70.75845 145.000
70.77839 148.000
70.79834 157.000
70.81829 131.000
70.83823 156.000
70.85818 146.000
70.87813 169.000
70.89807 163.000
70.91802 142.000
70.93797 178.000
70.95792 159.000
70.97786 185.000
70.99781 150.000
71.01776 129.000
71.03770 166.000
71.05765 132.000
71.07760 147.000
71.09754 150.000
71.11749 154.000
71.13744 159.000
71.15738 167.000
71.17733 169.000
71.19728 150.000
71.21723 158.000
71.23717 161.000
71.25712 171.000
71.27707 173.000
71.29701 162.000
71.31696 167.000
71.33691 162.000
71.35685 157.000
71.37680 146.000
71.39675 153.000
71.41670 158.000
71.43664 160.000
71.45659 154.000
71.47654 163.000
71.49648 174.000
71.51643 176.000
71.53638 147.000
71.55632 167.000
71.57627 174.000
71.59622 151.000
71.61616 145.000
71.63611 153.000
71.65606 153.000
71.67601 180.000
71.69595 152.000
71.71590 151.000
71.73585 172.000
71.75579 150.000
71.77574 156.000
71.79569 153.000
71.81563 156.000
71.83558 162.000
71.85553 166.000
71.87548 150.000
71.89542 165.000
71.91537 143.000
71.93532 137.000
71.95526 165.000
71.97521 178.000
71.99516 148.000
72.01510 164.000
72.03505 180.000
72.05500 165.000
72.07495 163.000
72.09489 165.000
72.11484 143.000
72.13479 152.000
72.15473 176.000
72.17468 164.000
72.19463 166.000
72.21457 175.000
72.23452 176.000
72.25447 180.000
72.27441 154.000
72.29436 154.000
72.31431 162.000
72.33426 142.000
72.35420 136.000
72.37415 171.000
72.39410 167.000
72.41404 138.000
72.43399 157.000
72.45394 169.000
72.47388 171.000
72.49383 141.000
72.51378 167.000
72.53373 161.000
72.55367 165.000
72.57362 162.000
72.59357 158.000
72.61351 189.000
72.63346 177.000
72.65341 153.000
72.67335 163.000
72.69330 167.000
72.71325 170.000
72.73319 152.000
72.75314 156.000
72.77309 165.000
72.79304 190.000
72.81298 179.000
72.83293 179.000
72.85288 168.000
72.87282 165.000
72.89277 187.000
72.91272 154.000
72.93266 138.000
72.95261 178.000
72.97256 182.000
72.99251 147.000
73.01245 146.000
73.03240 171.000
73.05235 154.000
73.07229 167.000
73.09224 186.000
73.11219 185.000
73.13213 188.000
73.15208 196.000
73.17203 186.000
73.19197 188.000
73.21192 186.000
73.23187 182.000
73.25182 188.000
73.27176 188.000
73.29171 181.000
73.31166 188.000
73.33160 196.000
73.35155 192.000
73.37150 217.000
73.39144 240.000
73.41139 205.000
73.43134 216.000
73.45129 239.000
73.47123 263.000
73.49118 261.000
73.51113 250.000
73.53107 287.000
73.55102 282.000
73.57097 264.000
73.59091 279.000
73.61086 266.000
73.63081 258.000
73.65076 274.000
73.67070 252.000
73.69065 247.000
73.71060 260.000
73.73054 258.000
73.75049 249.000
73.77044 263.000
73.79038 254.000
73.81033 234.000
73.83028 240.000
73.85022 234.000
73.87017 204.000
73.89012 203.000
73.91007 256.000
73.93001 202.000
73.94996 195.000
73.96991 183.000
73.98985 180.000
74.00980 178.000
74.02975 189.000
74.04969 176.000
74.06964 176.000
74.08959 169.000
74.10954 166.000
74.12948 166.000
74.14943 163.000
74.16938 181.000
74.18932 165.000
74.20927 168.000
74.22922 170.000
74.24916 160.000
74.26911 164.000
74.28906 170.000
74.30900 187.000
74.32895 181.000
74.34890 183.000
74.36885 176.000
74.38879 173.000
74.40874 178.000
74.42869 190.000
74.44863 188.000
74.46858 192.000
74.48853 181.000
74.50847 209.000
74.52842 195.000
74.54837 210.000
74.56832 217.000
74.58826 205.000
74.60821 181.000
74.62816 180.000
74.64810 230.000
74.66805 213.000
74.68800 233.000
74.70794 227.000
74.72789 220.000
74.74784 232.000
74.76778 225.000
74.78773 232.000
74.80768 223.000
74.82763 256.000
74.84757 248.000
74.86752 248.000
74.88747 268.000
74.90741 261.000
74.92736 260.000
74.94731 274.000
74.96725 278.000
74.98720 256.000
75.00715 243.000
75.02710 260.000
75.04704 269.000
75.06699 275.000
75.08694 282.000
75.10688 284.000
75.12683 274.000
75.14678 263.000
75.16672 253.000
75.18667 267.000
75.20662 234.000
75.22657 241.000
75.24651 263.000
75.26646 250.000
75.28641 246.000
75.30635 237.000
75.32630 248.000
75.34625 230.000
75.36619 240.000
75.38614 246.000
75.40609 191.000
75.42603 225.000
75.44598 230.000
75.46593 204.000
75.48588 215.000
75.50582 244.000
75.52577 223.000
75.54572 231.000
75.56566 202.000
75.58561 218.000
75.60556 198.000
75.62550 215.000
75.64545 205.000
75.66540 201.000
75.68535 219.000
75.70529 209.000
75.72524 194.000
75.74519 226.000
75.76513 183.000
75.78508 190.000
75.80503 208.000
75.82497 237.000
75.84492 198.000
75.86487 184.000
75.88481 193.000
75.90476 208.000
75.92471 173.000
75.94466 178.000
75.96460 183.000
75.98455 193.000
76.00450 189.000
76.02444 181.000
76.04439 170.000
76.06434 171.000
76.08428 182.000
76.10423 173.000
76.12418 184.000
76.14413 203.000
76.16407 181.000
76.18402 156.000
76.20397 162.000
76.22391 164.000
76.24386 155.000
76.26381 155.000
76.28375 185.000
76.30370 159.000
76.32365 159.000
76.34359 174.000
76.36354 150.000
76.38349 133.000
76.40344 150.000
76.42338 160.000
76.44333 166.000
76.46328 149.000
76.48322 168.000
76.50317 174.000
76.52312 132.000
76.54306 162.000
76.56301 148.000
76.58296 141.000
76.60291 151.000
76.62285 148.000
76.64280 161.000
76.66275 152.000
76.68269 177.000
76.70264 142.000
76.72259 159.000
76.74253 158.000
76.76248 169.000
76.78243 164.000
76.80238 154.000
76.82232 142.000
76.84227 182.000
76.86222 163.000
76.88216 174.000
76.90211 150.000
76.92206 164.000
76.94200 166.000
76.96195 150.000
76.98190 142.000
77.00184 153.000
77.02179 158.000
77.04174 149.000
77.06169 169.000
77.08163 161.000
77.10158 166.000
77.12153 164.000
77.14147 154.000
77.16142 160.000
77.18137 166.000
77.20131 162.000
77.22126 158.000
77.24121 169.000
77.26116 149.000
77.28110 155.000
77.30105 166.000
77.32100 161.000
77.34094 161.000
77.36089 160.000
77.38084 141.000
77.40078 161.000
77.42073 150.000
77.44068 152.000
77.46062 166.000
77.48057 143.000
77.50052 159.000
77.52047 179.000
77.54041 162.000
77.56036 160.000
77.58031 153.000
77.60025 191.000
77.62020 148.000
77.64015 188.000
77.66009 180.000
77.68004 185.000
77.69999 194.000
77.71994 190.000
77.73988 228.000
77.75983 230.000
77.77978 239.000
77.79972 209.000
77.81967 241.000
77.83962 233.000
77.85956 240.000
77.87951 232.000
77.89946 239.000
77.91940 230.000
77.93935 209.000
77.95930 214.000
77.97925 202.000
77.99919 232.000
78.01914 220.000
78.03909 196.000
78.05903 225.000
78.07898 237.000
78.09893 234.000
78.11887 206.000
78.13882 248.000
78.15877 208.000
78.17872 215.000
78.19866 234.000
78.21861 243.000
78.23856 213.000
78.25850 203.000
78.27845 241.000
78.29840 251.000
78.31834 250.000
78.33829 211.000
78.35824 260.000
78.37819 257.000
78.39813 213.000
78.41808 235.000
78.43803 233.000
78.45797 272.000
78.47792 256.000
78.49787 263.000
78.51781 260.000
78.53776 271.000
78.55771 300.000
78.57765 279.000
78.59760 271.000
78.61755 291.000
78.63750 285.000
78.65744 301.000
78.67739 321.000
78.69734 302.000
78.71728 278.000
78.73723 293.000
78.75718 284.000
78.77712 229.000
78.79707 311.000
78.81702 269.000
78.83697 269.000
78.85691 267.000
78.87686 279.000
78.89681 272.000
78.91675 266.000
78.93670 294.000
78.95665 280.000
78.97659 286.000
78.99654 280.000
79.01649 253.000
79.03643 264.000
79.05638 279.000
79.07633 247.000
79.09628 268.000
79.11622 230.000
79.13617 256.000
79.15612 263.000
79.17606 241.000
79.19601 247.000
79.21596 256.000
79.23590 205.000
79.25585 218.000
79.27580 215.000
79.29575 219.000
79.31569 210.000
79.33564 222.000
79.35559 198.000
79.37553 167.000
79.39548 209.000
79.41543 177.000
79.43537 190.000
79.45532 195.000
79.47527 189.000
79.49521 200.000
79.51516 169.000
79.53511 160.000
79.55506 168.000
79.57500 169.000
79.59495 175.000
79.61490 182.000
79.63484 178.000
79.65479 195.000
79.67474 159.000
79.69468 208.000
79.71463 185.000
79.73458 169.000
79.75453 161.000
79.77447 155.000
79.79442 159.000
79.81437 147.000
79.83431 152.000
79.85426 156.000
79.87421 139.000
79.89415 160.000
79.91410 162.000
79.93405 150.000
79.95399 159.000
79.97394 160.000
79.99389 163.000
80.01384 158.000
80.03378 169.000
80.05373 146.000
80.07368 133.000
80.09362 168.000
80.11357 164.000
80.13352 162.000
80.15346 167.000
80.17341 152.000
80.19336 164.000
80.21331 139.000
80.23325 158.000
80.25320 162.000
80.27315 157.000
80.29309 159.000
80.31304 146.000
80.33299 136.000
80.35293 142.000
80.37288 137.000
80.39283 175.000
80.41278 170.000
80.43272 167.000
80.45267 145.000
80.47262 149.000
80.49256 171.000
80.51251 180.000
80.53246 189.000
80.55240 141.000
80.57235 169.000
80.59230 169.000
80.61224 173.000
80.63219 187.000
80.65214 152.000
80.67209 164.000
80.69203 172.000
80.71198 146.000
80.73193 165.000
80.75187 155.000
80.77182 163.000
80.79177 139.000
80.81171 149.000
80.83166 141.000
80.85161 169.000
80.87156 165.000
80.89150 158.000
80.91145 143.000
80.93140 153.000
80.95134 171.000
80.97129 162.000
80.99124 161.000
81.01118 180.000
81.03113 165.000
81.05108 150.000
81.07102 165.000
81.09097 152.000
81.11092 138.000
81.13087 162.000
81.15081 170.000
81.17076 148.000
81.19071 150.000
81.21065 153.000
81.23060 149.000
81.25055 180.000
81.27049 147.000
81.29044 141.000
81.31039 159.000
81.33034 157.000
81.35028 160.000
81.37023 147.000
81.39018 151.000
81.41012 169.000
81.43007 141.000
81.45002 157.000
81.46996 159.000
81.48991 151.000
81.50986 150.000
81.52980 162.000
81.54975 167.000
81.56970 157.000
81.58965 176.000
81.60959 150.000
81.62954 157.000
81.64949 154.000
81.66943 191.000
81.68938 169.000
81.70933 144.000
81.72927 151.000
81.74922 152.000
81.76917 151.000
81.78912 152.000
81.80906 145.000
81.82901 149.000
81.84896 152.000
81.86890 161.000
81.88885 160.000
81.90880 135.000
81.92874 157.000
81.94869 160.000
81.96864 157.000
81.98859 131.000
82.00853 166.000
82.02848 146.000
82.04843 162.000
82.06837 161.000
82.08832 139.000
82.10827 159.000
82.12821 150.000
82.14816 153.000
82.16811 157.000
82.18805 160.000
82.20800 151.000
82.22795 164.000
82.24790 149.000
82.26784 147.000
82.28779 139.000
82.30774 163.000
82.32768 151.000
82.34763 164.000
82.36758 143.000
82.38752 142.000
82.40747 146.000
82.42742 145.000
82.44737 159.000
82.46731 151.000
82.48726 164.000
82.50721 145.000
82.52715 145.000
82.54710 128.000
82.56705 142.000
82.58699 144.000
82.60694 159.000
82.62689 173.000
82.64683 157.000
82.66678 139.000
82.68673 163.000
82.70668 170.000
82.72662 133.000
82.74657 137.000
82.76652 171.000
82.78646 170.000
82.80641 165.000
82.82636 151.000
82.84630 167.000
82.86625 147.000
82.88620 153.000
82.90615 132.000
82.92609 144.000
82.94604 166.000
82.96599 157.000
82.98593 156.000
83.00588 156.000
83.02583 142.000
83.04577 143.000
83.06572 157.000
83.08567 164.000
83.10561 141.000
83.12556 155.000
83.14551 179.000
83.16546 134.000
83.18540 174.000
83.20535 157.000
83.22530 170.000
83.24524 134.000
83.26519 152.000
83.28514 153.000
83.30508 159.000
83.32503 156.000
83.34498 161.000
83.36493 151.000
83.38487 143.000
83.40482 161.000
83.42477 121.000
83.44471 169.000
83.46466 138.000
83.48461 153.000
83.50455 162.000
83.52450 144.000
83.54445 152.000
83.56440 158.000
83.58434 150.000
83.60429 161.000
83.62424 179.000
83.64418 155.000
83.66413 162.000
83.68408 165.000
83.70402 139.000
83.72397 142.000
83.74392 140.000
83.76386 138.000
83.78381 152.000
83.80376 144.000
83.82371 165.000
83.84365 167.000
83.86360 152.000
83.88355 167.000
83.90349 164.000
83.92344 156.000
83.94339 145.000
83.96333 170.000
83.98328 137.000
84.00323 145.000
84.02318 152.000
84.04312 159.000
84.06307 175.000
84.08302 162.000
84.10296 165.000
84.12291 179.000
84.14286 187.000
84.16280 172.000
84.18275 165.000
84.20270 146.000
84.22264 170.000
84.24259 156.000
84.26254 165.000
84.28249 165.000
84.30243 201.000
84.32238 195.000
84.34233 169.000
84.36227 198.000
84.38222 182.000
84.40217 197.000
84.42211 204.000
84.44206 220.000
84.46201 218.000
84.48196 202.000
84.50190 235.000
84.52185 241.000
84.54180 241.000
84.56174 216.000
84.58169 258.000
84.60164 231.000
84.62158 227.000
84.64153 225.000
84.66148 219.000
84.68142 204.000
84.70137 200.000
84.72132 232.000
84.74127 233.000
84.76121 219.000
84.78116 228.000
84.80111 219.000
84.82105 235.000
84.84100 232.000
84.86095 196.000
84.88089 210.000
84.90084 217.000
84.92079 188.000
84.94074 223.000
84.96068 191.000
84.98063 217.000
85.00058 186.000
85.02052 182.000
85.04047 169.000
85.06042 200.000
85.08036 199.000
85.10031 180.000
85.12026 193.000
85.14021 194.000
85.16015 158.000
85.18010 169.000
85.20005 165.000
85.21999 158.000
85.23994 140.000
85.25989 170.000
85.27983 162.000
85.29978 163.000
85.31973 168.000
85.33967 162.000
85.35962 147.000
85.37957 128.000
85.39952 165.000
85.41946 156.000
85.43941 152.000
85.45936 150.000
85.47930 150.000
85.49925 174.000
85.51920 167.000
85.53914 157.000
85.55909 152.000
85.57904 152.000
85.59899 147.000
85.61893 128.000
85.63888 150.000
85.65883 147.000
85.67877 171.000
85.69872 153.000
85.71867 156.000
85.73861 154.000
85.75856 149.000
85.77851 159.000
85.79845 146.000
85.81840 158.000
85.83835 146.000
85.85830 179.000
85.87824 140.000
85.89819 148.000
85.91814 143.000
85.93808 153.000
85.95803 147.000
85.97798 139.000
85.99792 127.000
86.01787 128.000
86.03782 149.000
86.05777 153.000
86.07771 181.000
86.09766 148.000
86.11761 162.000
86.13755 147.000
86.15750 158.000
86.17745 150.000
86.19739 167.000
86.21734 158.000
86.23729 133.000
86.25723 144.000
86.27718 138.000
86.29713 161.000
86.31708 143.000
86.33702 155.000
86.35697 168.000
86.37692 134.000
86.39686 151.000
86.41681 145.000
86.43676 168.000
86.45670 152.000
86.47665 175.000
86.49660 131.000
86.51655 140.000
86.53649 158.000
86.55644 159.000
86.57639 149.000
86.59633 164.000
86.61628 149.000
86.63623 159.000
86.65617 138.000
86.67612 163.000
86.69607 145.000
86.71602 163.000
86.73596 153.000
86.75591 149.000
86.77586 143.000
86.79580 160.000
86.81575 169.000
86.83570 138.000
86.85564 150.000
86.87559 166.000
86.89554 156.000
86.91548 154.000
86.93543 137.000
86.95538 153.000
86.97533 161.000
86.99527 156.000
87.01522 174.000
87.03517 165.000
87.05511 159.000
87.07506 178.000
87.09501 158.000
87.11495 158.000
87.13490 161.000
87.15485 161.000
87.17480 158.000
87.19474 166.000
87.21469 175.000
87.23464 157.000
87.25458 156.000
87.27453 160.000
87.29448 168.000
87.31442 163.000
87.33437 151.000
87.35432 155.000
87.37426 182.000
87.39421 140.000
87.41416 179.000
87.43411 172.000
87.45405 187.000
87.47400 176.000
87.49395 149.000
87.51389 164.000
87.53384 164.000
87.55379 155.000
87.57373 162.000
87.59368 182.000
87.61363 175.000
87.63358 193.000
87.65352 176.000
87.67347 166.000
87.69342 164.000
87.71336 179.000
87.73331 193.000
87.75326 178.000
87.77320 169.000
87.79315 170.000
87.81310 163.000
87.83304 177.000
87.85299 178.000
87.87294 176.000
87.89289 161.000
87.91283 173.000
87.93278 194.000
87.95273 171.000
87.97267 162.000
87.99262 156.000
88.01257 182.000
88.03251 166.000
88.05246 154.000
88.07241 179.000
88.09236 176.000
88.11230 161.000
88.13225 172.000
88.15220 157.000
88.17214 175.000
88.19209 159.000
88.21204 202.000
88.23198 156.000
88.25193 146.000
88.27188 135.000
88.29183 149.000
88.31177 144.000
88.33172 154.000
88.35167 140.000
88.37161 156.000
88.39156 167.000
88.41151 148.000
88.43145 156.000
88.45140 168.000
88.47135 154.000
88.49129 147.000
88.51124 173.000
88.53119 175.000
88.55114 183.000
88.57108 165.000
88.59103 152.000
88.61098 149.000
88.63092 159.000
88.65087 180.000
88.67082 152.000
88.69076 155.000
88.71071 149.000
88.73066 140.000
88.75061 157.000
88.77055 137.000
88.79050 144.000
88.81045 159.000
88.83039 159.000
88.85034 157.000
88.87029 157.000
88.89023 124.000
88.91018 145.000
88.93013 127.000
88.95007 132.000
88.97002 140.000
88.98997 156.000
89.00992 138.000
89.02986 143.000
89.04981 138.000
89.06976 129.000
89.08970 145.000
89.10965 158.000
89.12960 162.000
89.14954 127.000
89.16949 148.000
89.18944 145.000
89.20939 151.000
89.22933 184.000
89.24928 146.000
89.26923 157.000
89.28917 159.000
89.30912 152.000
89.32907 162.000
89.34901 138.000
89.36896 142.000
89.38891 164.000
89.40885 147.000
89.42880 157.000
89.44875 149.000
89.46870 165.000
89.48864 171.000
89.50859 165.000
89.52854 148.000
89.54848 135.000
89.56843 164.000
89.58838 153.000
89.60832 162.000
89.62827 141.000
89.64822 133.000
89.66817 173.000
89.68811 147.000
89.70806 157.000
89.72801 154.000
89.74795 164.000
89.76790 136.000
89.78785 144.000
89.80779 147.000
89.82774 163.000
89.84769 148.000
89.86764 143.000
89.88758 152.000
89.90753 147.000
89.92748 170.000
89.94742 156.000
89.96737 156.000
89.98732 175.000
90.00726 139.000
