10.00000 221.000
10.01995 210.000
10.03989 217.000
10.05984 220.000
10.07979 236.000
10.09973 226.000
10.11968 243.000
10.13963 223.000
10.15958 219.000
10.17952 192.000
10.19947 225.000
10.21942 218.000
10.23936 240.000
10.25931 210.000
10.27926 224.000
10.29920 213.000
10.31915 256.000
10.33910 200.000
10.35905 216.000
10.37899 215.000
10.39894 250.000
10.41889 221.000
10.43883 223.000
10.45878 217.000
10.47873 229.000
10.49867 217.000
10.51862 236.000
10.53857 216.000
10.55851 220.000
10.57846 242.000
10.59841 224.000
10.61836 225.000
10.63830 194.000
10.65825 266.000
10.67820 225.000
10.69814 241.000
10.71809 240.000
10.73804 211.000
10.75798 215.000
10.77793 216.000
10.79788 223.000
10.81783 213.000
10.83777 216.000
10.85772 230.000
10.87767 223.000
10.89761 211.000
10.91756 203.000
10.93751 204.000
10.95745 230.000
10.97740 234.000
10.99735 201.000
11.01730 228.000
11.03724 238.000
11.05719 207.000
11.07714 221.000
11.09708 209.000
11.11703 210.000
11.13698 218.000
11.15692 231.000
11.17687 199.000
11.19682 219.000
11.21676 202.000
11.23671 213.000
11.25666 238.000
11.27661 243.000
11.29655 228.000
11.31650 197.000
11.33645 222.000
11.35639 250.000
11.37634 214.000
11.39629 241.000
11.41623 233.000
11.43618 199.000
11.45613 208.000
11.47608 229.000
11.49602 236.000
11.51597 213.000
11.53592 240.000
11.55586 244.000
11.57581 223.000
11.59576 208.000
11.61570 207.000
11.63565 210.000
11.65560 223.000
11.67554 231.000
11.69549 230.000
11.71544 212.000
11.73539 211.000
11.75533 205.000
11.77528 219.000
11.79523 226.000
11.81517 232.000
11.83512 232.000
11.85507 240.000
11.87501 220.000
11.89496 257.000
11.91491 212.000
11.93486 202.000
11.95480 228.000
11.97475 244.000
11.99470 259.000
12.01464 210.000
12.03459 217.000
12.05454 220.000
12.07448 230.000
12.09443 198.000
12.11438 250.000
12.13432 228.000
12.15427 253.000
12.17422 247.000
12.19417 218.000
12.21411 209.000
12.23406 228.000
12.25401 233.000
12.27395 220.000
12.29390 218.000
12.31385 252.000
12.33379 227.000
12.35374 228.000
12.37369 230.000
12.39364 234.000
12.41358 236.000
12.43353 264.000
12.45348 214.000
12.47342 221.000
12.49337 215.000
12.51332 213.000
12.53326 230.000
12.55321 240.000
12.57316 252.000
12.59311 222.000
12.61305 212.000
12.63300 223.000
12.65295 240.000
12.67289 235.000
12.69284 270.000
12.71279 224.000
12.73273 226.000
12.75268 233.000
12.77263 205.000
12.79257 223.000
12.81252 240.000
12.83247 249.000
12.85242 227.000
12.87236 225.000
12.89231 242.000
12.91226 225.000
12.93220 218.000
12.95215 219.000
12.97210 236.000
12.99204 252.000
13.01199 217.000
13.03194 230.000
13.05189 251.000
13.07183 233.000
13.09178 212.000
13.11173 230.000
13.13167 251.000
13.15162 244.000
13.17157 256.000
13.19151 243.000
13.21146 231.000
13.23141 232.000
13.25135 234.000
13.27130 220.000
13.29125 222.000
13.31120 256.000
13.33114 254.000
13.35109 197.000
13.37104 204.000
13.39098 258.000
13.41093 222.000
13.43088 227.000
13.45082 197.000
13.47077 229.000
13.49072 219.000
13.51067 263.000
13.53061 217.000
13.55056 218.000
13.57051 225.000
13.59045 251.000
13.61040 226.000
13.63035 237.000
13.65029 231.000
13.67024 229.000
13.69019 235.000
13.71013 216.000
13.73008 250.000
13.75003 262.000
13.76998 224.000
13.78992 251.000
13.80987 230.000
13.82982 218.000
13.84976 236.000
13.86971 222.000
13.88966 225.000
13.90960 242.000
13.92955 235.000
13.94950 235.000
13.96945 216.000
13.98939 200.000
14.00934 214.000
14.02929 235.000
14.04923 231.000
14.06918 203.000
14.08913 238.000
14.10907 233.000
14.12902 226.000
14.14897 237.000
14.16892 216.000
14.18886 234.000
14.20881 221.000
14.22876 251.000
14.24870 236.000
14.26865 226.000
14.28860 224.000
14.30854 232.000
14.32849 219.000
14.34844 263.000
14.36838 261.000
14.38833 252.000
14.40828 264.000
14.42823 230.000
14.44817 220.000
14.46812 223.000
14.48807 243.000
14.50801 225.000
14.52796 216.000
14.54791 242.000
14.56785 236.000
14.58780 217.000
14.60775 232.000
14.62770 229.000
14.64764 233.000
14.66759 227.000
14.68754 241.000
14.70748 248.000
14.72743 236.000
14.74738 246.000
14.76732 223.000
14.78727 253.000
14.80722 233.000
14.82716 257.000
14.84711 207.000
14.86706 260.000
14.88701 249.000
14.90695 225.000
14.92690 226.000
14.94685 255.000
14.96679 251.000
14.98674 221.000
15.00669 268.000
15.02663 238.000
15.04658 234.000
15.06653 228.000
15.08648 258.000
15.10642 264.000
15.12637 253.000
15.14632 272.000
15.16626 251.000
15.18621 226.000
15.20616 269.000
15.22610 281.000
15.24605 229.000
15.26600 278.000
15.28594 278.000
15.30589 269.000
15.32584 252.000
15.34579 256.000
15.36573 270.000
15.38568 273.000
15.40563 271.000
15.42557 301.000
15.44552 313.000
15.46547 283.000
15.48541 279.000
15.50536 298.000
15.52531 294.000
15.54526 311.000
15.56520 292.000
15.58515 335.000
15.60510 327.000
15.62504 351.000
15.64499 356.000
15.66494 355.000
15.68488 362.000
15.70483 421.000
15.72478 487.000
15.74472 573.000
15.76467 720.000
15.78462 840.000
15.80457 1189.000
15.82451 1787.000
15.84446 2671.000
15.86441 4037.000
15.88435 5617.000
15.90430 6902.000
15.92425 6970.000
15.94419 6017.000
15.96414 4067.000
15.98409 2504.000
16.00404 1364.000
16.02398 845.000
16.04393 567.000
16.06388 456.000
16.08382 399.000
16.10377 416.000
16.12372 347.000
16.14366 354.000
16.16361 331.000
16.18356 323.000
16.20351 311.000
16.22345 278.000
16.24340 317.000
16.26335 280.000
16.28329 300.000
16.30324 274.000
16.32319 297.000
16.34313 261.000
16.36308 294.000
16.38303 287.000
16.40297 280.000
16.42292 279.000
16.44287 254.000
16.46282 274.000
16.48276 288.000
16.50271 250.000
16.52266 257.000
16.54260 241.000
16.56255 293.000
16.58250 264.000
16.60244 257.000
16.62239 268.000
16.64234 257.000
16.66229 220.000
16.68223 250.000
16.70218 260.000
16.72213 269.000
16.74207 285.000
16.76202 308.000
16.78197 319.000
16.80191 343.000
16.82186 388.000
16.84181 432.000
16.86175 446.000
16.88170 528.000
16.90165 443.000
16.92160 409.000
16.94154 352.000
16.96149 317.000
16.98144 251.000
17.00138 286.000
17.02133 257.000
17.04128 252.000
17.06122 266.000
17.08117 233.000
17.10112 244.000
17.12107 265.000
17.14101 247.000
17.16096 226.000
17.18091 260.000
17.20085 231.000
17.22080 250.000
17.24075 233.000
17.26069 240.000
17.28064 243.000
17.30059 227.000
17.32053 255.000
17.34048 251.000
17.36043 233.000
17.38038 244.000
17.40032 250.000
17.42027 231.000
17.44022 258.000
17.46016 221.000
17.48011 250.000
17.50006 252.000
17.52000 205.000
17.53995 252.000
17.55990 250.000
17.57985 253.000
17.59979 229.000
17.61974 233.000
17.63969 272.000
17.65963 224.000
17.67958 220.000
17.69953 243.000
17.71947 244.000
17.73942 237.000
17.75937 209.000
17.77932 241.000
17.79926 226.000
17.81921 248.000
17.83916 228.000
17.85910 237.000
17.87905 241.000
17.89900 233.000
17.91894 282.000
17.93889 220.000
17.95884 250.000
17.97878 218.000
17.99873 234.000
18.01868 220.000
18.03863 233.000
18.05857 216.000
18.07852 215.000
18.09847 248.000
18.11841 230.000
18.13836 231.000
18.15831 247.000
18.17825 226.000
18.19820 243.000
18.21815 240.000
18.23810 241.000
18.25804 238.000
18.27799 252.000
18.29794 258.000
18.31788 218.000
18.33783 237.000
18.35778 214.000
18.37772 235.000
18.39767 254.000
18.41762 243.000
18.43756 234.000
18.45751 262.000
18.47746 231.000
18.49741 240.000
18.51735 270.000
18.53730 253.000
18.55725 262.000
18.57719 223.000
18.59714 264.000
18.61709 246.000
18.63703 231.000
18.65698 233.000
18.67693 235.000
18.69688 248.000
18.71682 238.000
18.73677 241.000
18.75672 227.000
18.77666 263.000
18.79661 224.000
18.81656 219.000
18.83650 242.000
18.85645 215.000
18.87640 256.000
18.89634 235.000
18.91629 254.000
18.93624 205.000
18.95619 246.000
18.97613 229.000
18.99608 241.000
19.01603 251.000
19.03597 203.000
19.05592 247.000
19.07587 230.000
19.09581 224.000
19.11576 232.000
19.13571 245.000
19.15566 241.000
19.17560 267.000
19.19555 248.000
19.21550 227.000
19.23544 230.000
19.25539 280.000
19.27534 205.000
19.29528 231.000
19.31523 247.000
19.33518 258.000
19.35513 225.000
19.37507 220.000
19.39502 241.000
19.41497 287.000
19.43491 220.000
19.45486 244.000
19.47481 258.000
19.49475 245.000
19.51470 236.000
19.53465 229.000
19.55459 245.000
19.57454 253.000
19.59449 229.000
19.61444 224.000
19.63438 234.000
19.65433 226.000
19.67428 249.000
19.69422 248.000
19.71417 232.000
19.73412 242.000
19.75406 249.000
19.77401 234.000
19.79396 240.000
19.81391 218.000
19.83385 238.000
19.85380 261.000
19.87375 222.000
19.89369 217.000
19.91364 257.000
19.93359 257.000
19.95353 281.000
19.97348 245.000
19.99343 219.000
20.01337 236.000
20.03332 235.000
20.05327 226.000
20.07322 231.000
20.09316 250.000
20.11311 257.000
20.13306 245.000
20.15300 268.000
20.17295 257.000
20.19290 256.000
20.21284 232.000
20.23279 254.000
20.25274 229.000
20.27269 283.000
20.29263 269.000
20.31258 234.000
20.33253 244.000
20.35247 234.000
20.37242 231.000
20.39237 215.000
20.41231 248.000
20.43226 243.000
20.45221 251.000
20.47215 259.000
20.49210 246.000
20.51205 241.000
20.53200 265.000
20.55194 253.000
20.57189 255.000
20.59184 258.000
20.61178 240.000
20.63173 257.000
20.65168 244.000
20.67162 282.000
20.69157 236.000
20.71152 257.000
20.73147 269.000
20.75141 276.000
20.77136 275.000
20.79131 258.000
20.81125 269.000
20.83120 294.000
20.85115 314.000
20.87109 304.000
20.89104 315.000
20.91099 359.000
20.93094 325.000
20.95088 368.000
20.97083 386.000
20.99078 396.000
21.01072 372.000
21.03067 389.000
21.05062 352.000
21.07056 332.000
21.09051 348.000
21.11046 363.000
21.13040 340.000
21.15035 326.000
21.17030 280.000
21.19025 332.000
21.21019 289.000
21.23014 296.000
21.25009 289.000
21.27003 248.000
21.28998 290.000
21.30993 319.000
21.32987 257.000
21.34982 269.000
21.36977 238.000
21.38972 281.000
21.40966 267.000
21.42961 252.000
21.44956 229.000
21.46950 249.000
21.48945 255.000
21.50940 248.000
21.52934 231.000
21.54929 229.000
21.56924 232.000
21.58918 246.000
21.60913 246.000
21.62908 215.000
21.64903 256.000
21.66897 262.000
21.68892 221.000
21.70887 272.000
21.72881 231.000
21.74876 243.000
21.76871 242.000
21.78865 267.000
21.80860 240.000
21.82855 234.000
21.84850 277.000
21.86844 255.000
21.88839 229.000
21.90834 246.000
21.92828 280.000
21.94823 205.000
21.96818 272.000
21.98812 246.000
22.00807 246.000
22.02802 269.000
22.04796 239.000
22.06791 245.000
22.08786 267.000
22.10781 249.000
22.12775 239.000
22.14770 227.000
22.16765 248.000
22.18759 244.000
22.20754 252.000
22.22749 262.000
22.24743 235.000
22.26738 239.000
22.28733 248.000
22.30728 234.000
22.32722 247.000
22.34717 245.000
22.36712 254.000
22.38706 221.000
22.40701 255.000
22.42696 236.000
22.44690 272.000
22.46685 246.000
22.48680 249.000
22.50675 246.000
22.52669 292.000
22.54664 244.000
22.56659 244.000
22.58653 275.000
22.60648 215.000
22.62643 265.000
22.64637 221.000
22.66632 252.000
22.68627 230.000
22.70621 235.000
22.72616 258.000
22.74611 228.000
22.76606 240.000
22.78600 258.000
22.80595 264.000
22.82590 233.000
22.84584 234.000
22.86579 247.000
22.88574 272.000
22.90568 245.000
22.92563 264.000
22.94558 259.000
22.96553 234.000
22.98547 247.000
23.00542 262.000
23.02537 257.000
23.04531 294.000
23.06526 278.000
23.08521 261.000
23.10515 288.000
23.12510 269.000
23.14505 246.000
23.16499 287.000
23.18494 258.000
23.20489 268.000
23.22484 267.000
23.24478 247.000
23.26473 241.000
23.28468 267.000
23.30462 234.000
23.32457 268.000
23.34452 268.000
23.36446 273.000
23.38441 258.000
23.40436 233.000
23.42431 223.000
23.44425 237.000
23.46420 275.000
23.48415 279.000
23.50409 242.000
23.52404 219.000
23.54399 256.000
23.56393 258.000
23.58388 272.000
23.60383 269.000
23.62377 270.000
23.64372 269.000
23.66367 264.000
23.68362 241.000
23.70356 282.000
23.72351 233.000
23.74346 275.000
23.76340 242.000
23.78335 235.000
23.80330 256.000
23.82324 226.000
23.84319 255.000
23.86314 245.000
23.88309 248.000
23.90303 252.000
23.92298 285.000
23.94293 240.000
23.96287 222.000
23.98282 236.000
24.00277 255.000
24.02271 251.000
24.04266 265.000
24.06261 242.000
24.08256 239.000
24.10250 241.000
24.12245 243.000
24.14240 255.000
24.16234 254.000
24.18229 243.000
24.20224 245.000
24.22218 270.000
24.24213 232.000
24.26208 274.000
24.28202 276.000
24.30197 277.000
24.32192 260.000
24.34187 243.000
24.36181 253.000
24.38176 260.000
24.40171 244.000
24.42165 241.000
24.44160 254.000
24.46155 260.000
24.48149 254.000
24.50144 241.000
24.52139 207.000
24.54134 220.000
24.56128 232.000
24.58123 285.000
24.60118 236.000
24.62112 247.000
24.64107 240.000
24.66102 234.000
24.68096 265.000
24.70091 278.000
24.72086 268.000
24.74080 257.000
24.76075 250.000
24.78070 293.000
24.80065 273.000
24.82059 282.000
24.84054 243.000
24.86049 236.000
24.88043 277.000
24.90038 256.000
24.92033 302.000
24.94027 305.000
24.96022 332.000
24.98017 365.000
25.00012 358.000
25.02006 380.000
25.04001 363.000
25.05996 349.000
25.07990 339.000
25.09985 322.000
25.11980 298.000
25.13974 268.000
25.15969 273.000
25.17964 259.000
25.19958 244.000
25.21953 254.000
25.23948 250.000
25.25943 247.000
25.27937 257.000
25.29932 254.000
25.31927 289.000
25.33921 251.000
25.35916 240.000
25.37911 258.000
25.39905 251.000
25.41900 245.000
25.43895 237.000
25.45890 267.000
25.47884 254.000
25.49879 249.000
25.51874 253.000
25.53868 258.000
25.55863 256.000
25.57858 264.000
25.59852 228.000
25.61847 266.000
25.63842 259.000
25.65837 235.000
25.67831 246.000
25.69826 284.000
25.71821 256.000
25.73815 238.000
25.75810 276.000
25.77805 259.000
25.79799 264.000
25.81794 248.000
25.83789 250.000
25.85783 261.000
25.87778 238.000
25.89773 265.000
25.91768 259.000
25.93762 267.000
25.95757 273.000
25.97752 244.000
25.99746 240.000
26.01741 264.000
26.03736 244.000
26.05730 271.000
26.07725 253.000
26.09720 295.000
26.11715 278.000
26.13709 241.000
26.15704 284.000
26.17699 240.000
26.19693 256.000
26.21688 228.000
26.23683 246.000
26.25677 253.000
26.27672 259.000
26.29667 270.000
26.31661 268.000
26.33656 240.000
26.35651 238.000
26.37646 272.000
26.39640 252.000
26.41635 241.000
26.43630 272.000
26.45624 279.000
26.47619 265.000
26.49614 287.000
26.51608 239.000
26.53603 270.000
26.55598 236.000
26.57593 257.000
26.59587 302.000
26.61582 271.000
26.63577 257.000
26.65571 249.000
26.67566 248.000
26.69561 268.000
26.71555 248.000
26.73550 276.000
26.75545 267.000
26.77539 245.000
26.79534 264.000
26.81529 275.000
26.83524 272.000
26.85518 255.000
26.87513 268.000
26.89508 257.000
26.91502 257.000
26.93497 258.000
26.95492 226.000
26.97486 295.000
26.99481 233.000
27.01476 277.000
27.03471 248.000
27.05465 262.000
27.07460 258.000
27.09455 238.000
27.11449 267.000
27.13444 292.000
27.15439 269.000
27.17433 267.000
27.19428 275.000
27.21423 298.000
27.23417 323.000
27.25412 271.000
27.27407 279.000
27.29402 302.000
27.31396 282.000
27.33391 286.000
27.35386 273.000
27.37380 293.000
27.39375 258.000
27.41370 261.000
27.43364 264.000
27.45359 276.000
27.47354 276.000
27.49349 249.000
27.51343 261.000
27.53338 266.000
27.55333 289.000
27.57327 247.000
27.59322 274.000
27.61317 257.000
27.63311 273.000
27.65306 274.000
27.67301 246.000
27.69296 319.000
27.71290 246.000
27.73285 271.000
27.75280 266.000
27.77274 272.000
27.79269 279.000
27.81264 275.000
27.83258 285.000
27.85253 243.000
27.87248 272.000
27.89242 287.000
27.91237 302.000
27.93232 262.000
27.95227 257.000
27.97221 290.000
27.99216 281.000
28.01211 265.000
28.03205 273.000
28.05200 260.000
28.07195 281.000
28.09189 288.000
28.11184 297.000
28.13179 260.000
28.15174 281.000
28.17168 268.000
28.19163 279.000
28.21158 278.000
28.23152 311.000
28.25147 275.000
28.27142 282.000
28.29136 268.000
28.31131 309.000
28.33126 300.000
28.35120 291.000
28.37115 300.000
28.39110 291.000
28.41105 307.000
28.43099 291.000
28.45094 308.000
28.47089 290.000
28.49083 292.000
28.51078 268.000
28.53073 278.000
28.55067 307.000
28.57062 276.000
28.59057 273.000
28.61052 275.000
28.63046 294.000
28.65041 255.000
28.67036 277.000
28.69030 260.000
28.71025 285.000
28.73020 269.000
28.75014 317.000
28.77009 267.000
28.79004 257.000
28.80998 289.000
28.82993 307.000
28.84988 292.000
28.86983 294.000
28.88977 295.000
28.90972 267.000
28.92967 279.000
28.94961 283.000
28.96956 285.000
28.98951 297.000
29.00945 270.000
29.02940 286.000
29.04935 270.000
29.06930 263.000
29.08924 272.000
29.10919 265.000
29.12914 287.000
29.14908 289.000
29.16903 308.000
29.18898 303.000
29.20892 304.000
29.22887 320.000
29.24882 388.000
29.26877 362.000
29.28871 416.000
29.30866 465.000
29.32861 547.000
29.34855 621.000
29.36850 722.000
29.38845 759.000
29.40839 774.000
29.42834 802.000
29.44829 782.000
29.46823 742.000
29.48818 622.000
29.50813 539.000
29.52808 467.000
29.54802 423.000
29.56797 427.000
29.58792 350.000
29.60786 371.000
29.62781 360.000
29.64776 363.000
29.66770 315.000
29.68765 331.000
29.70760 301.000
29.72755 298.000
29.74749 318.000
29.76744 308.000
29.78739 317.000
29.80733 302.000
29.82728 292.000
29.84723 296.000
29.86717 268.000
29.88712 271.000
29.90707 295.000
29.92701 299.000
29.94696 287.000
29.96691 286.000
29.98686 291.000
30.00680 294.000
30.02675 280.000
30.04670 310.000
30.06664 299.000
30.08659 301.000
30.10654 291.000
30.12648 296.000
30.14643 319.000
30.16638 286.000
30.18633 262.000
30.20627 304.000
30.22622 296.000
30.24617 298.000
30.26611 276.000
30.28606 261.000
30.30601 275.000
30.32595 288.000
30.34590 263.000
30.36585 261.000
30.38579 258.000
30.40574 263.000
30.42569 275.000
30.44564 276.000
30.46558 283.000
30.48553 253.000
30.50548 266.000
30.52542 283.000
30.54537 303.000
30.56532 265.000
30.58526 273.000
30.60521 306.000
30.62516 270.000
30.64511 258.000
30.66505 262.000
30.68500 306.000
30.70495 269.000
30.72489 283.000
30.74484 272.000
30.76479 259.000
30.78473 257.000
30.80468 276.000
30.82463 261.000
30.84458 272.000
30.86452 254.000
30.88447 278.000
30.90442 271.000
30.92436 279.000
30.94431 301.000
30.96426 302.000
30.98420 280.000
31.00415 279.000
31.02410 280.000
31.04404 295.000
31.06399 284.000
31.08394 268.000
31.10389 302.000
31.12383 292.000
31.14378 250.000
31.16373 274.000
31.18367 267.000
31.20362 267.000
31.22357 276.000
31.24351 276.000
31.26346 309.000
31.28341 291.000
31.30336 283.000
31.32330 279.000
31.34325 297.000
31.36320 310.000
31.38314 300.000
31.40309 290.000
31.42304 288.000
31.44298 282.000
31.46293 300.000
31.48288 330.000
31.50282 284.000
31.52277 300.000
31.54272 276.000
31.56267 311.000
31.58261 270.000
31.60256 263.000
31.62251 271.000
31.64245 303.000
31.66240 286.000
31.68235 303.000
31.70229 293.000
31.72224 305.000
31.74219 300.000
31.76214 286.000
31.78208 281.000
31.80203 291.000
31.82198 289.000
31.84192 320.000
31.86187 324.000
31.88182 316.000
31.90176 318.000
31.92171 317.000
31.94166 299.000
31.96160 334.000
31.98155 408.000
32.00150 429.000
32.02145 492.000
32.04139 572.000
32.06134 741.000
32.08129 797.000
32.10123 823.000
32.12118 836.000
32.14113 799.000
32.16107 854.000
32.18102 725.000
32.20097 627.000
32.22092 475.000
32.24086 459.000
32.26081 434.000
32.28076 390.000
32.30070 341.000
32.32065 305.000
32.34060 297.000
32.36054 299.000
32.38049 287.000
32.40044 258.000
32.42039 264.000
32.44033 290.000
32.46028 294.000
32.48023 273.000
32.50017 271.000
32.52012 260.000
32.54007 292.000
32.56001 302.000
32.57996 306.000
32.59991 256.000
32.61985 304.000
32.63980 261.000
32.65975 266.000
32.67970 316.000
32.69964 277.000
32.71959 274.000
32.73954 285.000
32.75948 274.000
32.77943 293.000
32.79938 268.000
32.81932 252.000
32.83927 293.000
32.85922 263.000
32.87917 264.000
32.89911 279.000
32.91906 297.000
32.93901 282.000
32.95895 249.000
32.97890 262.000
32.99885 279.000
33.01879 264.000
33.03874 265.000
33.05869 308.000
33.07863 280.000
33.09858 291.000
33.11853 289.000
33.13848 293.000
33.15842 267.000
33.17837 271.000
33.19832 289.000
33.21826 253.000
33.23821 276.000
33.25816 260.000
33.27810 287.000
33.29805 287.000
33.31800 284.000
33.33795 255.000
33.35789 281.000
33.37784 271.000
33.39779 292.000
33.41773 284.000
33.43768 287.000
33.45763 281.000
33.47757 271.000
33.49752 286.000
33.51747 258.000
33.53741 295.000
33.55736 277.000
33.57731 249.000
33.59726 263.000
33.61720 298.000
33.63715 258.000
33.65710 248.000
33.67704 283.000
33.69699 285.000
33.71694 271.000
33.73688 274.000
33.75683 278.000
33.77678 285.000
33.79673 283.000
33.81667 268.000
33.83662 255.000
33.85657 276.000
33.87651 297.000
33.89646 288.000
33.91641 267.000
33.93635 276.000
33.95630 293.000
33.97625 257.000
33.99620 309.000
34.01614 274.000
34.03609 312.000
34.05604 310.000
34.07598 304.000
34.09593 287.000
34.11588 324.000
34.13582 299.000
34.15577 325.000
34.17572 285.000
34.19566 290.000
34.21561 308.000
34.23556 308.000
34.25551 314.000
34.27545 325.000
34.29540 335.000
34.31535 325.000
34.33529 340.000
34.35524 341.000
34.37519 338.000
34.39513 367.000
34.41508 364.000
34.43503 402.000
34.45498 394.000
34.47492 378.000
34.49487 350.000
34.51482 400.000
34.53476 413.000
34.55471 418.000
34.57466 443.000
34.59460 377.000
34.61455 416.000
34.63450 390.000
34.65444 416.000
34.67439 398.000
34.69434 386.000
34.71429 388.000
34.73423 420.000
34.75418 426.000
34.77413 473.000
34.79407 468.000
34.81402 473.000
34.83397 525.000
34.85391 520.000
34.87386 523.000
34.89381 532.000
34.91376 508.000
34.93370 459.000
34.95365 447.000
34.97360 412.000
34.99354 398.000
35.01349 412.000
35.03344 373.000
35.05338 342.000
35.07333 350.000
35.09328 328.000
35.11322 342.000
35.13317 319.000
35.15312 324.000
35.17307 298.000
35.19301 306.000
35.21296 308.000
35.23291 294.000
35.25285 304.000
35.27280 281.000
35.29275 316.000
35.31269 305.000
35.33264 307.000
35.35259 289.000
35.37254 302.000
35.39248 319.000
35.41243 337.000
35.43238 278.000
35.45232 338.000
35.47227 339.000
35.49222 352.000
35.51216 316.000
35.53211 319.000
35.55206 330.000
35.57201 312.000
35.59195 315.000
35.61190 324.000
35.63185 336.000
35.65179 315.000
35.67174 396.000
35.69169 355.000
35.71163 351.000
35.73158 348.000
35.75153 333.000
35.77147 412.000
35.79142 453.000
35.81137 516.000
35.83132 571.000
35.85126 649.000
35.87121 712.000
35.89116 732.000
35.91110 810.000
35.93105 842.000
35.95100 724.000
35.97094 661.000
35.99089 619.000
36.01084 542.000
36.03079 541.000
36.05073 427.000
36.07068 386.000
36.09063 380.000
36.11057 352.000
36.13052 338.000
36.15047 334.000
36.17041 316.000
36.19036 335.000
36.21031 326.000
36.23025 320.000
36.25020 363.000
36.27015 360.000
36.29010 391.000
36.31004 426.000
36.32999 415.000
36.34994 398.000
36.36988 429.000
36.38983 424.000
36.40978 405.000
36.42972 430.000
36.44967 368.000
36.46962 388.000
36.48957 389.000
36.50951 385.000
36.52946 346.000
36.54941 386.000
36.56935 371.000
36.58930 333.000
36.60925 373.000
36.62919 373.000
36.64914 357.000
36.66909 364.000
36.68903 387.000
36.70898 367.000
36.72893 391.000
36.74888 412.000
36.76882 425.000
36.78877 403.000
36.80872 487.000
36.82866 422.000
36.84861 473.000
36.86856 476.000
36.88850 491.000
36.90845 519.000
36.92840 561.000
36.94835 577.000
36.96829 596.000
36.98824 706.000
37.00819 825.000
37.02813 993.000
37.04808 1192.000
37.06803 1639.000
37.08797 2490.000
37.10792 3713.000
37.12787 5169.000
37.14781 6086.000
37.16776 6292.000
37.18771 5858.000
37.20766 5362.000
37.22760 4914.000
37.24755 4455.000
37.26750 3898.000
37.28744 3033.000
37.30739 2452.000
37.32734 1646.000
37.34728 1221.000
37.36723 949.000
37.38718 833.000
37.40713 661.000
37.42707 603.000
37.44702 518.000
37.46697 547.000
37.48691 512.000
37.50686 550.000
37.52681 517.000
37.54675 533.000
37.56670 516.000
37.58665 512.000
37.60660 474.000
37.62654 445.000
37.64649 469.000
37.66644 424.000
37.68638 392.000
37.70633 402.000
37.72628 403.000
37.74622 390.000
37.76617 377.000
37.78612 356.000
37.80606 329.000
37.82601 348.000
37.84596 324.000
37.86591 305.000
37.88585 314.000
37.90580 322.000
37.92575 335.000
37.94569 337.000
37.96564 330.000
37.98559 336.000
38.00553 330.000
38.02548 327.000
38.04543 293.000
38.06538 314.000
38.08532 331.000
38.10527 335.000
38.12522 299.000
38.14516 289.000
38.16511 338.000
38.18506 330.000
38.20500 315.000
38.22495 296.000
38.24490 308.000
38.26484 292.000
38.28479 301.000
38.30474 303.000
38.32469 331.000
38.34463 301.000
38.36458 315.000
38.38453 329.000
38.40447 302.000
38.42442 313.000
38.44437 334.000
38.46431 301.000
38.48426 346.000
38.50421 313.000
38.52416 306.000
38.54410 313.000
38.56405 308.000
38.58400 306.000
38.60394 311.000
38.62389 306.000
38.64384 332.000
38.66378 305.000
38.68373 309.000
38.70368 344.000
38.72362 286.000
38.74357 313.000
38.76352 329.000
38.78347 362.000
38.80341 351.000
38.82336 291.000
38.84331 322.000
38.86325 315.000
38.88320 353.000
38.90315 325.000
38.92309 341.000
38.94304 317.000
38.96299 358.000
38.98294 327.000
39.00288 353.000
39.02283 322.000
39.04278 356.000
39.06272 341.000
39.08267 343.000
39.10262 334.000
39.12256 364.000
39.14251 356.000
39.16246 336.000
39.18241 342.000
39.20235 381.000
39.22230 396.000
39.24225 373.000
39.26219 417.000
39.28214 434.000
39.30209 431.000
39.32203 465.000
39.34198 524.000
39.36193 644.000
39.38187 690.000
39.40182 900.000
39.42177 971.000
39.44172 1035.000
39.46166 1087.000
39.48161 1132.000
39.50156 1132.000
39.52150 1107.000
39.54145 1016.000
39.56140 936.000
39.58134 848.000
39.60129 764.000
39.62124 668.000
39.64119 597.000
39.66113 501.000
39.68108 484.000
39.70103 450.000
39.72097 409.000
39.74092 410.000
39.76087 370.000
39.78081 374.000
39.80076 366.000
39.82071 317.000
39.84065 348.000
39.86060 318.000
39.88055 323.000
39.90050 320.000
39.92044 313.000
39.94039 313.000
39.96034 313.000
39.98028 294.000
40.00023 309.000
40.02018 330.000
40.04012 310.000
40.06007 308.000
40.08002 316.000
40.09997 314.000
40.11991 292.000
40.13986 299.000
40.15981 296.000
40.17975 277.000
40.19970 287.000
40.21965 297.000
40.23959 286.000
40.25954 274.000
40.27949 270.000
40.29943 262.000
40.31938 281.000
40.33933 293.000
40.35928 303.000
40.37922 284.000
40.39917 280.000
40.41912 291.000
40.43906 287.000
40.45901 278.000
40.47896 302.000
40.49890 310.000
40.51885 286.000
40.53880 275.000
40.55875 262.000
40.57869 266.000
40.59864 286.000
40.61859 320.000
40.63853 286.000
40.65848 220.000
40.67843 287.000
40.69837 241.000
40.71832 265.000
40.73827 264.000
40.75822 289.000
40.77816 274.000
40.79811 274.000
40.81806 292.000
40.83800 291.000
40.85795 294.000
40.87790 283.000
40.89784 269.000
40.91779 261.000
40.93774 254.000
40.95768 290.000
40.97763 282.000
40.99758 307.000
41.01753 297.000
41.03747 277.000
41.05742 281.000
41.07737 311.000
41.09731 294.000
41.11726 317.000
41.13721 294.000
41.15715 304.000
41.17710 293.000
41.19705 309.000
41.21700 315.000
41.23694 269.000
41.25689 305.000
41.27684 314.000
41.29678 306.000
41.31673 280.000
41.33668 294.000
41.35662 268.000
41.37657 276.000
41.39652 291.000
41.41646 315.000
41.43641 269.000
41.45636 306.000
41.47631 253.000
41.49625 288.000
41.51620 262.000
41.53615 298.000
41.55609 292.000
41.57604 323.000
41.59599 284.000
41.61593 278.000
41.63588 285.000
41.65583 303.000
41.67578 300.000
41.69572 339.000
41.71567 332.000
41.73562 300.000
41.75556 309.000
41.77551 274.000
41.79546 324.000
41.81540 297.000
41.83535 303.000
41.85530 281.000
41.87524 294.000
41.89519 327.000
41.91514 321.000
41.93509 302.000
41.95503 289.000
41.97498 321.000
41.99493 326.000
42.01487 286.000
42.03482 315.000
42.05477 296.000
42.07471 307.000
42.09466 314.000
42.11461 337.000
42.13456 324.000
42.15450 353.000
42.17445 319.000
42.19440 329.000
42.21434 308.000
42.23429 297.000
42.25424 322.000
42.27418 335.000
42.29413 344.000
42.31408 322.000
42.33403 346.000
42.35397 324.000
42.37392 341.000
42.39387 365.000
42.41381 337.000
42.43376 326.000
42.45371 392.000
42.47365 314.000
42.49360 398.000
42.51355 355.000
42.53349 343.000
42.55344 382.000
42.57339 410.000
42.59334 377.000
42.61328 367.000
42.63323 387.000
42.65318 413.000
42.67312 418.000
42.69307 438.000
42.71302 414.000
42.73296 425.000
42.75291 434.000
42.77286 465.000
42.79281 444.000
42.81275 513.000
42.83270 525.000
42.85265 552.000
42.87259 540.000
42.89254 635.000
42.91249 618.000
42.93243 734.000
42.95238 795.000
42.97233 951.000
42.99227 1039.000
43.01222 1277.000
43.03217 1593.000
43.05212 2158.000
43.07206 2739.000
43.09201 3729.000
43.11196 4845.000
43.13190 6049.000
43.15185 6785.000
43.17180 7441.000
43.19174 7290.000
43.21169 7162.000
43.23164 6934.000
43.25159 6230.000
43.27153 5684.000
43.29148 5059.000
43.31143 4331.000
43.33137 3578.000
43.35132 2830.000
43.37127 2253.000
43.39121 1773.000
43.41116 1328.000
43.43111 1102.000
43.45105 968.000
43.47100 823.000
43.49095 799.000
43.51090 715.000
43.53084 771.000
43.55079 744.000
43.57074 770.000
43.59068 706.000
43.61063 710.000
43.63058 715.000
43.65052 658.000
43.67047 631.000
43.69042 624.000
43.71037 529.000
43.73031 535.000
43.75026 456.000
43.77021 473.000
43.79015 425.000
43.81010 398.000
43.83005 395.000
43.84999 354.000
43.86994 343.000
43.88989 337.000
43.90984 378.000
43.92978 371.000
43.94973 372.000
43.96968 309.000
43.98962 348.000
44.00957 348.000
44.02952 325.000
44.04946 328.000
44.06941 350.000
44.08936 332.000
44.10930 309.000
44.12925 334.000
44.14920 312.000
44.16915 300.000
44.18909 297.000
44.20904 332.000
44.22899 269.000
44.24893 331.000
44.26888 287.000
44.28883 278.000
44.30877 281.000
44.32872 326.000
44.34867 321.000
44.36862 319.000
44.38856 316.000
44.40851 298.000
44.42846 306.000
44.44840 261.000
44.46835 303.000
44.48830 285.000
44.50824 300.000
44.52819 312.000
44.54814 305.000
44.56808 263.000
44.58803 307.000
44.60798 264.000
44.62793 283.000
44.64787 308.000
44.66782 294.000
44.68777 297.000
44.70771 282.000
44.72766 306.000
44.74761 348.000
44.76755 265.000
44.78750 301.000
44.80745 313.000
44.82740 304.000
44.84734 311.000
44.86729 323.000
44.88724 288.000
44.90718 331.000
44.92713 307.000
44.94708 326.000
44.96702 331.000
44.98697 347.000
45.00692 318.000
45.02686 337.000
45.04681 322.000
45.06676 346.000
45.08671 354.000
45.10665 362.000
45.12660 378.000
45.14655 370.000
45.16649 420.000
45.18644 389.000
45.20639 449.000
45.22633 429.000
45.24628 466.000
45.26623 447.000
45.28618 447.000
45.30612 460.000
45.32607 427.000
45.34602 416.000
45.36596 400.000
45.38591 369.000
45.40586 358.000
45.42580 338.000
45.44575 399.000
45.46570 361.000
45.48565 327.000
45.50559 350.000
45.52554 370.000
45.54549 375.000
45.56543 337.000
45.58538 319.000
45.60533 358.000
45.62527 353.000
45.64522 341.000
45.66517 342.000
45.68511 298.000
45.70506 331.000
45.72501 326.000
45.74496 282.000
45.76490 277.000
45.78485 277.000
45.80480 321.000
45.82474 271.000
45.84469 330.000
45.86464 306.000
45.88458 265.000
45.90453 289.000
45.92448 265.000
45.94443 289.000
45.96437 287.000
45.98432 306.000
46.00427 259.000
46.02421 266.000
46.04416 296.000
46.06411 271.000
46.08405 260.000
46.10400 246.000
46.12395 271.000
46.14389 286.000
46.16384 278.000
46.18379 264.000
46.20374 278.000
46.22368 251.000
46.24363 277.000
46.26358 267.000
46.28352 269.000
46.30347 273.000
46.32342 278.000
46.34336 265.000
46.36331 281.000
46.38326 283.000
46.40321 288.000
46.42315 271.000
46.44310 258.000
46.46305 219.000
46.48299 276.000
46.50294 291.000
46.52289 288.000
46.54283 302.000
46.56278 292.000
46.58273 284.000
46.60267 288.000
46.62262 278.000
46.64257 266.000
46.66252 271.000
46.68246 249.000
46.70241 296.000
46.72236 261.000
46.74230 289.000
46.76225 284.000
46.78220 296.000
46.80214 273.000
46.82209 277.000
46.84204 307.000
46.86199 257.000
46.88193 271.000
46.90188 266.000
46.92183 303.000
46.94177 271.000
46.96172 279.000
46.98167 252.000
47.00161 285.000
47.02156 304.000
47.04151 278.000
47.06146 267.000
47.08140 274.000
47.10135 252.000
47.12130 252.000
47.14124 256.000
47.16119 293.000
47.18114 282.000
47.20108 286.000
47.22103 280.000
47.24098 266.000
47.26092 260.000
47.28087 283.000
47.30082 269.000
47.32077 285.000
47.34071 255.000
47.36066 251.000
47.38061 250.000
47.40055 311.000
47.42050 270.000
47.44045 270.000
47.46039 290.000
47.48034 290.000
47.50029 267.000
47.52024 250.000
47.54018 274.000
47.56013 272.000
47.58008 306.000
47.60002 267.000
47.61997 290.000
47.63992 253.000
47.65986 287.000
47.67981 265.000
47.69976 259.000
47.71970 307.000
47.73965 280.000
47.75960 237.000
47.77955 266.000
47.79949 277.000
47.81944 264.000
47.83939 255.000
47.85933 296.000
47.87928 308.000
47.89923 297.000
47.91917 276.000
47.93912 325.000
47.95907 313.000
47.97902 326.000
47.99896 319.000
48.01891 320.000
48.03886 298.000
48.05880 348.000
48.07875 359.000
48.09870 355.000
48.11864 333.000
48.13859 350.000
48.15854 369.000
48.17848 340.000
48.19843 377.000
48.21838 334.000
48.23833 328.000
48.25827 334.000
48.27822 317.000
48.29817 322.000
48.31811 313.000
48.33806 331.000
48.35801 308.000
48.37795 329.000
48.39790 288.000
48.41785 307.000
48.43780 328.000
48.45774 301.000
48.47769 356.000
48.49764 285.000
48.51758 315.000
48.53753 322.000
48.55748 321.000
48.57742 355.000
48.59737 352.000
48.61732 341.000
48.63726 353.000
48.65721 375.000
48.67716 425.000
48.69711 401.000
48.71705 396.000
48.73700 464.000
48.75695 546.000
48.77689 564.000
48.79684 640.000
48.81679 788.000
48.83673 809.000
48.85668 893.000
48.87663 970.000
48.89658 935.000
48.91652 886.000
48.93647 942.000
48.95642 906.000
48.97636 861.000
48.99631 812.000
49.01626 769.000
49.03620 750.000
49.05615 626.000
49.07610 589.000
49.09605 546.000
49.11599 455.000
49.13594 440.000
49.15589 416.000
49.17583 410.000
49.19578 362.000
49.21573 392.000
49.23567 323.000
49.25562 333.000
49.27557 371.000
49.29551 359.000
49.31546 286.000
49.33541 368.000
49.35536 307.000
49.37530 302.000
49.39525 331.000
49.41520 327.000
49.43514 352.000
49.45509 322.000
49.47504 340.000
49.49498 283.000
49.51493 331.000
49.53488 346.000
49.55483 333.000
49.57477 308.000
49.59472 312.000
49.61467 316.000
49.63461 294.000
49.65456 326.000
49.67451 304.000
49.69445 314.000
49.71440 353.000
49.73435 308.000
49.75429 296.000
49.77424 269.000
49.79419 315.000
49.81414 337.000
49.83408 289.000
49.85403 274.000
49.87398 299.000
49.89392 288.000
49.91387 303.000
49.93382 282.000
49.95376 278.000
49.97371 304.000
49.99366 278.000
50.01361 310.000
50.03355 232.000
50.05350 267.000
50.07345 280.000
50.09339 288.000
50.11334 261.000
50.13329 259.000
50.15323 248.000
50.17318 281.000
50.19313 278.000
50.21307 268.000
50.23302 269.000
50.25297 259.000
50.27292 288.000
50.29286 254.000
50.31281 257.000
50.33276 272.000
50.35270 291.000
50.37265 270.000
50.39260 247.000
50.41254 264.000
50.43249 256.000
50.45244 291.000
50.47239 295.000
50.49233 280.000
50.51228 263.000
50.53223 284.000
50.55217 279.000
50.57212 287.000
50.59207 271.000
50.61201 322.000
50.63196 243.000
50.65191 261.000
50.67186 293.000
50.69180 255.000
50.71175 274.000
50.73170 241.000
50.75164 290.000
50.77159 263.000
50.79154 298.000
50.81148 263.000
50.83143 263.000
50.85138 288.000
50.87132 287.000
50.89127 233.000
50.91122 276.000
50.93117 287.000
50.95111 267.000
50.97106 252.000
50.99101 278.000
51.01095 275.000
51.03090 257.000
51.05085 288.000
51.07079 254.000
51.09074 272.000
51.11069 262.000
51.13064 288.000
51.15058 288.000
51.17053 250.000
51.19048 255.000
51.21042 246.000
51.23037 254.000
51.25032 236.000
51.27026 286.000
51.29021 282.000
51.31016 279.000
51.33010 235.000
51.35005 295.000
51.37000 239.000
51.38995 275.000
51.40989 275.000
51.42984 286.000
51.44979 261.000
51.46973 260.000
51.48968 285.000
51.50963 289.000
51.52957 264.000
51.54952 265.000
51.56947 310.000
51.58942 289.000
51.60936 269.000
51.62931 261.000
51.64926 274.000
51.66920 268.000
51.68915 278.000
51.70910 239.000
51.72904 282.000
51.74899 258.000
51.76894 277.000
51.78888 267.000
51.80883 270.000
51.82878 256.000
51.84873 271.000
51.86867 288.000
51.88862 283.000
51.90857 293.000
51.92851 287.000
51.94846 289.000
51.96841 315.000
51.98835 307.000
52.00830 305.000
52.02825 333.000
52.04820 352.000
52.06814 404.000
52.08809 376.000
52.10804 358.000
52.12798 365.000
52.14793 372.000
52.16788 324.000
52.18782 392.000
52.20777 385.000
52.22772 373.000
52.24767 363.000
52.26761 344.000
52.28756 327.000
52.30751 364.000
52.32745 313.000
52.34740 326.000
52.36735 310.000
52.38729 282.000
52.40724 317.000
52.42719 321.000
52.44713 296.000
52.46708 272.000
52.48703 276.000
52.50698 293.000
52.52692 266.000
52.54687 275.000
52.56682 291.000
52.58676 238.000
52.60671 289.000
52.62666 291.000
52.64660 255.000
52.66655 283.000
52.68650 276.000
52.70645 225.000
52.72639 277.000
52.74634 250.000
52.76629 290.000
52.78623 313.000
52.80618 275.000
52.82613 291.000
52.84607 311.000
52.86602 280.000
52.88597 304.000
52.90591 312.000
52.92586 321.000
52.94581 286.000
52.96576 302.000
52.98570 276.000
53.00565 296.000
53.02560 293.000
53.04554 272.000
53.06549 286.000
53.08544 274.000
53.10538 279.000
53.12533 277.000
53.14528 286.000
53.16523 261.000
53.18517 283.000
53.20512 250.000
53.22507 267.000
53.24501 283.000
53.26496 295.000
53.28491 264.000
53.30485 258.000
53.32480 276.000
53.34475 275.000
53.36469 278.000
53.38464 278.000
53.40459 261.000
53.42454 267.000
53.44448 286.000
53.46443 278.000
53.48438 299.000
53.50432 267.000
53.52427 309.000
53.54422 277.000
53.56416 261.000
53.58411 282.000
53.60406 270.000
53.62401 281.000
53.64395 258.000
53.66390 268.000
53.68385 262.000
53.70379 261.000
53.72374 260.000
53.74369 269.000
53.76363 256.000
53.78358 298.000
53.80353 279.000
53.82348 266.000
53.84342 276.000
53.86337 254.000
53.88332 292.000
53.90326 230.000
53.92321 271.000
53.94316 271.000
53.96310 264.000
53.98305 253.000
54.00300 274.000
54.02294 231.000
54.04289 254.000
54.06284 251.000
54.08279 258.000
54.10273 246.000
54.12268 237.000
54.14263 241.000
54.16257 245.000
54.18252 269.000
54.20247 262.000
54.22241 273.000
54.24236 282.000
54.26231 281.000
54.28226 279.000
54.30220 252.000
54.32215 269.000
54.34210 272.000
54.36204 268.000
54.38199 261.000
54.40194 282.000
54.42188 297.000
54.44183 267.000
54.46178 286.000
54.48172 281.000
54.50167 297.000
54.52162 260.000
54.54157 244.000
54.56151 280.000
54.58146 254.000
54.60141 298.000
54.62135 282.000
54.64130 293.000
54.66125 303.000
54.68119 241.000
54.70114 284.000
54.72109 258.000
54.74104 273.000
54.76098 269.000
54.78093 278.000
54.80088 260.000
54.82082 249.000
54.84077 256.000
54.86072 279.000
54.88066 282.000
54.90061 260.000
54.92056 252.000
54.94050 285.000
54.96045 288.000
54.98040 243.000
55.00035 256.000
55.02029 266.000
55.04024 276.000
55.06019 259.000
55.08013 252.000
55.10008 297.000
55.12003 271.000
55.13997 265.000
55.15992 265.000
55.17987 264.000
55.19982 227.000
55.21976 263.000
55.23971 279.000
55.25966 274.000
55.27960 273.000
55.29955 265.000
55.31950 242.000
55.33944 272.000
55.35939 280.000
55.37934 250.000
55.39929 252.000
55.41923 255.000
55.43918 272.000
55.45913 300.000
55.47907 246.000
55.49902 266.000
55.51897 266.000
55.53891 299.000
55.55886 266.000
55.57881 243.000
55.59875 235.000
55.61870 277.000
55.63865 294.000
55.65860 252.000
55.67854 245.000
55.69849 239.000
55.71844 249.000
55.73838 285.000
55.75833 274.000
55.77828 273.000
55.79822 251.000
55.81817 262.000
55.83812 273.000
55.85807 239.000
55.87801 234.000
55.89796 295.000
55.91791 248.000
55.93785 286.000
55.95780 271.000
55.97775 233.000
55.99769 252.000
56.01764 257.000
56.03759 279.000
56.05753 252.000
56.07748 296.000
56.09743 269.000
56.11738 294.000
56.13732 265.000
56.15727 282.000
56.17722 249.000
56.19716 280.000
56.21711 278.000
56.23706 259.000
56.25700 304.000
56.27695 272.000
56.29690 272.000
56.31685 272.000
56.33679 260.000
56.35674 247.000
56.37669 242.000
56.39663 291.000
56.41658 236.000
56.43653 267.000
56.45647 254.000
56.47642 269.000
56.49637 285.000
56.51631 273.000
56.53626 295.000
56.55621 266.000
56.57616 261.000
56.59610 275.000
56.61605 270.000
56.63600 250.000
56.65594 282.000
56.67589 302.000
56.69584 280.000
56.71578 273.000
56.73573 283.000
56.75568 272.000
56.77563 287.000
56.79557 284.000
56.81552 258.000
56.83547 261.000
56.85541 297.000
56.87536 275.000
56.89531 252.000
56.91525 237.000
56.93520 274.000
56.95515 281.000
56.97510 265.000
56.99504 278.000
57.01499 295.000
57.03494 266.000
57.05488 228.000
57.07483 310.000
57.09478 290.000
57.11472 302.000
57.13467 255.000
57.15462 264.000
57.17456 279.000
57.19451 286.000
57.21446 286.000
57.23441 255.000
57.25435 268.000
57.27430 308.000
57.29425 291.000
57.31419 282.000
57.33414 293.000
57.35409 286.000
57.37403 301.000
57.39398 265.000
57.41393 274.000
57.43388 267.000
57.45382 296.000
57.47377 272.000
57.49372 301.000
57.51366 264.000
57.53361 233.000
57.55356 286.000
57.57350 308.000
57.59345 279.000
57.61340 300.000
57.63334 266.000
57.65329 259.000
57.67324 265.000
57.69319 288.000
57.71313 256.000
57.73308 266.000
57.75303 265.000
57.77297 261.000
57.79292 289.000
57.81287 266.000
57.83281 273.000
57.85276 254.000
57.87271 266.000
57.89266 272.000
57.91260 278.000
57.93255 293.000
57.95250 255.000
57.97244 250.000
57.99239 295.000
58.01234 270.000
58.03228 313.000
58.05223 294.000
58.07218 257.000
58.09212 240.000
58.11207 270.000
58.13202 274.000
58.15197 267.000
58.17191 247.000
58.19186 257.000
58.21181 301.000
58.23175 270.000
58.25170 279.000
58.27165 257.000
58.29159 277.000
58.31154 265.000
58.33149 274.000
58.35144 276.000
58.37138 249.000
58.39133 277.000
58.41128 292.000
58.43122 288.000
58.45117 289.000
58.47112 288.000
58.49106 267.000
58.51101 297.000
58.53096 282.000
58.55090 294.000
58.57085 306.000
58.59080 281.000
58.61075 290.000
58.63069 266.000
58.65064 262.000
58.67059 261.000
58.69053 306.000
58.71048 275.000
58.73043 276.000
58.75037 267.000
58.77032 265.000
58.79027 281.000
58.81022 259.000
58.83016 250.000
58.85011 263.000
58.87006 261.000
58.89000 260.000
58.90995 284.000
58.92990 280.000
58.94984 265.000
58.96979 241.000
58.98974 267.000
59.00969 291.000
59.02963 274.000
59.04958 283.000
59.06953 288.000
59.08947 252.000
59.10942 275.000
59.12937 256.000
59.14931 242.000
59.16926 270.000
59.18921 271.000
59.20915 257.000
59.22910 278.000
59.24905 306.000
59.26900 262.000
59.28894 279.000
59.30889 255.000
59.32884 272.000
59.34878 255.000
59.36873 276.000
59.38868 252.000
59.40862 280.000
59.42857 248.000
59.44852 283.000
59.46847 274.000
59.48841 260.000
59.50836 265.000
59.52831 266.000
59.54825 253.000
59.56820 248.000
59.58815 260.000
59.60809 262.000
59.62804 245.000
59.64799 261.000
59.66793 305.000
59.68788 304.000
59.70783 280.000
59.72778 286.000
59.74772 289.000
59.76767 267.000
59.78762 268.000
59.80756 247.000
59.82751 271.000
59.84746 303.000
59.86740 270.000
59.88735 260.000
59.90730 284.000
59.92725 249.000
59.94719 282.000
59.96714 300.000
59.98709 286.000
60.00703 278.000
60.02698 280.000
60.04693 298.000
60.06687 297.000
60.08682 301.000
60.10677 274.000
60.12671 281.000
60.14666 295.000
60.16661 281.000
60.18656 291.000
60.20650 289.000
60.22645 306.000
60.24640 289.000
60.26634 242.000
60.28629 285.000
60.30624 286.000
60.32618 304.000
60.34613 280.000
60.36608 312.000
60.38603 313.000
60.40597 282.000
60.42592 284.000
60.44587 289.000
60.46581 262.000
60.48576 317.000
60.50571 302.000
60.52565 270.000
60.54560 308.000
60.56555 285.000
60.58550 295.000
60.60544 277.000
60.62539 313.000
60.64534 256.000
60.66528 280.000
60.68523 284.000
60.70518 272.000
60.72512 261.000
60.74507 280.000
60.76502 258.000
60.78496 292.000
60.80491 294.000
60.82486 288.000
60.84481 287.000
60.86475 291.000
60.88470 278.000
60.90465 271.000
60.92459 248.000
60.94454 299.000
60.96449 298.000
60.98443 329.000
61.00438 290.000
61.02433 281.000
61.04428 288.000
61.06422 290.000
61.08417 323.000
61.10412 252.000
61.12406 256.000
61.14401 277.000
61.16396 289.000
61.18390 278.000
61.20385 273.000
61.22380 282.000
61.24374 275.000
61.26369 286.000
61.28364 281.000
61.30359 289.000
61.32353 293.000
61.34348 281.000
61.36343 266.000
61.38337 300.000
61.40332 307.000
61.42327 332.000
61.44321 337.000
61.46316 319.000
61.48311 314.000
61.50306 312.000
61.52300 313.000
61.54295 313.000
61.56290 311.000
61.58284 314.000
61.60279 322.000
61.62274 326.000
61.64268 299.000
61.66263 333.000
61.68258 353.000
61.70252 338.000
61.72247 356.000
61.74242 323.000
61.76237 336.000
61.78231 338.000
61.80226 361.000
61.82221 351.000
61.84215 360.000
61.86210 371.000
61.88205 379.000
61.90199 362.000
61.92194 356.000
61.94189 394.000
61.96184 352.000
61.98178 391.000
62.00173 413.000
62.02168 396.000
62.04162 461.000
62.06157 465.000
62.08152 512.000
62.10146 551.000
62.12141 547.000
62.14136 637.000
62.16131 602.000
62.18125 636.000
62.20120 598.000
62.22115 603.000
62.24109 617.000
62.26104 583.000
62.28099 561.000
62.30093 654.000
62.32088 618.000
62.34083 632.000
62.36077 614.000
62.38072 636.000
62.40067 626.000
62.42062 588.000
62.44056 616.000
62.46051 693.000
62.48046 742.000
62.50040 789.000
62.52035 962.000
62.54030 1117.000
62.56024 1351.000
62.58019 1651.000
62.60014 1982.000
62.62009 2423.000
62.64003 2744.000
62.65998 2986.000
62.67993 3099.000
62.69987 3045.000
62.71982 2994.000
62.73977 2808.000
62.75971 2765.000
62.77966 2540.000
62.79961 2511.000
62.81955 2432.000
62.83950 2320.000
62.85945 2136.000
62.87940 2010.000
62.89934 1700.000
62.91929 1518.000
62.93924 1380.000
62.95918 1208.000
62.97913 1011.000
62.99908 899.000
63.01902 769.000
63.03897 611.000
63.05892 545.000
63.07887 475.000
63.09881 461.000
63.11876 448.000
63.13871 428.000
63.15865 388.000
63.17860 391.000
63.19855 334.000
63.21849 345.000
63.23844 352.000
63.25839 380.000
63.27833 316.000
63.29828 345.000
63.31823 294.000
63.33818 316.000
63.35812 308.000
63.37807 357.000
63.39802 305.000
63.41796 362.000
63.43791 338.000
63.45786 326.000
63.47780 296.000
63.49775 290.000
63.51770 283.000
63.53765 283.000
63.55759 310.000
63.57754 314.000
63.59749 294.000
63.61743 316.000
63.63738 260.000
63.65733 252.000
63.67727 302.000
63.69722 289.000
63.71717 306.000
63.73712 323.000
63.75706 340.000
63.77701 300.000
63.79696 294.000
63.81690 270.000
63.83685 313.000
63.85680 311.000
63.87674 315.000
63.89669 306.000
63.91664 302.000
63.93658 292.000
63.95653 312.000
63.97648 326.000
63.99643 321.000
64.01637 299.000
64.03632 297.000
64.05627 290.000
64.07621 310.000
64.09616 310.000
64.11611 307.000
64.13605 299.000
64.15600 318.000
64.17595 341.000
64.19590 350.000
64.21584 324.000
64.23579 389.000
64.25574 343.000
64.27568 370.000
64.29563 404.000
64.31558 361.000
64.33552 410.000
64.35547 427.000
64.37542 444.000
64.39536 535.000
64.41531 584.000
64.43526 533.000
64.45521 560.000
64.47515 543.000
64.49510 535.000
64.51505 547.000
64.53499 528.000
64.55494 554.000
64.57489 523.000
64.59483 490.000
64.61478 534.000
64.63473 495.000
64.65468 456.000
64.67462 473.000
64.69457 437.000
64.71452 440.000
64.73446 420.000
64.75441 362.000
64.77436 364.000
64.79430 374.000
64.81425 363.000
64.83420 314.000
64.85414 334.000
64.87409 339.000
64.89404 310.000
64.91399 274.000
64.93393 283.000
64.95388 317.000
64.97383 305.000
64.99377 314.000
65.01372 313.000
65.03367 326.000
65.05361 274.000
65.07356 284.000
65.09351 292.000
65.11346 281.000
65.13340 260.000
65.15335 297.000
65.17330 301.000
65.19324 331.000
65.21319 286.000
65.23314 283.000
65.25308 319.000
65.27303 280.000
65.29298 303.000
65.31293 269.000
65.33287 285.000
65.35282 320.000
65.37277 304.000
65.39271 345.000
65.41266 301.000
65.43261 330.000
65.45255 306.000
65.47250 324.000
65.49245 304.000
65.51239 306.000
65.53234 359.000
65.55229 319.000
65.57224 358.000
65.59218 331.000
65.61213 348.000
65.63208 339.000
65.65202 348.000
65.67197 346.000
65.69192 342.000
65.71186 333.000
65.73181 412.000
65.75176 353.000
65.77171 381.000
65.79165 366.000
65.81160 353.000
65.83155 325.000
65.85149 364.000
65.87144 329.000
65.89139 311.000
65.91133 303.000
65.93128 283.000
65.95123 298.000
65.97117 313.000
65.99112 303.000
66.01107 297.000
66.03102 288.000
66.05096 328.000
66.07091 326.000
66.09086 322.000
66.11080 264.000
66.13075 326.000
66.15070 295.000
66.17064 307.000
66.19059 280.000
66.21054 301.000
66.23049 298.000
66.25043 299.000
66.27038 298.000
66.29033 271.000
66.31027 300.000
66.33022 312.000
66.35017 290.000
66.37011 281.000
66.39006 282.000
66.41001 307.000
66.42995 270.000
66.44990 270.000
66.46985 277.000
66.48980 295.000
66.50974 319.000
66.52969 314.000
66.54964 295.000
66.56958 303.000
66.58953 307.000
66.60948 320.000
66.62942 301.000
66.64937 345.000
66.66932 321.000
66.68927 307.000
66.70921 344.000
66.72916 363.000
66.74911 356.000
66.76905 383.000
66.78900 352.000
66.80895 408.000
66.82889 397.000
66.84884 434.000
66.86879 464.000
66.88874 434.000
66.90868 431.000
66.92863 445.000
66.94858 451.000
66.96852 443.000
66.98847 461.000
67.00842 463.000
67.02836 420.000
67.04831 453.000
67.06826 425.000
67.08820 413.000
67.10815 402.000
67.12810 406.000
67.14805 359.000
67.16799 397.000
67.18794 450.000
67.20789 336.000
67.22783 374.000
67.24778 394.000
67.26773 404.000
67.28767 346.000
67.30762 333.000
67.32757 342.000
67.34752 310.000
67.36746 367.000
67.38741 362.000
67.40736 310.000
67.42730 298.000
67.44725 315.000
67.46720 300.000
67.48714 288.000
67.50709 278.000
67.52704 292.000
67.54698 256.000
67.56693 333.000
67.58688 293.000
67.60683 267.000
67.62677 295.000
67.64672 304.000
67.66667 256.000
67.68661 293.000
67.70656 253.000
67.72651 256.000
67.74645 290.000
67.76640 256.000
67.78635 254.000
67.80630 294.000
67.82624 253.000
67.84619 230.000
67.86614 272.000
67.88608 277.000
67.90603 267.000
67.92598 279.000
67.94592 301.000
67.96587 276.000
67.98582 304.000
68.00576 274.000
68.02571 297.000
68.04566 260.000
68.06561 294.000
68.08555 295.000
68.10550 263.000
68.12545 271.000
68.14539 235.000
68.16534 259.000
68.18529 259.000
68.20523 251.000
68.22518 284.000
68.24513 281.000
68.26508 303.000
68.28502 282.000
68.30497 288.000
68.32492 280.000
68.34486 265.000
68.36481 253.000
68.38476 263.000
68.40470 245.000
68.42465 267.000
68.44460 280.000
68.46455 251.000
68.48449 247.000
68.50444 267.000
68.52439 280.000
68.54433 256.000
68.56428 234.000
68.58423 265.000
68.60417 234.000
68.62412 281.000
68.64407 272.000
68.66401 271.000
68.68396 266.000
68.70391 252.000
68.72386 261.000
68.74380 285.000
68.76375 278.000
68.78370 262.000
68.80364 304.000
68.82359 263.000
68.84354 300.000
68.86348 271.000
68.88343 264.000
68.90338 264.000
68.92333 248.000
68.94327 265.000
68.96322 273.000
68.98317 257.000
69.00311 262.000
69.02306 290.000
69.04301 263.000
69.06295 234.000
69.08290 267.000
69.10285 277.000
69.12279 255.000
69.14274 260.000
69.16269 253.000
69.18264 256.000
69.20258 276.000
69.22253 260.000
69.24248 242.000
69.26242 271.000
69.28237 281.000
69.30232 272.000
69.32226 250.000
69.34221 258.000
69.36216 268.000
69.38211 249.000
69.40205 269.000
69.42200 252.000
69.44195 304.000
69.46189 264.000
69.48184 286.000
69.50179 267.000
69.52173 229.000
69.54168 284.000
69.56163 238.000
69.58157 291.000
69.60152 232.000
69.62147 286.000
69.64142 231.000
69.66136 299.000
69.68131 235.000
69.70126 268.000
69.72120 290.000
69.74115 280.000
69.76110 246.000
69.78104 282.000
69.80099 257.000
69.82094 307.000
69.84089 296.000
69.86083 265.000
69.88078 271.000
69.90073 248.000
69.92067 264.000
69.94062 252.000
69.96057 254.000
69.98051 223.000
70.00046 285.000
70.02041 267.000
70.04035 256.000
70.06030 251.000
70.08025 276.000
70.10020 266.000
70.12014 310.000
70.14009 266.000
70.16004 269.000
70.17998 250.000
70.19993 257.000
70.21988 258.000
70.23982 271.000
70.25977 267.000
70.27972 276.000
70.29967 262.000
70.31961 267.000
70.33956 251.000
70.35951 290.000
70.37945 268.000
70.39940 262.000
70.41935 287.000
70.43929 244.000
70.45924 299.000
70.47919 250.000
70.49914 248.000
70.51908 266.000
70.53903 282.000
70.55898 262.000
70.57892 242.000
70.59887 244.000
70.61882 263.000
70.63876 282.000
70.65871 263.000
70.67866 277.000
70.69860 259.000
70.71855 298.000
70.73850 265.000
70.75845 260.000
70.77839 279.000
70.79834 269.000
70.81829 285.000
70.83823 267.000
70.85818 241.000
70.87813 233.000
70.89807 268.000
70.91802 276.000
70.93797 261.000
70.95792 280.000
70.97786 247.000
70.99781 230.000
71.01776 231.000
71.03770 238.000
71.05765 272.000
71.07760 263.000
71.09754 265.000
71.11749 282.000
71.13744 254.000
71.15738 273.000
71.17733 244.000
71.19728 279.000
71.21723 272.000
71.23717 275.000
71.25712 288.000
71.27707 235.000
71.29701 283.000
71.31696 278.000
71.33691 271.000
71.35685 234.000
71.37680 262.000
71.39675 261.000
71.41670 250.000
71.43664 276.000
71.45659 294.000
71.47654 254.000
71.49648 246.000
71.51643 291.000
71.53638 307.000
71.55632 269.000
71.57627 256.000
71.59622 251.000
71.61616 267.000
71.63611 283.000
71.65606 270.000
71.67601 290.000
71.69595 259.000
71.71590 238.000
71.73585 295.000
71.75579 277.000
71.77574 279.000
71.79569 244.000
71.81563 271.000
71.83558 287.000
71.85553 289.000
71.87548 269.000
71.89542 282.000
71.91537 253.000
71.93532 299.000
71.95526 260.000
71.97521 248.000
71.99516 281.000
72.01510 275.000
72.03505 281.000
72.05500 305.000
72.07495 245.000
72.09489 275.000
72.11484 277.000
72.13479 272.000
72.15473 259.000
72.17468 256.000
72.19463 266.000
72.21457 251.000
72.23452 269.000
72.25447 261.000
72.27441 277.000
72.29436 276.000
72.31431 260.000
72.33426 269.000
72.35420 279.000
72.37415 266.000
72.39410 266.000
72.41404 286.000
72.43399 261.000
72.45394 254.000
72.47388 267.000
72.49383 275.000
72.51378 255.000
72.53373 274.000
72.55367 254.000
72.57362 293.000
72.59357 301.000
72.61351 277.000
72.63346 270.000
72.65341 297.000
72.67335 265.000
72.69330 284.000
72.71325 276.000
72.73319 278.000
72.75314 276.000
72.77309 317.000
72.79304 242.000
72.81298 279.000
72.83293 296.000
72.85288 284.000
72.87282 260.000
72.89277 264.000
72.91272 272.000
72.93266 275.000
72.95261 261.000
72.97256 261.000
72.99251 267.000
73.01245 297.000
73.03240 275.000
73.05235 289.000
73.07229 263.000
73.09224 280.000
73.11219 296.000
73.13213 270.000
73.15208 247.000
73.17203 293.000
73.19197 263.000
73.21192 283.000
73.23187 258.000
73.25182 284.000
73.27176 272.000
73.29171 283.000
73.31166 252.000
73.33160 256.000
73.35155 263.000
73.37150 257.000
73.39144 282.000
73.41139 287.000
73.43134 281.000
73.45129 289.000
73.47123 276.000
73.49118 274.000
73.51113 301.000
73.53107 259.000
73.55102 286.000
73.57097 318.000
73.59091 289.000
73.61086 299.000
73.63081 294.000
73.65076 306.000
73.67070 294.000
73.69065 283.000
73.71060 289.000
73.73054 292.000
73.75049 331.000
73.77044 335.000
73.79038 349.000
73.81033 345.000
73.83028 313.000
73.85022 353.000
73.87017 344.000
73.89012 318.000
73.91007 315.000
73.93001 300.000
73.94996 297.000
73.96991 319.000
73.98985 323.000
74.00980 357.000
74.02975 330.000
74.04969 294.000
74.06964 329.000
74.08959 325.000
74.10954 302.000
74.12948 295.000
74.14943 299.000
74.16938 291.000
74.18932 280.000
74.20927 316.000
74.22922 286.000
74.24916 289.000
74.26911 271.000
74.28906 288.000
74.30900 275.000
74.32895 268.000
74.34890 297.000
74.36885 287.000
74.38879 301.000
74.40874 285.000
74.42869 271.000
74.44863 270.000
74.46858 290.000
74.48853 272.000
74.50847 279.000
74.52842 310.000
74.54837 310.000
74.56832 294.000
74.58826 261.000
74.60821 313.000
74.62816 291.000
74.64810 328.000
74.66805 306.000
74.68800 339.000
74.70794 308.000
74.72789 306.000
74.74784 321.000
74.76778 307.000
74.78773 381.000
74.80768 357.000
74.82763 308.000
74.84757 378.000
74.86752 361.000
74.88747 384.000
74.90741 430.000
74.92736 441.000
74.94731 428.000
74.96725 514.000
74.98720 505.000
75.00715 577.000
75.02710 650.000
75.04704 781.000
75.06699 829.000
75.08694 928.000
75.10688 1037.000
75.12683 1107.000
75.14678 1104.000
75.16672 1158.000
75.18667 1132.000
75.20662 1113.000
75.22657 1079.000
75.24651 1032.000
75.26646 1034.000
75.28641 1048.000
75.30635 924.000
75.32630 935.000
75.34625 912.000
75.36619 887.000
75.38614 850.000
75.40609 747.000
75.42603 730.000
75.44598 666.000
75.46593 654.000
75.48588 595.000
75.50582 529.000
75.52577 508.000
75.54572 456.000
75.56566 452.000
75.58561 407.000
75.60556 357.000
75.62550 353.000
75.64545 347.000
75.66540 363.000
75.68535 330.000
75.70529 303.000
75.72524 308.000
75.74519 312.000
75.76513 291.000
75.78508 297.000
75.80503 290.000
75.82497 288.000
75.84492 294.000
75.86487 294.000
75.88481 343.000
75.90476 306.000
75.92471 290.000
75.94466 283.000
75.96460 301.000
75.98455 331.000
76.00450 287.000
76.02444 308.000
76.04439 303.000
76.06434 312.000
76.08428 300.000
76.10423 329.000
76.12418 326.000
76.14413 278.000
76.16407 286.000
76.18402 284.000
76.20397 322.000
76.22391 283.000
76.24386 258.000
76.26381 346.000
76.28375 322.000
76.30370 292.000
76.32365 283.000
76.34359 266.000
76.36354 322.000
76.38349 289.000
76.40344 267.000
76.42338 285.000
76.44333 290.000
76.46328 295.000
76.48322 272.000
76.50317 283.000
76.52312 260.000
76.54306 291.000
76.56301 268.000
76.58296 270.000
76.60291 278.000
76.62285 277.000
76.64280 287.000
76.66275 271.000
76.68269 270.000
76.70264 281.000
76.72259 276.000
76.74253 269.000
76.76248 234.000
76.78243 269.000
76.80238 264.000
76.82232 262.000
76.84227 298.000
76.86222 258.000
76.88216 266.000
76.90211 271.000
76.92206 289.000
76.94200 282.000
76.96195 276.000
76.98190 301.000
77.00184 291.000
77.02179 283.000
77.04174 303.000
77.06169 281.000
77.08163 307.000
77.10158 303.000
77.12153 301.000
77.14147 304.000
77.16142 282.000
77.18137 288.000
77.20131 248.000
77.22126 277.000
77.24121 296.000
77.26116 286.000
77.28110 290.000
77.30105 262.000
77.32100 255.000
77.34094 284.000
77.36089 274.000
77.38084 308.000
77.40078 294.000
77.42073 270.000
77.44068 289.000
77.46062 255.000
77.48057 267.000
77.50052 262.000
77.52047 300.000
77.54041 277.000
77.56036 264.000
77.58031 251.000
77.60025 273.000
77.62020 268.000
77.64015 269.000
77.66009 264.000
77.68004 272.000
77.69999 276.000
77.71994 285.000
77.73988 268.000
77.75983 298.000
77.77978 269.000
77.79972 245.000
77.81967 294.000
77.83962 268.000
77.85956 288.000
77.87951 265.000
77.89946 295.000
77.91940 305.000
77.93935 278.000
77.95930 257.000
77.97925 286.000
77.99919 302.000
78.01914 304.000
78.03909 265.000
78.05903 305.000
78.07898 316.000
78.09893 334.000
78.11887 307.000
78.13882 349.000
78.15877 332.000
78.17872 375.000
78.19866 321.000
78.21861 333.000
78.23856 374.000
78.25850 343.000
78.27845 337.000
78.29840 316.000
78.31834 369.000
78.33829 360.000
78.35824 350.000
78.37819 407.000
78.39813 359.000
78.41808 387.000
78.43803 375.000
78.45797 392.000
78.47792 370.000
78.49787 383.000
78.51781 407.000
78.53776 355.000
78.55771 367.000
78.57765 380.000
78.59760 355.000
78.61755 330.000
78.63750 366.000
78.65744 347.000
78.67739 357.000
78.69734 388.000
78.71728 337.000
78.73723 360.000
78.75718 316.000
78.77712 357.000
78.79707 356.000
78.81702 358.000
78.83697 329.000
78.85691 357.000
78.87686 357.000
78.89681 389.000
78.91675 383.000
78.93670 401.000
78.95665 451.000
78.97659 519.000
78.99654 550.000
79.01649 616.000
79.03643 703.000
79.05638 779.000
79.07633 884.000
79.09628 850.000
79.11622 906.000
79.13617 944.000
79.15612 924.000
79.17606 850.000
79.19601 797.000
79.21596 756.000
79.23590 787.000
79.25585 742.000
79.27580 791.000
79.29575 728.000
79.31569 788.000
79.33564 704.000
79.35559 692.000
79.37553 619.000
79.39548 634.000
79.41543 634.000
79.43537 583.000
79.45532 533.000
79.47527 508.000
79.49521 458.000
79.51516 457.000
79.53511 392.000
79.55506 395.000
79.57500 374.000
79.59495 354.000
79.61490 342.000
79.63484 312.000
79.65479 333.000
79.67474 334.000
79.69468 314.000
79.71463 313.000
79.73458 281.000
79.75453 312.000
79.77447 319.000
79.79442 288.000
79.81437 270.000
79.83431 286.000
79.85426 268.000
79.87421 291.000
79.89415 267.000
79.91410 308.000
79.93405 270.000
79.95399 276.000
79.97394 253.000
79.99389 260.000
80.01384 294.000
80.03378 282.000
80.05373 285.000
80.07368 257.000
80.09362 293.000
80.11357 259.000
80.13352 272.000
80.15346 252.000
80.17341 295.000
80.19336 259.000
80.21331 270.000
80.23325 301.000
80.25320 274.000
80.27315 262.000
80.29309 260.000
80.31304 262.000
80.33299 243.000
80.35293 268.000
80.37288 293.000
80.39283 271.000
80.41278 293.000
80.43272 275.000
80.45267 274.000
80.47262 276.000
80.49256 271.000
80.51251 273.000
80.53246 271.000
80.55240 251.000
80.57235 311.000
80.59230 267.000
80.61224 233.000
80.63219 272.000
80.65214 281.000
80.67209 252.000
80.69203 281.000
80.71198 271.000
80.73193 249.000
80.75187 275.000
80.77182 287.000
80.79177 284.000
80.81171 276.000
80.83166 263.000
80.85161 273.000
80.87156 292.000
80.89150 268.000
80.91145 280.000
80.93140 268.000
80.95134 299.000
80.97129 280.000
80.99124 283.000
81.01118 275.000
81.03113 248.000
81.05108 296.000
81.07102 258.000
81.09097 295.000
81.11092 264.000
81.13087 275.000
81.15081 282.000
81.17076 259.000
81.19071 266.000
81.21065 284.000
81.23060 296.000
81.25055 283.000
81.27049 258.000
81.29044 289.000
81.31039 253.000
81.33034 252.000
81.35028 259.000
81.37023 289.000
81.39018 278.000
81.41012 244.000
81.43007 278.000
81.45002 283.000
81.46996 264.000
81.48991 290.000
81.50986 273.000
81.52980 262.000
81.54975 270.000
81.56970 273.000
81.58965 241.000
81.60959 265.000
81.62954 254.000
81.64949 252.000
81.66943 256.000
81.68938 256.000
81.70933 254.000
81.72927 307.000
81.74922 253.000
81.76917 261.000
81.78912 293.000
81.80906 266.000
81.82901 284.000
81.84896 286.000
81.86890 247.000
81.88885 280.000
81.90880 252.000
81.92874 270.000
81.94869 252.000
81.96864 261.000
81.98859 283.000
82.00853 264.000
82.02848 285.000
82.04843 276.000
82.06837 243.000
82.08832 258.000
82.10827 264.000
82.12821 241.000
82.14816 273.000
82.16811 251.000
82.18805 277.000
82.20800 251.000
82.22795 285.000
82.24790 294.000
82.26784 290.000
82.28779 305.000
82.30774 264.000
82.32768 285.000
82.34763 288.000
82.36758 279.000
82.38752 292.000
82.40747 265.000
82.42742 277.000
82.44737 272.000
82.46731 270.000
82.48726 279.000
82.50721 270.000
82.52715 241.000
82.54710 270.000
82.56705 294.000
82.58699 269.000
82.60694 284.000
82.62689 287.000
82.64683 257.000
82.66678 270.000
82.68673 267.000
82.70668 281.000
82.72662 318.000
82.74657 288.000
82.76652 266.000
82.78646 240.000
82.80641 292.000
82.82636 275.000
82.84630 251.000
82.86625 248.000
82.88620 264.000
82.90615 229.000
82.92609 284.000
82.94604 257.000
82.96599 268.000
82.98593 274.000
83.00588 261.000
83.02583 275.000
83.04577 261.000
83.06572 278.000
83.08567 286.000
83.10561 273.000
83.12556 279.000
83.14551 277.000
83.16546 270.000
83.18540 311.000
83.20535 245.000
83.22530 304.000
83.24524 287.000
83.26519 265.000
83.28514 258.000
83.30508 262.000
83.32503 252.000
83.34498 254.000
83.36493 261.000
83.38487 264.000
83.40482 276.000
83.42477 293.000
83.44471 242.000
83.46466 280.000
83.48461 247.000
83.50455 254.000
83.52450 247.000
83.54445 285.000
83.56440 262.000
83.58434 272.000
83.60429 287.000
83.62424 275.000
83.64418 265.000
83.66413 269.000
83.68408 263.000
83.70402 265.000
83.72397 252.000
83.74392 251.000
83.76386 270.000
83.78381 268.000
83.80376 255.000
83.82371 284.000
83.84365 251.000
83.86360 280.000
83.88355 261.000
83.90349 266.000
83.92344 274.000
83.94339 276.000
83.96333 294.000
83.98328 275.000
84.00323 275.000
84.02318 270.000
84.04312 269.000
84.06307 258.000
84.08302 268.000
84.10296 278.000
84.12291 285.000
84.14286 280.000
84.16280 285.000
84.18275 260.000
84.20270 283.000
84.22264 327.000
84.24259 288.000
84.26254 314.000
84.28249 301.000
84.30243 257.000
84.32238 270.000
84.34233 265.000
84.36227 280.000
84.38222 271.000
84.40217 283.000
84.42211 291.000
84.44206 285.000
84.46201 286.000
84.48196 274.000
84.50190 262.000
84.52185 281.000
84.54180 286.000
84.56174 272.000
84.58169 283.000
84.60164 275.000
84.62158 298.000
84.64153 318.000
84.66148 314.000
84.68142 311.000
84.70137 275.000
84.72132 286.000
84.74127 303.000
84.76121 327.000
84.78116 327.000
84.80111 312.000
84.82105 334.000
84.84100 305.000
84.86095 309.000
84.88089 285.000
84.90084 295.000
84.92079 358.000
84.94074 338.000
84.96068 317.000
84.98063 262.000
85.00058 351.000
85.02052 353.000
85.04047 365.000
85.06042 316.000
85.08036 339.000
85.10031 309.000
85.12026 321.000
85.14021 303.000
85.16015 300.000
85.18010 278.000
85.20005 276.000
85.21999 302.000
85.23994 318.000
85.25989 275.000
85.27983 257.000
85.29978 269.000
85.31973 296.000
85.33967 278.000
85.35962 292.000
85.37957 254.000
85.39952 257.000
85.41946 252.000
85.43941 262.000
85.45936 286.000
85.47930 253.000
85.49925 291.000
85.51920 264.000
85.53914 264.000
85.55909 265.000
85.57904 275.000
85.59899 267.000
85.61893 266.000
85.63888 266.000
85.65883 265.000
85.67877 276.000
85.69872 280.000
85.71867 253.000
85.73861 283.000
85.75856 262.000
85.77851 271.000
85.79845 283.000
85.81840 264.000
85.83835 255.000
85.85830 286.000
85.87824 278.000
85.89819 266.000
85.91814 271.000
85.93808 261.000
85.95803 288.000
85.97798 292.000
85.99792 252.000
86.01787 273.000
86.03782 274.000
86.05777 274.000
86.07771 250.000
86.09766 287.000
86.11761 263.000
86.13755 281.000
86.15750 255.000
86.17745 252.000
86.19739 277.000
86.21734 280.000
86.23729 294.000
86.25723 267.000
86.27718 303.000
86.29713 266.000
86.31708 272.000
86.33702 251.000
86.35697 264.000
86.37692 264.000
86.39686 254.000
86.41681 244.000
86.43676 256.000
86.45670 248.000
86.47665 254.000
86.49660 250.000
86.51655 285.000
86.53649 274.000
86.55644 287.000
86.57639 273.000
86.59633 287.000
86.61628 281.000
86.63623 260.000
86.65617 273.000
86.67612 262.000
86.69607 271.000
86.71602 280.000
86.73596 259.000
86.75591 307.000
86.77586 266.000
86.79580 274.000
86.81575 268.000
86.83570 257.000
86.85564 244.000
86.87559 265.000
86.89554 296.000
86.91548 290.000
86.93543 258.000
86.95538 267.000
86.97533 267.000
86.99527 282.000
87.01522 284.000
87.03517 281.000
87.05511 271.000
87.07506 292.000
87.09501 282.000
87.11495 288.000
87.13490 304.000
87.15485 299.000
87.17480 274.000
87.19474 283.000
87.21469 310.000
87.23464 304.000
87.25458 322.000
87.27453 306.000
87.29448 311.000
87.31442 290.000
87.33437 325.000
87.35432 301.000
87.37426 278.000
87.39421 274.000
87.41416 297.000
87.43411 307.000
87.45405 274.000
87.47400 300.000
87.49395 292.000
87.51389 286.000
87.53384 276.000
87.55379 297.000
87.57373 251.000
87.59368 269.000
87.61363 293.000
87.63358 269.000
87.65352 302.000
87.67347 287.000
87.69342 275.000
87.71336 278.000
87.73331 283.000
87.75326 281.000
87.77320 278.000
87.79315 222.000
87.81310 236.000
87.83304 250.000
87.85299 280.000
87.87294 301.000
87.89289 290.000
87.91283 284.000
87.93278 250.000
87.95273 262.000
87.97267 284.000
87.99262 274.000
88.01257 317.000
88.03251 258.000
88.05246 288.000
88.07241 278.000
88.09236 261.000
88.11230 277.000
88.13225 294.000
88.15220 264.000
88.17214 295.000
88.19209 281.000
88.21204 262.000
88.23198 263.000
88.25193 274.000
88.27188 270.000
88.29183 263.000
88.31177 264.000
88.33172 272.000
88.35167 281.000
88.37161 274.000
88.39156 255.000
88.41151 287.000
88.43145 263.000
88.45140 267.000
88.47135 277.000
88.49129 271.000
88.51124 293.000
88.53119 258.000
88.55114 293.000
88.57108 262.000
88.59103 280.000
88.61098 264.000
88.63092 271.000
88.65087 289.000
88.67082 262.000
88.69076 252.000
88.71071 275.000
88.73066 265.000
88.75061 286.000
88.77055 281.000
88.79050 269.000
88.81045 274.000
88.83039 285.000
88.85034 254.000
88.87029 228.000
88.89023 265.000
88.91018 256.000
88.93013 278.000
88.95007 272.000
88.97002 254.000
88.98997 254.000
89.00992 309.000
89.02986 283.000
89.04981 260.000
89.06976 251.000
89.08970 263.000
89.10965 268.000
89.12960 269.000
89.14954 277.000
89.16949 282.000
89.18944 277.000
89.20939 265.000
89.22933 273.000
89.24928 287.000
89.26923 285.000
89.28917 267.000
89.30912 248.000
89.32907 253.000
89.34901 251.000
89.36896 285.000
89.38891 251.000
89.40885 311.000
89.42880 245.000
89.44875 280.000
89.46870 255.000
89.48864 277.000
89.50859 259.000
89.52854 237.000
89.54848 261.000
89.56843 271.000
89.58838 270.000
89.60832 283.000
89.62827 260.000
89.64822 256.000
89.66817 274.000
89.68811 263.000
89.70806 296.000
89.72801 273.000
89.74795 273.000
89.76790 252.000
89.78785 272.000
89.80779 274.000
89.82774 207.000
89.84769 260.000
89.86764 289.000
89.88758 242.000
89.90753 251.000
89.92748 245.000
89.94742 252.000
89.96737 239.000
89.98732 275.000
90.00726 286.000
