10.00000 327.000
10.01995 305.000
10.03989 333.000
10.05984 314.000
10.07979 329.000
10.09973 298.000
10.11968 284.000
10.13963 333.000
10.15958 325.000
10.17952 343.000
10.19947 277.000
10.21942 320.000
10.23936 318.000
10.25931 331.000
10.27926 322.000
10.29920 317.000
10.31915 317.000
10.33910 302.000
10.35905 312.000
10.37899 326.000
10.39894 334.000
10.41889 333.000
10.43883 329.000
10.45878 318.000
10.47873 347.000
10.49867 316.000
10.51862 337.000
10.53857 316.000
10.55851 356.000
10.57846 335.000
10.59841 333.000
10.61836 321.000
10.63830 331.000
10.65825 339.000
10.67820 334.000
10.69814 336.000
10.71809 332.000
10.73804 287.000
10.75798 348.000
10.77793 346.000
10.79788 341.000
10.81783 321.000
10.83777 305.000
10.85772 311.000
10.87767 332.000
10.89761 312.000
10.91756 338.000
10.93751 328.000
10.95745 307.000
10.97740 302.000
10.99735 339.000
11.01730 323.000
11.03724 320.000
11.05719 331.000
11.07714 313.000
11.09708 341.000
11.11703 326.000
11.13698 326.000
11.15692 315.000
11.17687 344.000
11.19682 367.000
11.21676 332.000
11.23671 350.000
11.25666 348.000
11.27661 325.000
11.29655 337.000
11.31650 370.000
11.33645 351.000
11.35639 320.000
11.37634 347.000
11.39629 317.000
11.41623 339.000
11.43618 361.000
11.45613 327.000
11.47608 318.000
11.49602 345.000
11.51597 343.000
11.53592 353.000
11.55586 305.000
11.57581 331.000
11.59576 368.000
11.61570 309.000
11.63565 326.000
11.65560 338.000
11.67554 316.000
11.69549 316.000
11.71544 310.000
11.73539 300.000
11.75533 332.000
11.77528 354.000
11.79523 340.000
11.81517 334.000
11.83512 358.000
11.85507 335.000
11.87501 342.000
11.89496 336.000
11.91491 351.000
11.93486 312.000
11.95480 338.000
11.97475 339.000
11.99470 335.000
12.01464 369.000
12.03459 323.000
12.05454 333.000
12.07448 363.000
12.09443 360.000
12.11438 297.000
12.13432 361.000
12.15427 338.000
12.17422 319.000
12.19417 332.000
12.21411 347.000
12.23406 335.000
12.25401 343.000
12.27395 327.000
12.29390 337.000
12.31385 358.000
12.33379 359.000
12.35374 349.000
12.37369 353.000
12.39364 306.000
12.41358 336.000
12.43353 309.000
12.45348 386.000
12.47342 341.000
12.49337 318.000
12.51332 374.000
12.53326 378.000
12.55321 350.000
12.57316 337.000
12.59311 359.000
12.61305 369.000
12.63300 326.000
12.65295 344.000
12.67289 336.000
12.69284 312.000
12.71279 330.000
12.73273 332.000
12.75268 333.000
12.77263 392.000
12.79257 354.000
12.81252 358.000
12.83247 342.000
12.85242 345.000
12.87236 344.000
12.89231 344.000
12.91226 320.000
12.93220 348.000
12.95215 364.000
12.97210 361.000
12.99204 327.000
13.01199 346.000
13.03194 361.000
13.05189 390.000
13.07183 353.000
13.09178 372.000
13.11173 355.000
13.13167 355.000
13.15162 371.000
13.17157 357.000
13.19151 351.000
13.21146 367.000
13.23141 381.000
13.25135 323.000
13.27130 351.000
13.29125 345.000
13.31120 330.000
13.33114 378.000
13.35109 344.000
13.37104 349.000
13.39098 383.000
13.41093 343.000
13.43088 346.000
13.45082 367.000
13.47077 365.000
13.49072 368.000
13.51067 337.000
13.53061 365.000
13.55056 347.000
13.57051 377.000
13.59045 382.000
13.61040 339.000
13.63035 350.000
13.65029 339.000
13.67024 354.000
13.69019 333.000
13.71013 387.000
13.73008 334.000
13.75003 358.000
13.76998 373.000
13.78992 368.000
13.80987 368.000
13.82982 284.000
13.84976 338.000
13.86971 322.000
13.88966 358.000
13.90960 340.000
13.92955 321.000
13.94950 328.000
13.96945 342.000
13.98939 359.000
14.00934 365.000
14.02929 351.000
14.04923 310.000
14.06918 339.000
14.08913 364.000
14.10907 338.000
14.12902 350.000
14.14897 345.000
14.16892 337.000
14.18886 334.000
14.20881 360.000
14.22876 371.000
14.24870 339.000
14.26865 343.000
14.28860 334.000
14.30854 378.000
14.32849 343.000
14.34844 342.000
14.36838 374.000
14.38833 344.000
14.40828 355.000
14.42823 379.000
14.44817 341.000
14.46812 366.000
14.48807 329.000
14.50801 328.000
14.52796 382.000
14.54791 353.000
14.56785 346.000
14.58780 370.000
14.60775 348.000
14.62770 367.000
14.64764 356.000
14.66759 338.000
14.68754 343.000
14.70748 352.000
14.72743 372.000
14.74738 369.000
14.76732 356.000
14.78727 388.000
14.80722 378.000
14.82716 379.000
14.84711 399.000
14.86706 353.000
14.88701 378.000
14.90695 348.000
14.92690 362.000
14.94685 364.000
14.96679 358.000
14.98674 383.000
15.00669 349.000
15.02663 372.000
15.04658 388.000
15.06653 394.000
15.08648 365.000
15.10642 361.000
15.12637 382.000
15.14632 362.000
15.16626 384.000
15.18621 388.000
15.20616 376.000
15.22610 366.000
15.24605 361.000
15.26600 364.000
15.28594 388.000
15.30589 369.000
15.32584 378.000
15.34579 401.000
15.36573 346.000
15.38568 353.000
15.40563 389.000
15.42557 384.000
15.44552 392.000
15.46547 405.000
15.48541 391.000
15.50536 389.000
15.52531 404.000
15.54526 433.000
15.56520 457.000
15.58515 513.000
15.60510 541.000
15.62504 684.000
15.64499 732.000
15.66494 854.000
15.68488 1036.000
15.70483 1228.000
15.72478 1537.000
15.74472 1729.000
15.76467 2115.000
15.78462 2050.000
15.80457 1974.000
15.82451 1745.000
15.84446 1400.000
15.86441 1147.000
15.88435 893.000
15.90430 787.000
15.92425 639.000
15.94419 632.000
15.96414 612.000
15.98409 674.000
16.00404 651.000
16.02398 659.000
16.04393 627.000
16.06388 603.000
16.08382 536.000
16.10377 472.000
16.12372 486.000
16.14366 459.000
16.16361 418.000
16.18356 407.000
16.20351 353.000
16.22345 389.000
16.24340 400.000
16.26335 382.000
16.28329 345.000
16.30324 370.000
16.32319 378.000
16.34313 394.000
16.36308 392.000
16.38303 403.000
16.40297 361.000
16.42292 342.000
16.44287 382.000
16.46282 388.000
16.48276 367.000
16.50271 363.000
16.52266 386.000
16.54260 354.000
16.56255 399.000
16.58250 387.000
16.60244 356.000
16.62239 360.000
16.64234 384.000
16.66229 387.000
16.68223 388.000
16.70218 362.000
16.72213 415.000
16.74207 383.000
16.76202 402.000
16.78197 404.000
16.80191 400.000
16.82186 414.000
16.84181 382.000
16.86175 395.000
16.88170 366.000
16.90165 391.000
16.92160 384.000
16.94154 409.000
16.96149 368.000
16.98144 370.000
17.00138 381.000
17.02133 343.000
17.04128 374.000
17.06122 384.000
17.08117 383.000
17.10112 364.000
17.12107 362.000
17.14101 340.000
17.16096 396.000
17.18091 384.000
17.20085 340.000
17.22080 346.000
17.24075 362.000
17.26069 350.000
17.28064 373.000
17.30059 385.000
17.32053 387.000
17.34048 339.000
17.36043 382.000
17.38038 395.000
17.40032 382.000
17.42027 376.000
17.44022 355.000
17.46016 340.000
17.48011 350.000
17.50006 373.000
17.52000 365.000
17.53995 359.000
17.55990 364.000
17.57985 347.000
17.59979 381.000
17.61974 348.000
17.63969 335.000
17.65963 359.000
17.67958 350.000
17.69953 345.000
17.71947 383.000
17.73942 379.000
17.75937 375.000
17.77932 344.000
17.79926 350.000
17.81921 369.000
17.83916 369.000
17.85910 359.000
17.87905 352.000
17.89900 391.000
17.91894 368.000
17.93889 341.000
17.95884 354.000
17.97878 367.000
17.99873 355.000
18.01868 391.000
18.03863 388.000
18.05857 381.000
18.07852 362.000
18.09847 365.000
18.11841 378.000
18.13836 361.000
18.15831 391.000
18.17825 368.000
18.19820 392.000
18.21815 427.000
18.23810 397.000
18.25804 377.000
18.27799 368.000
18.29794 368.000
18.31788 365.000
18.33783 349.000
18.35778 379.000
18.37772 379.000
18.39767 338.000
18.41762 352.000
18.43756 352.000
18.45751 358.000
18.47746 377.000
18.49741 378.000
18.51735 441.000
18.53730 366.000
18.55725 358.000
18.57719 334.000
18.59714 406.000
18.61709 364.000
18.63703 370.000
18.65698 352.000
18.67693 407.000
18.69688 382.000
18.71682 350.000
18.73677 375.000
18.75672 368.000
18.77666 413.000
18.79661 377.000
18.81656 344.000
18.83650 364.000
18.85645 358.000
18.87640 397.000
18.89634 382.000
18.91629 368.000
18.93624 404.000
18.95619 353.000
18.97613 398.000
18.99608 396.000
19.01603 377.000
19.03597 341.000
19.05592 384.000
19.07587 384.000
19.09581 392.000
19.11576 397.000
19.13571 366.000
19.15566 360.000
19.17560 349.000
19.19555 366.000
19.21550 375.000
19.23544 385.000
19.25539 377.000
19.27534 367.000
19.29528 395.000
19.31523 338.000
19.33518 361.000
19.35513 364.000
19.37507 352.000
19.39502 403.000
19.41497 375.000
19.43491 349.000
19.45486 349.000
19.47481 397.000
19.49475 396.000
19.51470 380.000
19.53465 370.000
19.55459 391.000
19.57454 395.000
19.59449 382.000
19.61444 387.000
19.63438 391.000
19.65433 388.000
19.67428 375.000
19.69422 377.000
19.71417 378.000
19.73412 359.000
19.75406 379.000
19.77401 344.000
19.79396 387.000
19.81391 358.000
19.83385 388.000
19.85380 368.000
19.87375 385.000
19.89369 345.000
19.91364 396.000
19.93359 389.000
19.95353 370.000
19.97348 356.000
19.99343 344.000
20.01337 354.000
20.03332 400.000
20.05327 384.000
20.07322 356.000
20.09316 381.000
20.11311 370.000
20.13306 382.000
20.15300 369.000
20.17295 399.000
20.19290 385.000
20.21284 344.000
20.23279 387.000
20.25274 378.000
20.27269 349.000
20.29263 360.000
20.31258 363.000
20.33253 401.000
20.35247 392.000
20.37242 391.000
20.39237 416.000
20.41231 392.000
20.43226 410.000
20.45221 371.000
20.47215 355.000
20.49210 378.000
20.51205 351.000
20.53200 388.000
20.55194 437.000
20.57189 397.000
20.59184 380.000
20.61178 392.000
20.63173 379.000
20.65168 401.000
20.67162 404.000
20.69157 454.000
20.71152 401.000
20.73147 462.000
20.75141 494.000
20.77136 523.000
20.79131 538.000
20.81125 591.000
20.83120 563.000
20.85115 635.000
20.87109 681.000
20.89104 672.000
20.91099 637.000
20.93094 662.000
20.95088 622.000
20.97083 607.000
20.99078 622.000
21.01072 596.000
21.03067 576.000
21.05062 537.000
21.07056 517.000
21.09051 506.000
21.11046 488.000
21.13040 474.000
21.15035 441.000
21.17030 449.000
21.19025 461.000
21.21019 397.000
21.23014 434.000
21.25009 398.000
21.27003 387.000
21.28998 372.000
21.30993 384.000
21.32987 366.000
21.34982 407.000
21.36977 365.000
21.38972 331.000
21.40966 384.000
21.42961 381.000
21.44956 408.000
21.46950 407.000
21.48945 382.000
21.50940 436.000
21.52934 372.000
21.54929 404.000
21.56924 396.000
21.58918 359.000
21.60913 372.000
21.62908 405.000
21.64903 369.000
21.66897 366.000
21.68892 378.000
21.70887 394.000
21.72881 378.000
21.74876 407.000
21.76871 416.000
21.78865 372.000
21.80860 354.000
21.82855 389.000
21.84850 386.000
21.86844 393.000
21.88839 380.000
21.90834 370.000
21.92828 390.000
21.94823 369.000
21.96818 357.000
21.98812 375.000
22.00807 367.000
22.02802 408.000
22.04796 346.000
22.06791 422.000
22.08786 389.000
22.10781 405.000
22.12775 407.000
22.14770 353.000
22.16765 396.000
22.18759 392.000
22.20754 362.000
22.22749 396.000
22.24743 402.000
22.26738 367.000
22.28733 389.000
22.30728 363.000
22.32722 391.000
22.34717 393.000
22.36712 416.000
22.38706 357.000
22.40701 369.000
22.42696 419.000
22.44690 385.000
22.46685 356.000
22.48680 380.000
22.50675 383.000
22.52669 352.000
22.54664 384.000
22.56659 348.000
22.58653 407.000
22.60648 400.000
22.62643 360.000
22.64637 358.000
22.66632 383.000
22.68627 371.000
22.70621 406.000
22.72616 430.000
22.74611 392.000
22.76606 396.000
22.78600 404.000
22.80595 394.000
22.82590 395.000
22.84584 383.000
22.86579 384.000
22.88574 404.000
22.90568 397.000
22.92563 397.000
22.94558 384.000
22.96553 408.000
22.98547 407.000
23.00542 399.000
23.02537 385.000
23.04531 397.000
23.06526 360.000
23.08521 385.000
23.10515 395.000
23.12510 381.000
23.14505 381.000
23.16499 357.000
23.18494 410.000
23.20489 404.000
23.22484 387.000
23.24478 374.000
23.26473 391.000
23.28468 368.000
23.30462 372.000
23.32457 380.000
23.34452 399.000
23.36446 365.000
23.38441 390.000
23.40436 387.000
23.42431 382.000
23.44425 393.000
23.46420 393.000
23.48415 403.000
23.50409 412.000
23.52404 422.000
23.54399 401.000
23.56393 358.000
23.58388 377.000
23.60383 394.000
23.62377 393.000
23.64372 401.000
23.66367 370.000
23.68362 377.000
23.70356 401.000
23.72351 439.000
23.74346 417.000
23.76340 397.000
23.78335 370.000
23.80330 367.000
23.82324 379.000
23.84319 401.000
23.86314 386.000
23.88309 403.000
23.90303 373.000
23.92298 408.000
23.94293 402.000
23.96287 385.000
23.98282 411.000
24.00277 392.000
24.02271 393.000
24.04266 427.000
24.06261 371.000
24.08256 398.000
24.10250 391.000
24.12245 427.000
24.14240 406.000
24.16234 410.000
24.18229 403.000
24.20224 377.000
24.22218 367.000
24.24213 378.000
24.26208 403.000
24.28202 399.000
24.30197 384.000
24.32192 417.000
24.34187 347.000
24.36181 427.000
24.38176 420.000
24.40171 421.000
24.42165 380.000
24.44160 389.000
24.46155 396.000
24.48149 402.000
24.50144 423.000
24.52139 372.000
24.54134 426.000
24.56128 394.000
24.58123 375.000
24.60118 368.000
24.62112 399.000
24.64107 393.000
24.66102 354.000
24.68096 391.000
24.70091 427.000
24.72086 396.000
24.74080 375.000
24.76075 377.000
24.78070 429.000
24.80065 375.000
24.82059 419.000
24.84054 409.000
24.86049 397.000
24.88043 420.000
24.90038 418.000
24.92033 417.000
24.94027 412.000
24.96022 394.000
24.98017 406.000
25.00012 423.000
25.02006 417.000
25.04001 392.000
25.05996 419.000
25.07990 420.000
25.09985 409.000
25.11980 394.000
25.13974 402.000
25.15969 391.000
25.17964 461.000
25.19958 395.000
25.21953 433.000
25.23948 424.000
25.25943 396.000
25.27937 393.000
25.29932 376.000
25.31927 389.000
25.33921 395.000
25.35916 379.000
25.37911 388.000
25.39905 432.000
25.41900 433.000
25.43895 391.000
25.45890 412.000
25.47884 420.000
25.49879 426.000
25.51874 434.000
25.53868 398.000
25.55863 388.000
25.57858 395.000
25.59852 427.000
25.61847 414.000
25.63842 373.000
25.65837 420.000
25.67831 402.000
25.69826 396.000
25.71821 402.000
25.73815 352.000
25.75810 389.000
25.77805 394.000
25.79799 433.000
25.81794 381.000
25.83789 395.000
25.85783 380.000
25.87778 390.000
25.89773 402.000
25.91768 398.000
25.93762 386.000
25.95757 390.000
25.97752 377.000
25.99746 387.000
26.01741 403.000
26.03736 404.000
26.05730 426.000
26.07725 406.000
26.09720 407.000
26.11715 386.000
26.13709 418.000
26.15704 411.000
26.17699 378.000
26.19693 387.000
26.21688 411.000
26.23683 431.000
26.25677 385.000
26.27672 387.000
26.29667 376.000
26.31661 390.000
26.33656 442.000
26.35651 439.000
26.37646 375.000
26.39640 405.000
26.41635 409.000
26.43630 407.000
26.45624 403.000
26.47619 416.000
26.49614 378.000
26.51608 392.000
26.53603 422.000
26.55598 399.000
26.57593 433.000
26.59587 428.000
26.61582 378.000
26.63577 447.000
26.65571 396.000
26.67566 422.000
26.69561 382.000
26.71555 403.000
26.73550 415.000
26.75545 424.000
26.77539 438.000
26.79534 443.000
26.81529 408.000
26.83524 424.000
26.85518 398.000
26.87513 424.000
26.89508 407.000
26.91502 409.000
26.93497 411.000
26.95492 401.000
26.97486 400.000
26.99481 400.000
27.01476 410.000
27.03471 408.000
27.05465 365.000
27.07460 391.000
27.09455 441.000
27.11449 411.000
27.13444 377.000
27.15439 398.000
27.17433 372.000
27.19428 378.000
27.21423 434.000
27.23417 432.000
27.25412 421.000
27.27407 403.000
27.29402 440.000
27.31396 385.000
27.33391 443.000
27.35386 396.000
27.37380 387.000
27.39375 444.000
27.41370 403.000
27.43364 411.000
27.45359 423.000
27.47354 397.000
27.49349 391.000
27.51343 372.000
27.53338 431.000
27.55333 393.000
27.57327 390.000
27.59322 405.000
27.61317 422.000
27.63311 415.000
27.65306 410.000
27.67301 431.000
27.69296 416.000
27.71290 442.000
27.73285 395.000
27.75280 400.000
27.77274 423.000
27.79269 384.000
27.81264 391.000
27.83258 368.000
27.85253 407.000
27.87248 419.000
27.89242 415.000
27.91237 392.000
27.93232 394.000
27.95227 407.000
27.97221 435.000
27.99216 391.000
28.01211 407.000
28.03205 398.000
28.05200 391.000
28.07195 418.000
28.09189 407.000
28.11184 387.000
28.13179 431.000
28.15174 399.000
28.17168 409.000
28.19163 435.000
28.21158 427.000
28.23152 410.000
28.25147 437.000
28.27142 413.000
28.29136 427.000
28.31131 402.000
28.33126 423.000
28.35120 433.000
28.37115 434.000
28.39110 417.000
28.41105 426.000
28.43099 400.000
28.45094 366.000
28.47089 381.000
28.49083 442.000
28.51078 450.000
28.53073 431.000
28.55067 407.000
28.57062 420.000
28.59057 391.000
28.61052 420.000
28.63046 422.000
28.65041 441.000
28.67036 414.000
28.69030 419.000
28.71025 422.000
28.73020 393.000
28.75014 420.000
28.77009 390.000
28.79004 405.000
28.80998 383.000
28.82993 393.000
28.84988 401.000
28.86983 427.000
28.88977 410.000
28.90972 401.000
28.92967 404.000
28.94961 405.000
28.96956 433.000
28.98951 403.000
29.00945 401.000
29.02940 400.000
29.04935 421.000
29.06930 424.000
29.08924 394.000
29.10919 433.000
29.12914 444.000
29.14908 422.000
29.16903 438.000
29.18898 471.000
29.20892 446.000
29.22887 422.000
29.24882 443.000
29.26877 432.000
29.28871 489.000
29.30866 471.000
29.32861 464.000
29.34855 507.000
29.36850 529.000
29.38845 493.000
29.40839 479.000
29.42834 443.000
29.44829 478.000
29.46823 462.000
29.48818 410.000
29.50813 439.000
29.52808 441.000
29.54802 462.000
29.56797 448.000
29.58792 430.000
29.60786 447.000
29.62781 427.000
29.64776 438.000
29.66770 383.000
29.68765 438.000
29.70760 384.000
29.72755 468.000
29.74749 418.000
29.76744 465.000
29.78739 448.000
29.80733 404.000
29.82728 408.000
29.84723 405.000
29.86717 450.000
29.88712 442.000
29.90707 467.000
29.92701 437.000
29.94696 446.000
29.96691 432.000
29.98686 434.000
30.00680 470.000
30.02675 450.000
30.04670 454.000
30.06664 447.000
30.08659 414.000
30.10654 437.000
30.12648 420.000
30.14643 403.000
30.16638 429.000
30.18633 437.000
30.20627 423.000
30.22622 418.000
30.24617 447.000
30.26611 413.000
30.28606 423.000
30.30601 449.000
30.32595 433.000
30.34590 428.000
30.36585 431.000
30.38579 444.000
30.40574 405.000
30.42569 409.000
30.44564 408.000
30.46558 419.000
30.48553 422.000
30.50548 424.000
30.52542 434.000
30.54537 456.000
30.56532 425.000
30.58526 430.000
30.60521 413.000
30.62516 421.000
30.64511 447.000
30.66505 394.000
30.68500 390.000
30.70495 452.000
30.72489 448.000
30.74484 416.000
30.76479 413.000
30.78473 441.000
30.80468 403.000
30.82463 400.000
30.84458 406.000
30.86452 405.000
30.88447 404.000
30.90442 373.000
30.92436 417.000
30.94431 405.000
30.96426 433.000
30.98420 410.000
31.00415 405.000
31.02410 390.000
31.04404 371.000
31.06399 420.000
31.08394 434.000
31.10389 414.000
31.12383 411.000
31.14378 411.000
31.16373 450.000
31.18367 417.000
31.20362 400.000
31.22357 423.000
31.24351 391.000
31.26346 422.000
31.28341 383.000
31.30336 449.000
31.32330 423.000
31.34325 415.000
31.36320 405.000
31.38314 454.000
31.40309 420.000
31.42304 397.000
31.44298 397.000
31.46293 406.000
31.48288 445.000
31.50282 416.000
31.52277 411.000
31.54272 421.000
31.56267 427.000
31.58261 457.000
31.60256 410.000
31.62251 405.000
31.64245 450.000
31.66240 441.000
31.68235 438.000
31.70229 454.000
31.72224 395.000
31.74219 461.000
31.76214 481.000
31.78208 536.000
31.80203 456.000
31.82198 547.000
31.84192 537.000
31.86187 582.000
31.88182 606.000
31.90176 568.000
31.92171 591.000
31.94166 595.000
31.96160 537.000
31.98155 555.000
32.00150 480.000
32.02145 502.000
32.04139 494.000
32.06134 452.000
32.08129 465.000
32.10123 442.000
32.12118 419.000
32.14113 466.000
32.16107 438.000
32.18102 432.000
32.20097 418.000
32.22092 464.000
32.24086 483.000
32.26081 488.000
32.28076 429.000
32.30070 420.000
32.32065 478.000
32.34060 464.000
32.36054 497.000
32.38049 528.000
32.40044 482.000
32.42039 502.000
32.44033 548.000
32.46028 546.000
32.48023 627.000
32.50017 681.000
32.52012 762.000
32.54007 734.000
32.56001 737.000
32.57996 741.000
32.59991 711.000
32.61985 686.000
32.63980 623.000
32.65975 579.000
32.67970 533.000
32.69964 500.000
32.71959 473.000
32.73954 485.000
32.75948 451.000
32.77943 440.000
32.79938 383.000
32.81932 459.000
32.83927 427.000
32.85922 449.000
32.87917 401.000
32.89911 387.000
32.91906 428.000
32.93901 449.000
32.95895 436.000
32.97890 435.000
32.99885 456.000
33.01879 419.000
33.03874 418.000
33.05869 402.000
33.07863 417.000
33.09858 437.000
33.11853 435.000
33.13848 450.000
33.15842 416.000
33.17837 417.000
33.19832 433.000
33.21826 393.000
33.23821 430.000
33.25816 409.000
33.27810 393.000
33.29805 441.000
33.31800 404.000
33.33795 435.000
33.35789 416.000
33.37784 414.000
33.39779 446.000
33.41773 407.000
33.43768 446.000
33.45763 406.000
33.47757 412.000
33.49752 426.000
33.51747 474.000
33.53741 431.000
33.55736 427.000
33.57731 456.000
33.59726 441.000
33.61720 444.000
33.63715 443.000
33.65710 513.000
33.67704 402.000
33.69699 455.000
33.71694 491.000
33.73688 473.000
33.75683 475.000
33.77678 510.000
33.79673 474.000
33.81667 475.000
33.83662 474.000
33.85657 446.000
33.87651 469.000
33.89646 418.000
33.91641 437.000
33.93635 457.000
33.95630 488.000
33.97625 434.000
33.99620 478.000
34.01614 465.000
34.03609 463.000
34.05604 462.000
34.07598 457.000
34.09593 455.000
34.11588 458.000
34.13582 475.000
34.15577 465.000
34.17572 504.000
34.19566 520.000
34.21561 471.000
34.23556 566.000
34.25551 574.000
34.27545 531.000
34.29540 571.000
34.31535 534.000
34.33529 626.000
34.35524 633.000
34.37519 642.000
34.39513 666.000
34.41508 660.000
34.43503 649.000
34.45498 715.000
34.47492 675.000
34.49487 696.000
34.51482 660.000
34.53476 640.000
34.55471 607.000
34.57466 684.000
34.59460 617.000
34.61455 607.000
34.63450 607.000
34.65444 615.000
34.67439 602.000
34.69434 652.000
34.71429 570.000
34.73423 575.000
34.75418 583.000
34.77413 615.000
34.79407 620.000
34.81402 600.000
34.83397 618.000
34.85391 583.000
34.87386 596.000
34.89381 571.000
34.91376 572.000
34.93370 605.000
34.95365 581.000
34.97360 560.000
34.99354 578.000
35.01349 578.000
35.03344 602.000
35.05338 593.000
35.07333 555.000
35.09328 602.000
35.11322 624.000
35.13317 646.000
35.15312 583.000
35.17307 695.000
35.19301 727.000
35.21296 761.000
35.23291 812.000
35.25285 832.000
35.27280 928.000
35.29275 988.000
35.31269 1070.000
35.33264 1178.000
35.35259 1314.000
35.37254 1553.000
35.39248 1809.000
35.41243 2055.000
35.43238 2434.000
35.45232 2820.000
35.47227 3168.000
35.49222 3594.000
35.51216 4010.000
35.53211 3975.000
35.55206 4245.000
35.57201 4201.000
35.59195 4343.000
35.61190 4098.000
35.63185 3637.000
35.65179 3024.000
35.67174 2624.000
35.69169 2199.000
35.71163 1958.000
35.73158 1496.000
35.75153 1204.000
35.77147 1013.000
35.79142 840.000
35.81137 790.000
35.83132 670.000
35.85126 665.000
35.87121 592.000
35.89116 571.000
35.91110 565.000
35.93105 569.000
35.95100 557.000
35.97094 541.000
35.99089 559.000
36.01084 526.000
36.03079 487.000
36.05073 511.000
36.07068 528.000
36.09063 505.000
36.11057 470.000
36.13052 477.000
36.15047 459.000
36.17041 509.000
36.19036 472.000
36.21031 484.000
36.23025 467.000
36.25020 443.000
36.27015 483.000
36.29010 497.000
36.31004 467.000
36.32999 499.000
36.34994 478.000
36.36988 492.000
36.38983 493.000
36.40978 493.000
36.42972 460.000
36.44967 478.000
36.46962 467.000
36.48957 454.000
36.50951 491.000
36.52946 443.000
36.54941 445.000
36.56935 469.000
36.58930 504.000
36.60925 447.000
36.62919 477.000
36.64914 486.000
36.66909 476.000
36.68903 487.000
36.70898 452.000
36.72893 485.000
36.74888 464.000
36.76882 485.000
36.78877 495.000
36.80872 530.000
36.82866 514.000
36.84861 513.000
36.86856 475.000
36.88850 515.000
36.90845 464.000
36.92840 508.000
36.94835 486.000
36.96829 503.000
36.98824 490.000
37.00819 486.000
37.02813 539.000
37.04808 520.000
37.06803 520.000
37.08797 483.000
37.10792 528.000
37.12787 490.000
37.14781 474.000
37.16776 470.000
37.18771 504.000
37.20766 474.000
37.22760 537.000
37.24755 506.000
37.26750 484.000
37.28744 442.000
37.30739 477.000
37.32734 483.000
37.34728 438.000
37.36723 477.000
37.38718 445.000
37.40713 451.000
37.42707 422.000
37.44702 442.000
37.46697 438.000
37.48691 455.000
37.50686 435.000
37.52681 495.000
37.54675 434.000
37.56670 439.000
37.58665 415.000
37.60660 466.000
37.62654 466.000
37.64649 427.000
37.66644 433.000
37.68638 445.000
37.70633 459.000
37.72628 451.000
37.74622 435.000
37.76617 462.000
37.78612 432.000
37.80606 449.000
37.82601 441.000
37.84596 433.000
37.86591 469.000
37.88585 437.000
37.90580 429.000
37.92575 481.000
37.94569 470.000
37.96564 468.000
37.98559 481.000
38.00553 497.000
38.02548 472.000
38.04543 488.000
38.06538 510.000
38.08532 502.000
38.10527 529.000
38.12522 495.000
38.14516 532.000
38.16511 530.000
38.18506 466.000
38.20500 553.000
38.22495 555.000
38.24490 516.000
38.26484 551.000
38.28479 525.000
38.30474 591.000
38.32469 538.000
38.34463 627.000
38.36458 642.000
38.38453 673.000
38.40447 666.000
38.42442 714.000
38.44437 787.000
38.46431 770.000
38.48426 759.000
38.50421 831.000
38.52416 918.000
38.54410 1015.000
38.56405 1135.000
38.58400 1210.000
38.60394 1435.000
38.62389 1567.000
38.64384 1908.000
38.66378 2184.000
38.68373 2669.000
38.70368 3020.000
38.72362 3297.000
38.74357 3888.000
38.76352 3969.000
38.78347 4128.000
38.80341 3980.000
38.82336 3754.000
38.84331 3586.000
38.86325 3365.000
38.88320 3127.000
38.90315 2906.000
38.92309 2458.000
38.94304 2325.000
38.96299 2084.000
38.98294 1768.000
39.00288 1625.000
39.02283 1445.000
39.04278 1300.000
39.06272 1236.000
39.08267 1074.000
39.10262 965.000
39.12256 901.000
39.14251 887.000
39.16246 825.000
39.18241 795.000
39.20235 721.000
39.22230 740.000
39.24225 730.000
39.26219 760.000
39.28214 718.000
39.30209 711.000
39.32203 680.000
39.34198 686.000
39.36193 650.000
39.38187 629.000
39.40182 620.000
39.42177 577.000
39.44172 554.000
39.46166 550.000
39.48161 571.000
39.50156 526.000
39.52150 476.000
39.54145 457.000
39.56140 507.000
39.58134 472.000
39.60129 465.000
39.62124 457.000
39.64119 444.000
39.66113 453.000
39.68108 473.000
39.70103 449.000
39.72097 448.000
39.74092 444.000
39.76087 469.000
39.78081 472.000
39.80076 462.000
39.82071 453.000
39.84065 430.000
39.86060 437.000
39.88055 434.000
39.90050 461.000
39.92044 430.000
39.94039 459.000
39.96034 429.000
39.98028 444.000
40.00023 400.000
40.02018 465.000
40.04012 443.000
40.06007 426.000
40.08002 442.000
40.09997 458.000
40.11991 403.000
40.13986 438.000
40.15981 447.000
40.17975 419.000
40.19970 390.000
40.21965 460.000
40.23959 433.000
40.25954 436.000
40.27949 419.000
40.29943 430.000
40.31938 451.000
40.33933 441.000
40.35928 453.000
40.37922 441.000
40.39917 444.000
40.41912 384.000
40.43906 422.000
40.45901 428.000
40.47896 466.000
40.49890 417.000
40.51885 435.000
40.53880 415.000
40.55875 425.000
40.57869 414.000
40.59864 454.000
40.61859 432.000
40.63853 437.000
40.65848 430.000
40.67843 437.000
40.69837 463.000
40.71832 440.000
40.73827 429.000
40.75822 440.000
40.77816 440.000
40.79811 428.000
40.81806 434.000
40.83800 436.000
40.85795 426.000
40.87790 459.000
40.89784 418.000
40.91779 434.000
40.93774 425.000
40.95768 412.000
40.97763 475.000
40.99758 451.000
41.01753 409.000
41.03747 419.000
41.05742 406.000
41.07737 445.000
41.09731 443.000
41.11726 428.000
41.13721 425.000
41.15715 427.000
41.17710 409.000
41.19705 447.000
41.21700 456.000
41.23694 402.000
41.25689 444.000
41.27684 483.000
41.29678 439.000
41.31673 418.000
41.33668 459.000
41.35662 461.000
41.37657 485.000
41.39652 498.000
41.41646 511.000
41.43641 549.000
41.45636 525.000
41.47631 583.000
41.49625 567.000
41.51620 563.000
41.53615 551.000
41.55609 647.000
41.57604 536.000
41.59599 518.000
41.61593 510.000
41.63588 497.000
41.65583 484.000
41.67578 498.000
41.69572 516.000
41.71567 461.000
41.73562 431.000
41.75556 432.000
41.77551 433.000
41.79546 446.000
41.81540 447.000
41.83535 433.000
41.85530 446.000
41.87524 418.000
41.89519 429.000
41.91514 407.000
41.93509 429.000
41.95503 438.000
41.97498 429.000
41.99493 455.000
42.01487 418.000
42.03482 456.000
42.05477 427.000
42.07471 405.000
42.09466 422.000
42.11461 407.000
42.13456 407.000
42.15450 456.000
42.17445 412.000
42.19440 433.000
42.21434 425.000
42.23429 442.000
42.25424 432.000
42.27418 432.000
42.29413 436.000
42.31408 423.000
42.33403 427.000
42.35397 458.000
42.37392 404.000
42.39387 428.000
42.41381 407.000
42.43376 412.000
42.45371 422.000
42.47365 431.000
42.49360 424.000
42.51355 434.000
42.53349 443.000
42.55344 440.000
42.57339 443.000
42.59334 436.000
42.61328 412.000
42.63323 423.000
42.65318 443.000
42.67312 417.000
42.69307 456.000
42.71302 423.000
42.73296 412.000
42.75291 463.000
42.77286 407.000
42.79281 428.000
42.81275 457.000
42.83270 462.000
42.85265 470.000
42.87259 467.000
42.89254 446.000
42.91249 499.000
42.93243 502.000
42.95238 496.000
42.97233 476.000
42.99227 454.000
43.01222 464.000
43.03217 496.000
43.05212 515.000
43.07206 513.000
43.09201 494.000
43.11196 480.000
43.13190 499.000
43.15185 548.000
43.17180 542.000
43.19174 514.000
43.21169 484.000
43.23164 525.000
43.25159 549.000
43.27153 533.000
43.29148 474.000
43.31143 530.000
43.33137 512.000
43.35132 522.000
43.37127 510.000
43.39121 493.000
43.41116 508.000
43.43111 499.000
43.45105 465.000
43.47100 459.000
43.49095 455.000
43.51090 472.000
43.53084 450.000
43.55079 459.000
43.57074 495.000
43.59068 436.000
43.61063 459.000
43.63058 474.000
43.65052 439.000
43.67047 448.000
43.69042 434.000
43.71037 410.000
43.73031 432.000
43.75026 416.000
43.77021 418.000
43.79015 461.000
43.81010 453.000
43.83005 419.000
43.84999 433.000
43.86994 432.000
43.88989 444.000
43.90984 417.000
43.92978 432.000
43.94973 457.000
43.96968 425.000
43.98962 438.000
44.00957 396.000
44.02952 407.000
44.04946 379.000
44.06941 399.000
44.08936 404.000
44.10930 450.000
44.12925 466.000
44.14920 397.000
44.16915 403.000
44.18909 437.000
44.20904 419.000
44.22899 433.000
44.24893 443.000
44.26888 430.000
44.28883 408.000
44.30877 378.000
44.32872 401.000
44.34867 428.000
44.36862 440.000
44.38856 418.000
44.40851 401.000
44.42846 424.000
44.44840 474.000
44.46835 441.000
44.48830 409.000
44.50824 436.000
44.52819 413.000
44.54814 465.000
44.56808 420.000
44.58803 445.000
44.60798 458.000
44.62793 505.000
44.64787 439.000
44.66782 482.000
44.68777 442.000
44.70771 448.000
44.72766 504.000
44.74761 484.000
44.76755 483.000
44.78750 490.000
44.80745 459.000
44.82740 427.000
44.84734 451.000
44.86729 446.000
44.88724 413.000
44.90718 458.000
44.92713 460.000
44.94708 436.000
44.96702 398.000
44.98697 417.000
45.00692 426.000
45.02686 440.000
45.04681 459.000
45.06676 435.000
45.08671 422.000
45.10665 449.000
45.12660 428.000
45.14655 443.000
45.16649 407.000
45.18644 467.000
45.20639 413.000
45.22633 457.000
45.24628 411.000
45.26623 412.000
45.28618 423.000
45.30612 403.000
45.32607 413.000
45.34602 418.000
45.36596 451.000
45.38591 421.000
45.40586 415.000
45.42580 426.000
45.44575 404.000
45.46570 432.000
45.48565 418.000
45.50559 434.000
45.52554 405.000
45.54549 425.000
45.56543 437.000
45.58538 424.000
45.60533 442.000
45.62527 402.000
45.64522 419.000
45.66517 426.000
45.68511 395.000
45.70506 422.000
45.72501 436.000
45.74496 407.000
45.76490 452.000
45.78485 464.000
45.80480 428.000
45.82474 432.000
45.84469 437.000
45.86464 447.000
45.88458 417.000
45.90453 469.000
45.92448 444.000
45.94443 443.000
45.96437 417.000
45.98432 446.000
46.00427 447.000
46.02421 444.000
46.04416 430.000
46.06411 447.000
46.08405 462.000
46.10400 444.000
46.12395 438.000
46.14389 443.000
46.16384 449.000
46.18379 491.000
46.20374 478.000
46.22368 491.000
46.24363 489.000
46.26358 500.000
46.28352 462.000
46.30347 503.000
46.32342 506.000
46.34336 473.000
46.36331 451.000
46.38326 464.000
46.40321 495.000
46.42315 504.000
46.44310 455.000
46.46305 481.000
46.48299 483.000
46.50294 423.000
46.52289 448.000
46.54283 430.000
46.56278 466.000
46.58273 453.000
46.60267 455.000
46.62262 406.000
46.64257 428.000
46.66252 424.000
46.68246 405.000
46.70241 412.000
46.72236 437.000
46.74230 435.000
46.76225 433.000
46.78220 404.000
46.80214 419.000
46.82209 431.000
46.84204 415.000
46.86199 447.000
46.88193 462.000
46.90188 398.000
46.92183 424.000
46.94177 440.000
46.96172 414.000
46.98167 409.000
47.00161 429.000
47.02156 436.000
47.04151 407.000
47.06146 424.000
47.08140 405.000
47.10135 412.000
47.12130 405.000
47.14124 414.000
47.16119 392.000
47.18114 465.000
47.20108 444.000
47.22103 405.000
47.24098 419.000
47.26092 390.000
47.28087 420.000
47.30082 461.000
47.32077 431.000
47.34071 444.000
47.36066 404.000
47.38061 419.000
47.40055 412.000
47.42050 442.000
47.44045 390.000
47.46039 390.000
47.48034 392.000
47.50029 420.000
47.52024 412.000
47.54018 432.000
47.56013 474.000
47.58008 431.000
47.60002 465.000
47.61997 445.000
47.63992 449.000
47.65986 430.000
47.67981 459.000
47.69976 469.000
47.71970 424.000
47.73965 461.000
47.75960 485.000
47.77955 444.000
47.79949 460.000
47.81944 417.000
47.83939 452.000
47.85933 425.000
47.87928 434.000
47.89923 466.000
47.91917 492.000
47.93912 459.000
47.95907 434.000
47.97902 474.000
47.99896 453.000
48.01891 497.000
48.03886 474.000
48.05880 502.000
48.07875 442.000
48.09870 451.000
48.11864 506.000
48.13859 489.000
48.15854 481.000
48.17848 548.000
48.19843 492.000
48.21838 526.000
48.23833 494.000
48.25827 513.000
48.27822 558.000
48.29817 594.000
48.31811 580.000
48.33806 705.000
48.35801 703.000
48.37795 715.000
48.39790 803.000
48.41785 839.000
48.43780 829.000
48.45774 847.000
48.47769 914.000
48.49764 878.000
48.51758 925.000
48.53753 973.000
48.55748 1037.000
48.57742 1090.000
48.59737 1183.000
48.61732 1263.000
48.63726 1429.000
48.65721 1494.000
48.67716 1503.000
48.69711 1506.000
48.71705 1551.000
48.73700 1611.000
48.75695 1480.000
48.77689 1337.000
48.79684 1285.000
48.81679 1126.000
48.83673 1103.000
48.85668 990.000
48.87663 935.000
48.89658 877.000
48.91652 725.000
48.93647 639.000
48.95642 640.000
48.97636 609.000
48.99631 553.000
49.01626 508.000
49.03620 515.000
49.05615 490.000
49.07610 462.000
49.09605 505.000
49.11599 479.000
49.13594 442.000
49.15589 488.000
49.17583 444.000
49.19578 433.000
49.21573 447.000
49.23567 442.000
49.25562 508.000
49.27557 438.000
49.29551 438.000
49.31546 496.000
49.33541 455.000
49.35536 479.000
49.37530 483.000
49.39525 469.000
49.41520 457.000
49.43514 459.000
49.45509 466.000
49.47504 475.000
49.49498 481.000
49.51493 433.000
49.53488 489.000
49.55483 451.000
49.57477 483.000
49.59472 489.000
49.61467 490.000
49.63461 459.000
49.65456 485.000
49.67451 485.000
49.69445 443.000
49.71440 453.000
49.73435 484.000
49.75429 436.000
49.77424 479.000
49.79419 426.000
49.81414 447.000
49.83408 438.000
49.85403 468.000
49.87398 424.000
49.89392 450.000
49.91387 462.000
49.93382 462.000
49.95376 436.000
49.97371 450.000
49.99366 421.000
50.01361 432.000
50.03355 393.000
50.05350 456.000
50.07345 463.000
50.09339 437.000
50.11334 431.000
50.13329 423.000
50.15323 440.000
50.17318 449.000
50.19313 438.000
50.21307 428.000
50.23302 442.000
50.25297 434.000
50.27292 438.000
50.29286 423.000
50.31281 434.000
50.33276 469.000
50.35270 459.000
50.37265 421.000
50.39260 415.000
50.41254 466.000
50.43249 438.000
50.45244 424.000
50.47239 403.000
50.49233 468.000
50.51228 410.000
50.53223 450.000
50.55217 417.000
50.57212 443.000
50.59207 464.000
50.61201 444.000
50.63196 424.000
50.65191 411.000
50.67186 416.000
50.69180 470.000
50.71175 420.000
50.73170 436.000
50.75164 420.000
50.77159 426.000
50.79154 458.000
50.81148 443.000
50.83143 440.000
50.85138 396.000
50.87132 434.000
50.89127 439.000
50.91122 405.000
50.93117 409.000
50.95111 432.000
50.97106 410.000
50.99101 430.000
51.01095 387.000
51.03090 404.000
51.05085 424.000
51.07079 437.000
51.09074 359.000
51.11069 442.000
51.13064 452.000
51.15058 450.000
51.17053 407.000
51.19048 417.000
51.21042 424.000
51.23037 429.000
51.25032 430.000
51.27026 420.000
51.29021 471.000
51.31016 431.000
51.33010 437.000
51.35005 478.000
51.37000 451.000
51.38995 466.000
51.40989 477.000
51.42984 475.000
51.44979 448.000
51.46973 468.000
51.48968 476.000
51.50963 422.000
51.52957 443.000
51.54952 460.000
51.56947 396.000
51.58942 438.000
51.60936 436.000
51.62931 476.000
51.64926 407.000
51.66920 452.000
51.68915 441.000
51.70910 426.000
51.72904 465.000
51.74899 428.000
51.76894 409.000
51.78888 452.000
51.80883 445.000
51.82878 431.000
51.84873 449.000
51.86867 425.000
51.88862 493.000
51.90857 442.000
51.92851 426.000
51.94846 470.000
51.96841 487.000
51.98835 449.000
52.00830 437.000
52.02825 457.000
52.04820 426.000
52.06814 450.000
52.08809 437.000
52.10804 426.000
52.12798 448.000
52.14793 432.000
52.16788 453.000
52.18782 461.000
52.20777 415.000
52.22772 426.000
52.24767 439.000
52.26761 486.000
52.28756 429.000
52.30751 416.000
52.32745 416.000
52.34740 477.000
52.36735 485.000
52.38729 448.000
52.40724 453.000
52.42719 439.000
52.44713 453.000
52.46708 461.000
52.48703 429.000
52.50698 446.000
52.52692 430.000
52.54687 432.000
52.56682 436.000
52.58676 431.000
52.60671 477.000
52.62666 431.000
52.64660 430.000
52.66655 469.000
52.68650 415.000
52.70645 450.000
52.72639 450.000
52.74634 410.000
52.76629 449.000
52.78623 429.000
52.80618 474.000
52.82613 449.000
52.84607 447.000
52.86602 462.000
52.88597 428.000
52.90591 413.000
52.92586 408.000
52.94581 474.000
52.96576 451.000
52.98570 405.000
53.00565 451.000
53.02560 464.000
53.04554 438.000
53.06549 412.000
53.08544 425.000
53.10538 402.000
53.12533 441.000
53.14528 415.000
53.16523 470.000
53.18517 456.000
53.20512 487.000
53.22507 470.000
53.24501 489.000
53.26496 495.000
53.28491 467.000
53.30485 511.000
53.32480 513.000
53.34475 515.000
53.36469 504.000
53.38464 563.000
53.40459 551.000
53.42454 577.000
53.44448 560.000
53.46443 614.000
53.48438 586.000
53.50432 635.000
53.52427 678.000
53.54422 645.000
53.56416 674.000
53.58411 699.000
53.60406 663.000
53.62401 667.000
53.64395 686.000
53.66390 638.000
53.68385 638.000
53.70379 632.000
53.72374 628.000
53.74369 558.000
53.76363 588.000
53.78358 561.000
53.80353 514.000
53.82348 520.000
53.84342 512.000
53.86337 480.000
53.88332 463.000
53.90326 513.000
53.92321 449.000
53.94316 463.000
53.96310 430.000
53.98305 479.000
54.00300 467.000
54.02294 456.000
54.04289 431.000
54.06284 437.000
54.08279 430.000
54.10273 442.000
54.12268 433.000
54.14263 434.000
54.16257 454.000
54.18252 447.000
54.20247 457.000
54.22241 439.000
54.24236 465.000
54.26231 435.000
54.28226 470.000
54.30220 438.000
54.32215 451.000
54.34210 424.000
54.36204 456.000
54.38199 453.000
54.40194 435.000
54.42188 448.000
54.44183 438.000
54.46178 444.000
54.48172 437.000
54.50167 417.000
54.52162 379.000
54.54157 398.000
54.56151 489.000
54.58146 445.000
54.60141 413.000
54.62135 419.000
54.64130 449.000
54.66125 452.000
54.68119 432.000
54.70114 437.000
54.72109 431.000
54.74104 430.000
54.76098 420.000
54.78093 459.000
54.80088 404.000
54.82082 467.000
54.84077 422.000
54.86072 414.000
54.88066 435.000
54.90061 449.000
54.92056 417.000
54.94050 409.000
54.96045 456.000
54.98040 432.000
55.00035 411.000
55.02029 432.000
55.04024 481.000
55.06019 416.000
55.08013 406.000
55.10008 449.000
55.12003 439.000
55.13997 431.000
55.15992 412.000
55.17987 432.000
55.19982 422.000
55.21976 440.000
55.23971 417.000
55.25966 473.000
55.27960 462.000
55.29955 429.000
55.31950 386.000
55.33944 448.000
55.35939 418.000
55.37934 451.000
55.39929 440.000
55.41923 446.000
55.43918 425.000
55.45913 418.000
55.47907 415.000
55.49902 411.000
55.51897 398.000
55.53891 436.000
55.55886 464.000
55.57881 450.000
55.59875 400.000
55.61870 439.000
55.63865 405.000
55.65860 437.000
55.67854 419.000
55.69849 439.000
55.71844 380.000
55.73838 419.000
55.75833 412.000
55.77828 394.000
55.79822 423.000
55.81817 429.000
55.83812 438.000
55.85807 432.000
55.87801 440.000
55.89796 412.000
55.91791 419.000
55.93785 406.000
55.95780 427.000
55.97775 390.000
55.99769 428.000
56.01764 431.000
56.03759 458.000
56.05753 438.000
56.07748 394.000
56.09743 437.000
56.11738 458.000
56.13732 462.000
56.15727 441.000
56.17722 436.000
56.19716 415.000
56.21711 406.000
56.23706 407.000
56.25700 451.000
56.27695 471.000
56.29690 409.000
56.31685 435.000
56.33679 426.000
56.35674 464.000
56.37669 412.000
56.39663 417.000
56.41658 450.000
56.43653 414.000
56.45647 416.000
56.47642 459.000
56.49637 456.000
56.51631 448.000
56.53626 447.000
56.55621 445.000
56.57616 473.000
56.59610 474.000
56.61605 464.000
56.63600 482.000
56.65594 482.000
56.67589 485.000
56.69584 470.000
56.71578 483.000
56.73573 470.000
56.75568 484.000
56.77563 460.000
56.79557 491.000
56.81552 436.000
56.83547 508.000
56.85541 475.000
56.87536 481.000
56.89531 457.000
56.91525 464.000
56.93520 479.000
56.95515 418.000
56.97510 472.000
56.99504 480.000
57.01499 463.000
57.03494 440.000
57.05488 446.000
57.07483 463.000
57.09478 446.000
57.11472 495.000
57.13467 441.000
57.15462 472.000
57.17456 453.000
57.19451 461.000
57.21446 460.000
57.23441 467.000
57.25435 445.000
57.27430 459.000
57.29425 445.000
57.31419 433.000
57.33414 505.000
57.35409 425.000
57.37403 453.000
57.39398 473.000
57.41393 458.000
57.43388 445.000
57.45382 467.000
57.47377 420.000
57.49372 428.000
57.51366 409.000
57.53361 438.000
57.55356 472.000
57.57350 459.000
57.59345 438.000
57.61340 423.000
57.63334 425.000
57.65329 422.000
57.67324 445.000
57.69319 445.000
57.71313 465.000
57.73308 459.000
57.75303 410.000
57.77297 466.000
57.79292 456.000
57.81287 428.000
57.83281 434.000
57.85276 445.000
57.87271 432.000
57.89266 437.000
57.91260 487.000
57.93255 463.000
57.95250 478.000
57.97244 485.000
57.99239 453.000
58.01234 495.000
58.03228 470.000
58.05223 505.000
58.07218 506.000
58.09212 539.000
58.11207 575.000
58.13202 536.000
58.15197 571.000
58.17191 612.000
58.19186 674.000
58.21181 672.000
58.23175 673.000
58.25170 726.000
58.27165 821.000
58.29159 818.000
58.31154 850.000
58.33149 862.000
58.35144 807.000
58.37138 790.000
58.39133 813.000
58.41128 735.000
58.43122 767.000
58.45117 701.000
58.47112 675.000
58.49106 648.000
58.51101 587.000
58.53096 581.000
58.55090 538.000
58.57085 545.000
58.59080 512.000
58.61075 513.000
58.63069 503.000
58.65064 479.000
58.67059 479.000
58.69053 473.000
58.71048 464.000
58.73043 439.000
58.75037 446.000
58.77032 448.000
58.79027 423.000
58.81022 408.000
58.83016 421.000
58.85011 427.000
58.87006 453.000
58.89000 433.000
58.90995 458.000
58.92990 453.000
58.94984 436.000
58.96979 425.000
58.98974 413.000
59.00969 432.000
59.02963 470.000
59.04958 441.000
59.06953 449.000
59.08947 443.000
59.10942 435.000
59.12937 459.000
59.14931 441.000
59.16926 438.000
59.18921 458.000
59.20915 431.000
59.22910 437.000
59.24905 494.000
59.26900 448.000
59.28894 427.000
59.30889 440.000
59.32884 404.000
59.34878 488.000
59.36873 427.000
59.38868 441.000
59.40862 473.000
59.42857 470.000
59.44852 418.000
59.46847 461.000
59.48841 417.000
59.50836 428.000
59.52831 401.000
59.54825 410.000
59.56820 433.000
59.58815 400.000
59.60809 485.000
59.62804 474.000
59.64799 412.000
59.66793 420.000
59.68788 450.000
59.70783 420.000
59.72778 431.000
59.74772 401.000
59.76767 419.000
59.78762 425.000
59.80756 435.000
59.82751 454.000
59.84746 428.000
59.86740 421.000
59.88735 399.000
59.90730 437.000
59.92725 432.000
59.94719 408.000
59.96714 427.000
59.98709 446.000
60.00703 445.000
60.02698 435.000
60.04693 452.000
60.06687 401.000
60.08682 435.000
60.10677 412.000
60.12671 418.000
60.14666 467.000
60.16661 428.000
60.18656 462.000
60.20650 435.000
60.22645 452.000
60.24640 421.000
60.26634 437.000
60.28629 469.000
60.30624 454.000
60.32618 427.000
60.34613 442.000
60.36608 450.000
60.38603 435.000
60.40597 443.000
60.42592 460.000
60.44587 424.000
60.46581 432.000
60.48576 402.000
60.50571 415.000
60.52565 434.000
60.54560 427.000
60.56555 466.000
60.58550 432.000
60.60544 423.000
60.62539 416.000
60.64534 443.000
60.66528 445.000
60.68523 444.000
60.70518 442.000
60.72512 442.000
60.74507 429.000
60.76502 428.000
60.78496 472.000
60.80491 399.000
60.82486 429.000
60.84481 427.000
60.86475 421.000
60.88470 411.000
60.90465 461.000
60.92459 423.000
60.94454 463.000
60.96449 492.000
60.98443 452.000
61.00438 479.000
61.02433 453.000
61.04428 472.000
61.06422 481.000
61.08417 500.000
61.10412 492.000
61.12406 488.000
61.14401 466.000
61.16396 493.000
61.18390 477.000
61.20385 483.000
61.22380 518.000
61.24374 495.000
61.26369 526.000
61.28364 541.000
61.30359 545.000
61.32353 572.000
61.34348 581.000
61.36343 616.000
61.38337 674.000
61.40332 677.000
61.42327 710.000
61.44321 831.000
61.46316 934.000
61.48311 937.000
61.50306 1055.000
61.52300 1142.000
61.54295 1200.000
61.56290 1140.000
61.58284 1158.000
61.60279 1112.000
61.62274 1073.000
61.64268 1045.000
61.66263 1058.000
61.68258 1028.000
61.70252 982.000
61.72247 991.000
61.74242 962.000
61.76237 859.000
61.78231 808.000
61.80226 784.000
61.82221 703.000
61.84215 674.000
61.86210 639.000
61.88205 640.000
61.90199 645.000
61.92194 579.000
61.94189 579.000
61.96184 554.000
61.98178 560.000
62.00173 514.000
62.02168 576.000
62.04162 516.000
62.06157 485.000
62.08152 551.000
62.10146 477.000
62.12141 489.000
62.14136 476.000
62.16131 523.000
62.18125 518.000
62.20120 481.000
62.22115 530.000
62.24109 487.000
62.26104 501.000
62.28099 485.000
62.30093 486.000
62.32088 453.000
62.34083 496.000
62.36077 485.000
62.38072 460.000
62.40067 487.000
62.42062 519.000
62.44056 514.000
62.46051 496.000
62.48046 479.000
62.50040 478.000
62.52035 487.000
62.54030 461.000
62.56024 436.000
62.58019 470.000
62.60014 467.000
62.62009 426.000
62.64003 411.000
62.65998 455.000
62.67993 450.000
62.69987 487.000
62.71982 467.000
62.73977 447.000
62.75971 432.000
62.77966 453.000
62.79961 417.000
62.81955 422.000
62.83950 466.000
62.85945 464.000
62.87940 476.000
62.89934 464.000
62.91929 472.000
62.93924 472.000
62.95918 465.000
62.97913 490.000
62.99908 463.000
63.01902 446.000
63.03897 412.000
63.05892 470.000
63.07887 474.000
63.09881 474.000
63.11876 479.000
63.13871 489.000
63.15865 513.000
63.17860 475.000
63.19855 502.000
63.21849 457.000
63.23844 472.000
63.25839 445.000
63.27833 460.000
63.29828 465.000
63.31823 480.000
63.33818 503.000
63.35812 462.000
63.37807 495.000
63.39802 469.000
63.41796 500.000
63.43791 446.000
63.45786 457.000
63.47780 458.000
63.49775 499.000
63.51770 469.000
63.53765 480.000
63.55759 475.000
63.57754 535.000
63.59749 443.000
63.61743 522.000
63.63738 527.000
63.65733 521.000
63.67727 496.000
63.69722 593.000
63.71717 532.000
63.73712 508.000
63.75706 551.000
63.77701 521.000
63.79696 533.000
63.81690 492.000
63.83685 550.000
63.85680 516.000
63.87674 515.000
63.89669 490.000
63.91664 485.000
63.93658 510.000
63.95653 519.000
63.97648 486.000
63.99643 476.000
64.01637 496.000
64.03632 461.000
64.05627 494.000
64.07621 483.000
64.09616 440.000
64.11611 472.000
64.13605 490.000
64.15600 450.000
64.17595 473.000
64.19590 485.000
64.21584 477.000
64.23579 524.000
64.25574 445.000
64.27568 488.000
64.29563 486.000
64.31558 517.000
64.33552 500.000
64.35547 446.000
64.37542 463.000
64.39536 428.000
64.41531 484.000
64.43526 430.000
64.45521 510.000
64.47515 468.000
64.49510 440.000
64.51505 484.000
64.53499 456.000
64.55494 501.000
64.57489 407.000
64.59483 458.000
64.61478 426.000
64.63473 476.000
64.65468 497.000
64.67462 432.000
64.69457 489.000
64.71452 414.000
64.73446 431.000
64.75441 425.000
64.77436 464.000
64.79430 443.000
64.81425 465.000
64.83420 504.000
64.85414 429.000
64.87409 426.000
64.89404 459.000
64.91399 459.000
64.93393 447.000
64.95388 442.000
64.97383 407.000
64.99377 456.000
65.01372 450.000
65.03367 482.000
65.05361 446.000
65.07356 482.000
65.09351 432.000
65.11346 459.000
65.13340 485.000
65.15335 446.000
65.17330 461.000
65.19324 436.000
65.21319 456.000
65.23314 462.000
65.25308 487.000
65.27303 473.000
65.29298 439.000
65.31293 516.000
65.33287 462.000
65.35282 463.000
65.37277 464.000
65.39271 485.000
65.41266 502.000
65.43261 533.000
65.45255 513.000
65.47250 481.000
65.49245 486.000
65.51239 492.000
65.53234 553.000
65.55229 534.000
65.57224 532.000
65.59218 549.000
65.61213 581.000
65.63208 577.000
65.65202 623.000
65.67197 682.000
65.69192 605.000
65.71186 640.000
65.73181 685.000
65.75176 712.000
65.77171 739.000
65.79165 769.000
65.81160 701.000
65.83155 808.000
65.85149 819.000
65.87144 830.000
65.89139 833.000
65.91133 863.000
65.93128 845.000
65.95123 895.000
65.97117 846.000
65.99112 823.000
66.01107 860.000
66.03102 886.000
66.05096 872.000
66.07091 881.000
66.09086 985.000
66.11080 996.000
66.13075 988.000
66.15070 982.000
66.17064 1005.000
66.19059 985.000
66.21054 1083.000
66.23049 1033.000
66.25043 1045.000
66.27038 991.000
66.29033 913.000
66.31027 864.000
66.33022 817.000
66.35017 856.000
66.37011 818.000
66.39006 795.000
66.41001 773.000
66.42995 746.000
66.44990 754.000
66.46985 656.000
66.48980 610.000
66.50974 597.000
66.52969 589.000
66.54964 575.000
66.56958 579.000
66.58953 594.000
66.60948 552.000
66.62942 531.000
66.64937 513.000
66.66932 532.000
66.68927 503.000
66.70921 524.000
66.72916 476.000
66.74911 523.000
66.76905 534.000
66.78900 510.000
66.80895 498.000
66.82889 476.000
66.84884 480.000
66.86879 450.000
66.88874 475.000
66.90868 508.000
66.92863 493.000
66.94858 478.000
66.96852 445.000
66.98847 461.000
67.00842 455.000
67.02836 488.000
67.04831 465.000
67.06826 407.000
67.08820 456.000
67.10815 439.000
67.12810 432.000
67.14805 453.000
67.16799 458.000
67.18794 492.000
67.20789 469.000
67.22783 454.000
67.24778 462.000
67.26773 443.000
67.28767 477.000
67.30762 474.000
67.32757 460.000
67.34752 483.000
67.36746 463.000
67.38741 465.000
67.40736 447.000
67.42730 456.000
67.44725 444.000
67.46720 484.000
67.48714 463.000
67.50709 459.000
67.52704 446.000
67.54698 470.000
67.56693 480.000
67.58688 481.000
67.60683 448.000
67.62677 484.000
67.64672 463.000
67.66667 495.000
67.68661 514.000
67.70656 528.000
67.72651 511.000
67.74645 496.000
67.76640 544.000
67.78635 544.000
67.80630 611.000
67.82624 626.000
67.84619 623.000
67.86614 681.000
67.88608 654.000
67.90603 690.000
67.92598 712.000
67.94592 763.000
67.96587 773.000
67.98582 776.000
68.00576 831.000
68.02571 793.000
68.04566 873.000
68.06561 838.000
68.08555 900.000
68.10550 986.000
68.12545 926.000
68.14539 965.000
68.16534 986.000
68.18529 920.000
68.20523 844.000
68.22518 811.000
68.24513 803.000
68.26508 839.000
68.28502 829.000
68.30497 765.000
68.32492 703.000
68.34486 698.000
68.36481 726.000
68.38476 628.000
68.40470 644.000
68.42465 610.000
68.44460 553.000
68.46455 540.000
68.48449 588.000
68.50444 492.000
68.52439 506.000
68.54433 518.000
68.56428 465.000
68.58423 496.000
68.60417 466.000
68.62412 439.000
68.64407 437.000
68.66401 469.000
68.68396 423.000
68.70391 470.000
68.72386 424.000
68.74380 415.000
68.76375 429.000
68.78370 459.000
68.80364 430.000
68.82359 426.000
68.84354 409.000
68.86348 449.000
68.88343 495.000
68.90338 437.000
68.92333 442.000
68.94327 473.000
68.96322 459.000
68.98317 445.000
69.00311 503.000
69.02306 473.000
69.04301 465.000
69.06295 442.000
69.08290 446.000
69.10285 455.000
69.12279 457.000
69.14274 456.000
69.16269 441.000
69.18264 448.000
69.20258 472.000
69.22253 468.000
69.24248 457.000
69.26242 445.000
69.28237 443.000
69.30232 426.000
69.32226 434.000
69.34221 441.000
69.36216 461.000
69.38211 437.000
69.40205 397.000
69.42200 435.000
69.44195 463.000
69.46189 432.000
69.48184 464.000
69.50179 445.000
69.52173 418.000
69.54168 427.000
69.56163 431.000
69.58157 484.000
69.60152 476.000
69.62147 404.000
69.64142 407.000
69.66136 437.000
69.68131 428.000
69.70126 420.000
69.72120 457.000
69.74115 438.000
69.76110 461.000
69.78104 462.000
69.80099 408.000
69.82094 390.000
69.84089 415.000
69.86083 427.000
69.88078 459.000
69.90073 409.000
69.92067 431.000
69.94062 432.000
69.96057 414.000
69.98051 411.000
70.00046 426.000
70.02041 443.000
70.04035 410.000
70.06030 417.000
70.08025 381.000
70.10020 415.000
70.12014 465.000
70.14009 443.000
70.16004 459.000
70.17998 393.000
70.19993 467.000
70.21988 447.000
70.23982 446.000
70.25977 442.000
70.27972 408.000
70.29967 410.000
70.31961 437.000
70.33956 451.000
70.35951 435.000
70.37945 429.000
70.39940 470.000
70.41935 462.000
70.43929 441.000
70.45924 438.000
70.47919 458.000
70.49914 418.000
70.51908 454.000
70.53903 420.000
70.55898 458.000
70.57892 404.000
70.59887 434.000
70.61882 450.000
70.63876 432.000
70.65871 461.000
70.67866 403.000
70.69860 412.000
70.71855 438.000
70.73850 449.000
70.75845 435.000
70.77839 381.000
70.79834 431.000
70.81829 406.000
70.83823 429.000
70.85818 427.000
70.87813 426.000
70.89807 437.000
70.91802 418.000
70.93797 410.000
70.95792 436.000
70.97786 414.000
70.99781 396.000
71.01776 460.000
71.03770 423.000
71.05765 436.000
71.07760 469.000
71.09754 427.000
71.11749 452.000
71.13744 459.000
71.15738 416.000
71.17733 431.000
71.19728 420.000
71.21723 427.000
71.23717 436.000
71.25712 456.000
71.27707 435.000
71.29701 452.000
71.31696 456.000
71.33691 401.000
71.35685 439.000
71.37680 450.000
71.39675 462.000
71.41670 388.000
71.43664 398.000
71.45659 427.000
71.47654 426.000
71.49648 438.000
71.51643 413.000
71.53638 402.000
71.55632 413.000
71.57627 435.000
71.59622 429.000
71.61616 423.000
71.63611 403.000
71.65606 463.000
71.67601 437.000
71.69595 428.000
71.71590 466.000
71.73585 420.000
71.75579 421.000
71.77574 438.000
71.79569 493.000
71.81563 451.000
71.83558 448.000
71.85553 427.000
71.87548 452.000
71.89542 455.000
71.91537 447.000
71.93532 440.000
71.95526 421.000
71.97521 463.000
71.99516 436.000
72.01510 473.000
72.03505 491.000
72.05500 442.000
72.07495 422.000
72.09489 432.000
72.11484 452.000
72.13479 462.000
72.15473 513.000
72.17468 491.000
72.19463 487.000
72.21457 463.000
72.23452 504.000
72.25447 567.000
72.27441 526.000
72.29436 572.000
72.31431 584.000
72.33426 630.000
72.35420 621.000
72.37415 621.000
72.39410 610.000
72.41404 670.000
72.43399 656.000
72.45394 637.000
72.47388 672.000
72.49383 589.000
72.51378 587.000
72.53373 594.000
72.55367 552.000
72.57362 584.000
72.59357 551.000
72.61351 575.000
72.63346 562.000
72.65341 531.000
72.67335 537.000
72.69330 530.000
72.71325 520.000
72.73319 543.000
72.75314 514.000
72.77309 493.000
72.79304 462.000
72.81298 487.000
72.83293 535.000
72.85288 507.000
72.87282 509.000
72.89277 489.000
72.91272 491.000
72.93266 504.000
72.95261 471.000
72.97256 491.000
72.99251 516.000
73.01245 472.000
73.03240 472.000
73.05235 479.000
73.07229 487.000
73.09224 473.000
73.11219 450.000
73.13213 466.000
73.15208 476.000
73.17203 474.000
73.19197 474.000
73.21192 480.000
73.23187 465.000
73.25182 458.000
73.27176 483.000
73.29171 472.000
73.31166 458.000
73.33160 473.000
73.35155 467.000
73.37150 411.000
73.39144 442.000
73.41139 469.000
73.43134 427.000
73.45129 446.000
73.47123 476.000
73.49118 483.000
73.51113 427.000
73.53107 468.000
73.55102 468.000
73.57097 425.000
73.59091 445.000
73.61086 472.000
73.63081 435.000
73.65076 451.000
73.67070 441.000
73.69065 459.000
73.71060 422.000
73.73054 462.000
73.75049 450.000
73.77044 460.000
73.79038 485.000
73.81033 453.000
73.83028 452.000
73.85022 445.000
73.87017 419.000
73.89012 422.000
73.91007 413.000
73.93001 437.000
73.94996 475.000
73.96991 431.000
73.98985 460.000
74.00980 439.000
74.02975 443.000
74.04969 452.000
74.06964 444.000
74.08959 462.000
74.10954 450.000
74.12948 438.000
74.14943 446.000
74.16938 401.000
74.18932 399.000
74.20927 433.000
74.22922 430.000
74.24916 452.000
74.26911 445.000
74.28906 463.000
74.30900 444.000
74.32895 475.000
74.34890 448.000
74.36885 436.000
74.38879 434.000
74.40874 416.000
74.42869 415.000
74.44863 413.000
74.46858 462.000
74.48853 505.000
74.50847 435.000
74.52842 458.000
74.54837 485.000
74.56832 450.000
74.58826 458.000
74.60821 468.000
74.62816 435.000
74.64810 450.000
74.66805 456.000
74.68800 477.000
74.70794 452.000
74.72789 457.000
74.74784 434.000
74.76778 470.000
74.78773 499.000
74.80768 457.000
74.82763 531.000
74.84757 520.000
74.86752 497.000
74.88747 515.000
74.90741 547.000
74.92736 595.000
74.94731 581.000
74.96725 625.000
74.98720 649.000
75.00715 644.000
75.02710 659.000
75.04704 682.000
75.06699 672.000
75.08694 615.000
75.10688 606.000
75.12683 676.000
75.14678 644.000
75.16672 629.000
75.18667 665.000
75.20662 675.000
75.22657 656.000
75.24651 709.000
75.26646 682.000
75.28641 702.000
75.30635 677.000
75.32630 706.000
75.34625 660.000
75.36619 618.000
75.38614 590.000
75.40609 620.000
75.42603 569.000
75.44598 577.000
75.46593 591.000
75.48588 572.000
75.50582 485.000
75.52577 553.000
75.54572 540.000
75.56566 477.000
75.58561 493.000
75.60556 459.000
75.62550 506.000
75.64545 501.000
75.66540 461.000
75.68535 441.000
75.70529 473.000
75.72524 432.000
75.74519 429.000
75.76513 458.000
75.78508 448.000
75.80503 446.000
75.82497 432.000
75.84492 444.000
75.86487 460.000
75.88481 449.000
75.90476 449.000
75.92471 460.000
75.94466 459.000
75.96460 472.000
75.98455 467.000
76.00450 433.000
76.02444 430.000
76.04439 463.000
76.06434 432.000
76.08428 436.000
76.10423 432.000
76.12418 462.000
76.14413 399.000
76.16407 431.000
76.18402 465.000
76.20397 467.000
76.22391 417.000
76.24386 435.000
76.26381 419.000
76.28375 440.000
76.30370 456.000
76.32365 451.000
76.34359 481.000
76.36354 465.000
76.38349 452.000
76.40344 447.000
76.42338 429.000
76.44333 429.000
76.46328 436.000
76.48322 391.000
76.50317 458.000
76.52312 412.000
76.54306 445.000
76.56301 426.000
76.58296 449.000
76.60291 467.000
76.62285 461.000
76.64280 429.000
76.66275 438.000
76.68269 425.000
76.70264 413.000
76.72259 430.000
76.74253 461.000
76.76248 422.000
76.78243 436.000
76.80238 447.000
76.82232 427.000
76.84227 389.000
76.86222 455.000
76.88216 431.000
76.90211 451.000
76.92206 429.000
76.94200 416.000
76.96195 506.000
76.98190 420.000
77.00184 425.000
77.02179 434.000
77.04174 439.000
77.06169 419.000
77.08163 475.000
77.10158 449.000
77.12153 479.000
77.14147 429.000
77.16142 473.000
77.18137 467.000
77.20131 463.000
77.22126 478.000
77.24121 413.000
77.26116 464.000
77.28110 439.000
77.30105 454.000
77.32100 434.000
77.34094 496.000
77.36089 437.000
77.38084 462.000
77.40078 443.000
77.42073 519.000
77.44068 452.000
77.46062 469.000
77.48057 468.000
77.50052 448.000
77.52047 426.000
77.54041 493.000
77.56036 471.000
77.58031 456.000
77.60025 427.000
77.62020 441.000
77.64015 471.000
77.66009 489.000
77.68004 445.000
77.69999 432.000
77.71994 475.000
77.73988 515.000
77.75983 480.000
77.77978 466.000
77.79972 480.000
77.81967 482.000
77.83962 534.000
77.85956 495.000
77.87951 514.000
77.89946 472.000
77.91940 488.000
77.93935 493.000
77.95930 460.000
77.97925 503.000
77.99919 437.000
78.01914 436.000
78.03909 452.000
78.05903 433.000
78.07898 492.000
78.09893 458.000
78.11887 486.000
78.13882 482.000
78.15877 453.000
78.17872 463.000
78.19866 429.000
78.21861 469.000
78.23856 474.000
78.25850 462.000
78.27845 418.000
78.29840 445.000
78.31834 454.000
78.33829 462.000
78.35824 434.000
78.37819 411.000
78.39813 426.000
78.41808 449.000
78.43803 429.000
78.45797 453.000
78.47792 425.000
78.49787 439.000
78.51781 450.000
78.53776 476.000
78.55771 454.000
78.57765 435.000
78.59760 403.000
78.61755 401.000
78.63750 464.000
78.65744 441.000
78.67739 388.000
78.69734 429.000
78.71728 425.000
78.73723 416.000
78.75718 458.000
78.77712 437.000
78.79707 450.000
78.81702 467.000
78.83697 440.000
78.85691 445.000
78.87686 425.000
78.89681 440.000
78.91675 448.000
78.93670 429.000
78.95665 458.000
78.97659 417.000
78.99654 447.000
79.01649 419.000
79.03643 424.000
79.05638 421.000
79.07633 458.000
79.09628 473.000
79.11622 446.000
79.13617 458.000
79.15612 428.000
79.17606 429.000
79.19601 428.000
79.21596 428.000
79.23590 416.000
79.25585 455.000
79.27580 449.000
79.29575 436.000
79.31569 449.000
79.33564 437.000
79.35559 477.000
79.37553 485.000
79.39548 449.000
79.41543 425.000
79.43537 425.000
79.45532 452.000
79.47527 440.000
79.49521 443.000
79.51516 434.000
79.53511 454.000
79.55506 424.000
79.57500 401.000
79.59495 441.000
79.61490 438.000
79.63484 411.000
79.65479 424.000
79.67474 442.000
79.69468 460.000
79.71463 427.000
79.73458 437.000
79.75453 439.000
79.77447 448.000
79.79442 445.000
79.81437 428.000
79.83431 454.000
79.85426 456.000
79.87421 465.000
79.89415 444.000
79.91410 447.000
79.93405 446.000
79.95399 431.000
79.97394 461.000
79.99389 462.000
80.01384 438.000
80.03378 521.000
80.05373 452.000
80.07368 478.000
80.09362 473.000
80.11357 468.000
80.13352 456.000
80.15346 500.000
80.17341 479.000
80.19336 514.000
80.21331 436.000
80.23325 459.000
80.25320 493.000
80.27315 507.000
80.29309 485.000
80.31304 448.000
80.33299 420.000
80.35293 488.000
80.37288 469.000
80.39283 481.000
80.41278 492.000
80.43272 465.000
80.45267 411.000
80.47262 503.000
80.49256 456.000
80.51251 459.000
80.53246 437.000
80.55240 443.000
80.57235 470.000
80.59230 399.000
80.61224 425.000
80.63219 464.000
80.65214 426.000
80.67209 431.000
80.69203 430.000
80.71198 466.000
80.73193 479.000
80.75187 410.000
80.77182 464.000
80.79177 438.000
80.81171 434.000
80.83166 457.000
80.85161 429.000
80.87156 434.000
80.89150 411.000
80.91145 431.000
80.93140 424.000
80.95134 435.000
80.97129 427.000
80.99124 474.000
81.01118 439.000
81.03113 448.000
81.05108 419.000
81.07102 438.000
81.09097 454.000
81.11092 438.000
81.13087 440.000
81.15081 430.000
81.17076 440.000
81.19071 416.000
81.21065 444.000
81.23060 431.000
81.25055 415.000
81.27049 444.000
81.29044 424.000
81.31039 408.000
81.33034 448.000
81.35028 435.000
81.37023 436.000
81.39018 458.000
81.41012 449.000
81.43007 415.000
81.45002 482.000
81.46996 399.000
81.48991 441.000
81.50986 459.000
81.52980 482.000
81.54975 443.000
81.56970 449.000
81.58965 457.000
81.60959 413.000
81.62954 443.000
81.64949 441.000
81.66943 440.000
81.68938 473.000
81.70933 469.000
81.72927 446.000
81.74922 441.000
81.76917 457.000
81.78912 436.000
81.80906 433.000
81.82901 436.000
81.84896 433.000
81.86890 443.000
81.88885 420.000
81.90880 468.000
81.92874 480.000
81.94869 455.000
81.96864 419.000
81.98859 437.000
82.00853 502.000
82.02848 470.000
82.04843 460.000
82.06837 472.000
82.08832 450.000
82.10827 507.000
82.12821 504.000
82.14816 496.000
82.16811 507.000
82.18805 469.000
82.20800 550.000
82.22795 517.000
82.24790 573.000
82.26784 536.000
82.28779 633.000
82.30774 544.000
82.32768 573.000
82.34763 602.000
82.36758 566.000
82.38752 570.000
82.40747 545.000
82.42742 516.000
82.44737 527.000
82.46731 483.000
82.48726 527.000
82.50721 549.000
82.52715 534.000
82.54710 535.000
82.56705 489.000
82.58699 509.000
82.60694 547.000
82.62689 487.000
82.64683 510.000
82.66678 547.000
82.68673 526.000
82.70668 487.000
82.72662 485.000
82.74657 447.000
82.76652 506.000
82.78646 491.000
82.80641 448.000
82.82636 461.000
82.84630 483.000
82.86625 502.000
82.88620 484.000
82.90615 516.000
82.92609 462.000
82.94604 481.000
82.96599 461.000
82.98593 495.000
83.00588 499.000
83.02583 555.000
83.04577 545.000
83.06572 512.000
83.08567 543.000
83.10561 537.000
83.12556 542.000
83.14551 559.000
83.16546 513.000
83.18540 541.000
83.20535 541.000
83.22530 558.000
83.24524 531.000
83.26519 567.000
83.28514 536.000
83.30508 527.000
83.32503 581.000
83.34498 528.000
83.36493 546.000
83.38487 551.000
83.40482 527.000
83.42477 571.000
83.44471 596.000
83.46466 549.000
83.48461 532.000
83.50455 603.000
83.52450 529.000
83.54445 555.000
83.56440 560.000
83.58434 556.000
83.60429 537.000
83.62424 558.000
83.64418 552.000
83.66413 522.000
83.68408 563.000
83.70402 538.000
83.72397 474.000
83.74392 513.000
83.76386 514.000
83.78381 538.000
83.80376 510.000
83.82371 521.000
83.84365 490.000
83.86360 536.000
83.88355 495.000
83.90349 511.000
83.92344 536.000
83.94339 489.000
83.96333 442.000
83.98328 471.000
84.00323 482.000
84.02318 481.000
84.04312 495.000
84.06307 500.000
84.08302 451.000
84.10296 462.000
84.12291 457.000
84.14286 460.000
84.16280 469.000
84.18275 480.000
84.20270 479.000
84.22264 476.000
84.24259 438.000
84.26254 459.000
84.28249 422.000
84.30243 487.000
84.32238 463.000
84.34233 509.000
84.36227 439.000
84.38222 461.000
84.40217 451.000
84.42211 477.000
84.44206 450.000
84.46201 445.000
84.48196 455.000
84.50190 442.000
84.52185 433.000
84.54180 426.000
84.56174 468.000
84.58169 418.000
84.60164 468.000
84.62158 462.000
84.64153 465.000
84.66148 456.000
84.68142 466.000
84.70137 442.000
84.72132 454.000
84.74127 423.000
84.76121 474.000
84.78116 406.000
84.80111 451.000
84.82105 437.000
84.84100 440.000
84.86095 441.000
84.88089 401.000
84.90084 436.000
84.92079 437.000
84.94074 451.000
84.96068 435.000
84.98063 437.000
85.00058 435.000
85.02052 440.000
85.04047 434.000
85.06042 462.000
85.08036 438.000
85.10031 455.000
85.12026 435.000
85.14021 428.000
85.16015 444.000
85.18010 448.000
85.20005 447.000
85.21999 452.000
85.23994 446.000
85.25989 419.000
85.27983 432.000
85.29978 443.000
85.31973 449.000
85.33967 456.000
85.35962 460.000
85.37957 445.000
85.39952 437.000
85.41946 402.000
85.43941 448.000
85.45936 431.000
85.47930 439.000
85.49925 386.000
85.51920 449.000
85.53914 440.000
85.55909 454.000
85.57904 447.000
85.59899 411.000
85.61893 442.000
85.63888 419.000
85.65883 460.000
85.67877 446.000
85.69872 455.000
85.71867 454.000
85.73861 455.000
85.75856 429.000
85.77851 449.000
85.79845 416.000
85.81840 428.000
85.83835 474.000
85.85830 422.000
85.87824 443.000
85.89819 409.000
85.91814 456.000
85.93808 405.000
85.95803 439.000
85.97798 428.000
85.99792 446.000
86.01787 456.000
86.03782 450.000
86.05777 467.000
86.07771 432.000
86.09766 454.000
86.11761 436.000
86.13755 449.000
86.15750 463.000
86.17745 461.000
86.19739 493.000
86.21734 458.000
86.23729 464.000
86.25723 457.000
86.27718 509.000
86.29713 478.000
86.31708 481.000
86.33702 520.000
86.35697 476.000
86.37692 503.000
86.39686 458.000
86.41681 424.000
86.43676 517.000
86.45670 475.000
86.47665 448.000
86.49660 486.000
86.51655 486.000
86.53649 451.000
86.55644 509.000
86.57639 483.000
86.59633 441.000
86.61628 442.000
86.63623 478.000
86.65617 508.000
86.67612 464.000
86.69607 467.000
86.71602 492.000
86.73596 473.000
86.75591 456.000
86.77586 446.000
86.79580 476.000
86.81575 441.000
86.83570 506.000
86.85564 448.000
86.87559 450.000
86.89554 458.000
86.91548 446.000
86.93543 446.000
86.95538 461.000
86.97533 484.000
86.99527 491.000
87.01522 456.000
87.03517 487.000
87.05511 489.000
87.07506 479.000
87.09501 490.000
87.11495 463.000
87.13490 461.000
87.15485 449.000
87.17480 456.000
87.19474 496.000
87.21469 449.000
87.23464 442.000
87.25458 448.000
87.27453 479.000
87.29448 468.000
87.31442 437.000
87.33437 432.000
87.35432 477.000
87.37426 422.000
87.39421 461.000
87.41416 456.000
87.43411 414.000
87.45405 462.000
87.47400 460.000
87.49395 408.000
87.51389 459.000
87.53384 468.000
87.55379 436.000
87.57373 489.000
87.59368 448.000
87.61363 438.000
87.63358 435.000
87.65352 423.000
87.67347 454.000
87.69342 444.000
87.71336 433.000
87.73331 466.000
87.75326 465.000
87.77320 435.000
87.79315 441.000
87.81310 475.000
87.83304 440.000
87.85299 461.000
87.87294 460.000
87.89289 445.000
87.91283 481.000
87.93278 462.000
87.95273 433.000
87.97267 420.000
87.99262 426.000
88.01257 435.000
88.03251 438.000
88.05246 452.000
88.07241 419.000
88.09236 457.000
88.11230 445.000
88.13225 400.000
88.15220 481.000
88.17214 487.000
88.19209 451.000
88.21204 459.000
88.23198 461.000
88.25193 425.000
88.27188 486.000
88.29183 457.000
88.31177 430.000
88.33172 462.000
88.35167 452.000
88.37161 462.000
88.39156 448.000
88.41151 380.000
88.43145 465.000
88.45140 391.000
88.47135 460.000
88.49129 461.000
88.51124 421.000
88.53119 457.000
88.55114 429.000
88.57108 452.000
88.59103 433.000
88.61098 444.000
88.63092 479.000
88.65087 424.000
88.67082 454.000
88.69076 441.000
88.71071 432.000
88.73066 404.000
88.75061 441.000
88.77055 430.000
88.79050 470.000
88.81045 465.000
88.83039 440.000
88.85034 425.000
88.87029 471.000
88.89023 456.000
88.91018 442.000
88.93013 442.000
88.95007 455.000
88.97002 423.000
88.98997 441.000
89.00992 444.000
89.02986 439.000
89.04981 429.000
89.06976 402.000
89.08970 475.000
89.10965 432.000
89.12960 455.000
89.14954 419.000
89.16949 447.000
89.18944 442.000
89.20939 423.000
89.22933 472.000
89.24928 419.000
89.26923 424.000
89.28917 504.000
89.30912 450.000
89.32907 391.000
89.34901 458.000
89.36896 438.000
89.38891 441.000
89.40885 485.000
89.42880 496.000
89.44875 499.000
89.46870 454.000
89.48864 473.000
89.50859 437.000
89.52854 483.000
89.54848 453.000
89.56843 472.000
89.58838 473.000
89.60832 454.000
89.62827 503.000
89.64822 508.000
89.66817 503.000
89.68811 507.000
89.70806 488.000
89.72801 502.000
89.74795 489.000
89.76790 493.000
89.78785 508.000
89.80779 508.000
89.82774 508.000
89.84769 547.000
89.86764 493.000
89.88758 518.000
89.90753 522.000
89.92748 531.000
89.94742 530.000
89.96737 527.000
89.98732 523.000
90.00726 493.000
